##NAMES=Rutherfordine
##RRUFFID=R090018
##IDEAL CHEMISTRY=(U^6+^O_2_)CO_3_
##LOCALITY=El Sharana mine, South Alligator Valley, Northern Territory, Australia
##OWNER=RRUFF
##SOURCE=James Shigley
##DESCRIPTION=Bright yellow bladed crystals in vug
##STATUS=The identification of this mineral has been confirmed by single-crystal X-ray diffraction.
##URL=rruff.info/R090018
90.92609, 0.0000000E+00
91.40820, 197.6196
91.89032, 196.7658
92.37244, 196.9685
92.85455, 198.1293
93.33667, 199.6576
93.81879, 200.9428
94.30090, 202.2257
94.78302, 204.4345
95.26514, 208.2359
95.74725, 212.6631
96.22937, 215.3132
96.71149, 216.0374
97.19360, 216.4065
97.67572, 217.9268
98.15784, 220.5550
98.63995, 223.1790
99.12207, 224.9198
99.60419, 226.1239
100.0863, 230.1970
100.5684, 237.5627
101.0505, 246.9920
101.5327, 256.4732
102.0148, 264.8823
102.4969, 276.9418
102.9790, 294.5336
103.4611, 317.9918
103.9432, 344.1245
104.4253, 371.8547
104.9075, 402.7487
105.3896, 439.1424
105.8717, 482.1873
106.3538, 529.6757
106.8359, 581.8255
107.3180, 639.4755
107.8002, 699.3696
108.2823, 759.1923
108.7644, 820.6732
109.2465, 892.8254
109.7286, 976.2914
110.2107, 1069.053
110.6929, 1171.818
111.1750, 1273.608
111.6571, 1396.325
112.1392, 1544.698
112.6213, 1717.224
113.1034, 1905.116
113.5856, 2115.328
114.0677, 2338.740
114.5498, 2566.896
115.0319, 2807.385
115.5140, 3045.880
115.9961, 3279.209
116.4783, 3507.123
116.9604, 3722.342
117.4425, 3926.968
117.9246, 4118.603
118.4067, 4293.142
118.8888, 4438.524
119.3710, 4576.293
119.8531, 4715.013
120.3352, 4853.811
120.8173, 5002.898
121.2994, 5166.060
121.7815, 5342.804
122.2637, 5533.109
122.7458, 5734.101
123.2279, 5948.037
123.7100, 6176.628
124.1921, 6420.362
124.6742, 6677.465
125.1564, 6953.511
125.6385, 7243.546
126.1206, 7533.118
126.6027, 7808.648
127.0848, 8076.610
127.5669, 8346.826
128.0491, 8622.185
128.5312, 8897.262
129.0133, 9168.433
129.4954, 9432.874
129.9775, 9687.170
130.4596, 9927.662
130.9418, 10153.85
131.4239, 10372.65
131.9060, 10584.75
132.3881, 10791.33
132.8702, 10990.61
133.3523, 11183.30
133.8345, 11371.76
134.3166, 11556.74
134.7987, 11739.83
135.2808, 11921.26
135.7629, 12101.65
136.2450, 12283.35
136.7272, 12473.49
137.2093, 12674.40
137.6914, 12879.82
138.1735, 13087.47
138.6556, 13298.92
139.1377, 13497.93
139.6199, 13682.79
140.1020, 13851.96
140.5841, 14006.01
141.0662, 14138.49
141.5483, 14262.17
142.0304, 14393.10
142.5126, 14533.32
142.9947, 14667.24
143.4768, 14744.61
143.9589, 14730.47
144.4410, 14718.04
144.9231, 14707.90
145.4053, 14699.26
145.8874, 14690.25
146.3695, 14677.28
146.8516, 14669.44
147.3337, 14671.16
147.8158, 14689.52
148.2980, 14699.61
148.7801, 14697.69
149.2622, 14688.68
149.7443, 14682.38
150.2264, 14682.68
150.7085, 14682.12
151.1907, 14677.96
151.6728, 14666.14
152.1549, 14657.20
152.6370, 14651.12
153.1191, 14647.56
153.6012, 14646.22
154.0834, 14650.55
154.5655, 14653.72
155.0476, 14652.87
155.5297, 14648.31
156.0118, 14638.32
156.4939, 14621.42
156.9761, 14598.46
157.4582, 14572.84
157.9403, 14544.10
158.4224, 14513.73
158.9045, 14482.68
159.3866, 14456.88
159.8688, 14424.59
160.3509, 14378.84
160.8330, 14322.69
161.3151, 14270.12
161.7972, 14226.88
162.2793, 14188.85
162.7615, 14152.86
163.2436, 14119.87
163.7257, 14087.07
164.2078, 14051.33
164.6899, 14013.35
165.1720, 13978.82
165.6541, 13952.29
166.1363, 13929.55
166.6184, 13906.41
167.1005, 13876.59
167.5826, 13849.48
168.0647, 13831.42
168.5468, 13821.86
169.0290, 13814.76
169.5111, 13806.93
169.9932, 13799.15
170.4753, 13792.41
170.9574, 13788.57
171.4395, 13785.18
171.9217, 13779.05
172.4038, 13770.26
172.8859, 13763.64
173.3680, 13765.99
173.8501, 13772.94
174.3322, 13776.72
174.8144, 13768.22
175.2965, 13757.61
175.7786, 13757.98
176.2607, 13769.65
176.7428, 13785.58
177.2249, 13800.97
177.7071, 13815.68
178.1892, 13829.89
178.6713, 13844.93
179.1534, 13858.96
179.6355, 13867.87
180.1176, 13870.93
180.5998, 13873.52
181.0819, 13882.38
181.5640, 13895.72
182.0461, 13907.84
182.5282, 13917.35
183.0103, 13923.40
183.4925, 13922.61
183.9746, 13913.97
184.4567, 13903.01
184.9388, 13897.62
185.4209, 13896.72
185.9030, 13893.86
186.3852, 13887.49
186.8673, 13877.13
187.3494, 13859.04
187.8315, 13831.92
188.3136, 13802.01
188.7957, 13777.82
189.2779, 13759.15
189.7600, 13739.08
190.2421, 13709.66
190.7242, 13674.24
191.2063, 13653.35
191.6884, 13650.74
192.1706, 13655.59
192.6527, 13650.79
193.1348, 13636.02
193.6169, 13619.92
194.0990, 13604.22
194.5811, 13589.22
195.0633, 13581.88
195.5454, 13583.71
196.0275, 13590.46
196.5096, 13596.73
196.9917, 13603.13
197.4738, 13603.24
197.9560, 13589.19
198.4381, 13561.10
198.9202, 13544.72
199.4023, 13542.65
199.8844, 13551.48
200.3665, 13567.51
200.8487, 13592.87
201.3308, 13614.65
201.8129, 13624.72
202.2950, 13622.21
202.7771, 13621.42
203.2592, 13623.01
203.7414, 13626.38
204.2235, 13630.30
204.7056, 13634.65
205.1877, 13639.22
205.6698, 13644.34
206.1519, 13650.32
206.6341, 13652.71
207.1162, 13649.08
207.5983, 13643.40
208.0804, 13645.38
208.5625, 13656.57
209.0446, 13670.20
209.5268, 13685.98
210.0089, 13707.44
210.4910, 13712.50
210.9731, 13693.83
211.4552, 13663.28
211.9373, 13650.84
212.4195, 13662.92
212.9016, 13677.27
213.3837, 13683.60
213.8658, 13680.49
214.3479, 13674.60
214.8300, 13664.81
215.3121, 13652.98
215.7943, 13643.65
216.2764, 13637.47
216.7585, 13632.10
217.2406, 13626.60
217.7227, 13621.30
218.2048, 13614.15
218.6870, 13604.70
219.1691, 13593.27
219.6512, 13580.04
220.1333, 13563.02
220.6154, 13547.55
221.0975, 13536.45
221.5797, 13532.72
222.0618, 13524.65
222.5439, 13509.41
223.0260, 13491.52
223.5081, 13480.64
223.9902, 13478.62
224.4724, 13481.37
224.9545, 13488.88
225.4366, 13505.99
225.9187, 13514.81
226.4008, 13512.58
226.8829, 13503.69
227.3651, 13495.89
227.8472, 13483.79
228.3293, 13481.66
228.8114, 13498.37
229.2935, 13544.80
229.7757, 13575.42
230.2578, 13584.98
230.7399, 13580.67
231.2220, 13575.38
231.7041, 13564.46
232.1862, 13559.63
232.6684, 13566.48
233.1505, 13589.93
233.6326, 13608.76
234.1147, 13622.61
234.5968, 13631.97
235.0789, 13636.83
235.5611, 13634.06
236.0432, 13632.03
236.5253, 13633.99
237.0074, 13641.68
237.4895, 13647.25
237.9716, 13649.31
238.4538, 13650.25
238.9359, 13654.26
239.4180, 13664.34
239.9001, 13672.86
240.3822, 13677.41
240.8643, 13677.29
241.3465, 13676.11
241.8286, 13672.30
242.3107, 13668.46
242.7928, 13668.89
243.2749, 13677.49
243.7570, 13683.38
244.2392, 13683.03
244.7213, 13675.35
245.2034, 13668.43
245.6855, 13665.53
246.1676, 13660.79
246.6497, 13645.02
247.1319, 13607.57
247.6140, 13579.27
248.0961, 13571.58
248.5782, 13588.16
249.0603, 13591.47
249.5424, 13574.99
250.0246, 13551.82
250.5067, 13535.52
250.9888, 13526.57
251.4709, 13523.80
251.9530, 13528.28
252.4351, 13540.36
252.9173, 13551.28
253.3994, 13561.03
253.8815, 13569.22
254.3636, 13575.02
254.8457, 13576.51
255.3278, 13578.81
255.8100, 13582.90
256.2921, 13588.63
256.7742, 13593.62
257.2563, 13597.67
257.7384, 13601.16
258.2205, 13604.35
258.7026, 13607.32
259.1848, 13610.33
259.6669, 13613.67
260.1490, 13617.43
260.6311, 13621.66
261.1132, 13628.90
261.5953, 13633.04
262.0775, 13627.51
262.5596, 13606.34
263.0417, 13593.80
263.5238, 13595.54
264.0059, 13607.94
264.4880, 13613.05
264.9702, 13607.25
265.4523, 13600.57
265.9344, 13600.65
266.4165, 13610.92
266.8986, 13614.11
267.3807, 13605.76
267.8629, 13590.50
268.3450, 13584.93
268.8271, 13593.48
269.3092, 13601.04
269.7913, 13598.71
270.2734, 13584.53
270.7556, 13570.74
271.2377, 13556.21
271.7198, 13544.25
272.2019, 13543.90
272.6840, 13558.72
273.1661, 13574.13
273.6483, 13582.63
274.1304, 13583.13
274.6125, 13585.13
275.0946, 13587.77
275.5767, 13592.78
276.0588, 13604.91
276.5410, 13625.56
277.0231, 13644.00
277.5052, 13653.43
277.9873, 13653.38
278.4694, 13658.10
278.9515, 13668.20
279.4337, 13680.79
279.9158, 13693.24
280.3979, 13705.78
280.8800, 13714.22
281.3621, 13716.65
281.8442, 13713.49
282.3264, 13706.13
282.8085, 13693.19
283.2906, 13681.91
283.7727, 13683.07
284.2548, 13697.01
284.7369, 13708.66
285.2191, 13713.62
285.7012, 13713.13
286.1833, 13711.83
286.6654, 13709.74
287.1475, 13706.96
287.6296, 13702.12
288.1118, 13695.64
288.5939, 13693.01
289.0760, 13696.71
289.5581, 13703.88
290.0402, 13707.54
290.5223, 13707.54
291.0045, 13706.18
291.4866, 13704.10
291.9687, 13701.79
292.4508, 13702.38
292.9329, 13708.03
293.4150, 13714.48
293.8972, 13713.66
294.3793, 13706.20
294.8614, 13697.78
295.3435, 13692.74
295.8256, 13689.92
296.3077, 13685.92
296.7899, 13680.25
297.2720, 13674.10
297.7541, 13668.81
298.2362, 13664.43
298.7183, 13661.04
299.2004, 13660.45
299.6826, 13660.40
300.1647, 13655.60
300.6468, 13644.75
301.1289, 13633.74
301.6110, 13627.95
302.0931, 13626.52
302.5753, 13627.26
303.0574, 13630.44
303.5395, 13634.57
304.0216, 13640.39
304.5037, 13648.18
304.9858, 13648.91
305.4680, 13627.68
305.9501, 13595.40
306.4322, 13570.67
306.9143, 13560.34
307.3964, 13560.56
307.8785, 13574.32
308.3607, 13599.70
308.8428, 13618.03
309.3249, 13612.78
309.8070, 13595.12
310.2891, 13577.95
310.7712, 13564.64
311.2534, 13552.62
311.7355, 13537.13
312.2176, 13520.16
312.6997, 13510.07
313.1818, 13518.00
313.6639, 13530.71
314.1461, 13536.94
314.6282, 13531.01
315.1103, 13525.49
315.5924, 13528.38
316.0745, 13536.21
316.5566, 13541.79
317.0388, 13541.02
317.5209, 13538.18
318.0030, 13536.24
318.4851, 13536.53
318.9672, 13534.17
319.4493, 13526.27
319.9315, 13515.26
320.4136, 13504.18
320.8957, 13488.38
321.3778, 13477.84
321.8599, 13479.96
322.3420, 13496.73
322.8242, 13505.20
323.3063, 13493.91
323.7884, 13475.40
324.2705, 13460.58
324.7526, 13449.23
325.2347, 13443.66
325.7169, 13446.47
326.1990, 13456.95
326.6811, 13467.07
327.1632, 13480.83
327.6453, 13490.94
328.1274, 13493.28
328.6096, 13476.48
329.0917, 13465.96
329.5738, 13465.02
330.0559, 13471.11
330.5380, 13476.10
331.0201, 13478.96
331.5023, 13481.90
331.9844, 13486.51
332.4665, 13495.93
332.9486, 13498.65
333.4307, 13490.78
333.9128, 13478.13
334.3950, 13470.79
334.8771, 13470.64
335.3592, 13472.20
335.8413, 13474.89
336.3234, 13479.33
336.8055, 13477.29
337.2877, 13464.46
337.7698, 13451.01
338.2519, 13449.42
338.7340, 13463.10
339.2161, 13475.42
339.6982, 13482.82
340.1803, 13485.92
340.6624, 13488.42
341.1446, 13491.06
341.6267, 13490.89
342.1088, 13482.52
342.5909, 13465.46
343.0730, 13458.25
343.5551, 13466.73
344.0373, 13482.50
344.5194, 13485.61
345.0015, 13475.63
345.4836, 13462.18
345.9657, 13447.81
346.4478, 13433.81
346.9300, 13429.71
347.4121, 13438.29
347.8942, 13448.78
348.3763, 13442.48
348.8584, 13423.01
349.3405, 13410.88
349.8227, 13424.19
350.3048, 13449.63
350.7869, 13457.30
351.2690, 13447.03
351.7511, 13432.59
352.2332, 13424.78
352.7154, 13422.40
353.1975, 13422.82
353.6796, 13426.06
354.1617, 13430.70
354.6438, 13433.87
355.1259, 13436.16
355.6081, 13441.45
356.0902, 13456.86
356.5723, 13474.38
357.0544, 13484.00
357.5365, 13480.63
358.0186, 13475.42
358.5008, 13475.52
358.9829, 13479.25
359.4650, 13483.17
359.9471, 13489.69
360.4292, 13493.07
360.9113, 13488.04
361.3935, 13473.04
361.8756, 13459.31
362.3577, 13452.20
362.8398, 13448.92
363.3219, 13446.24
363.8040, 13444.81
364.2862, 13442.86
364.7683, 13440.44
365.2504, 13437.56
365.7325, 13432.86
366.2146, 13422.27
366.6967, 13412.35
367.1789, 13407.18
367.6610, 13412.33
368.1431, 13416.20
368.6252, 13417.84
369.1073, 13417.61
369.5894, 13416.71
370.0716, 13416.06
370.5537, 13413.66
371.0358, 13407.79
371.5179, 13395.45
372.0000, 13388.63
372.4821, 13388.52
372.9643, 13392.97
373.4464, 13399.94
373.9285, 13411.80
374.4106, 13420.38
374.8927, 13422.43
375.3748, 13418.16
375.8570, 13417.40
376.3391, 13420.97
376.8212, 13425.86
377.3033, 13430.09
377.7854, 13433.75
378.2675, 13435.15
378.7497, 13433.15
379.2318, 13429.72
379.7139, 13431.52
380.1960, 13439.31
380.6781, 13444.32
381.1602, 13440.14
381.6424, 13428.30
382.1245, 13416.97
382.6066, 13406.02
383.0887, 13398.05
383.5708, 13399.05
384.0529, 13407.00
384.5351, 13411.73
385.0172, 13407.02
385.4993, 13397.54
385.9814, 13389.86
386.4635, 13384.10
386.9456, 13381.97
387.4278, 13388.10
387.9099, 13398.04
388.3920, 13404.28
388.8741, 13403.04
389.3562, 13400.60
389.8383, 13402.73
390.3205, 13408.09
390.8026, 13412.97
391.2847, 13415.71
391.7668, 13416.94
392.2489, 13417.55
392.7310, 13418.00
393.2132, 13415.79
393.6953, 13409.51
394.1774, 13400.07
394.6595, 13388.40
395.1416, 13370.53
395.6237, 13354.86
396.1059, 13343.63
396.5880, 13337.01
397.0701, 13335.63
397.5522, 13346.49
398.0343, 13358.20
398.5164, 13364.06
398.9986, 13362.79
399.4807, 13356.73
399.9628, 13339.92
400.4449, 13318.92
400.9270, 13309.23
401.4091, 13319.87
401.8913, 13330.29
402.3734, 13332.58
402.8555, 13323.91
403.3376, 13323.86
403.8197, 13336.67
404.3018, 13352.97
404.7840, 13362.42
405.2661, 13363.14
405.7482, 13362.76
406.2303, 13361.45
406.7124, 13360.19
407.1945, 13366.07
407.6767, 13381.40
408.1588, 13391.62
408.6409, 13381.73
409.1230, 13353.58
409.6051, 13336.74
410.0872, 13334.80
410.5694, 13340.45
411.0515, 13344.01
411.5336, 13345.83
412.0157, 13347.60
412.4978, 13351.77
412.9799, 13356.16
413.4621, 13355.83
413.9442, 13350.99
414.4263, 13345.00
414.9084, 13339.92
415.3905, 13335.83
415.8727, 13332.84
416.3548, 13331.70
416.8369, 13330.68
417.3190, 13326.66
417.8011, 13321.38
418.2832, 13319.41
418.7654, 13327.00
419.2475, 13335.73
419.7296, 13338.44
420.2117, 13332.92
420.6938, 13329.90
421.1759, 13334.60
421.6581, 13343.33
422.1402, 13352.30
422.6223, 13365.65
423.1044, 13373.58
423.5865, 13369.62
424.0686, 13355.79
424.5508, 13348.08
425.0329, 13355.19
425.5150, 13362.96
425.9971, 13364.53
426.4792, 13354.00
426.9613, 13350.17
427.4435, 13356.88
427.9256, 13368.47
428.4077, 13375.73
428.8898, 13376.72
429.3719, 13378.35
429.8540, 13384.54
430.3362, 13394.34
430.8183, 13391.68
431.3004, 13372.98
431.7825, 13352.17
432.2646, 13340.38
432.7467, 13337.60
433.2289, 13338.42
433.7110, 13342.91
434.1931, 13349.09
434.6752, 13355.28
435.1573, 13360.95
435.6394, 13361.37
436.1216, 13348.43
436.6036, 13329.33
437.0858, 13321.47
437.5679, 13325.28
438.0500, 13332.17
438.5321, 13338.83
439.0142, 13342.69
439.4963, 13338.51
439.9785, 13318.97
440.4606, 13299.08
440.9427, 13292.67
441.4248, 13296.35
441.9069, 13299.99
442.3890, 13301.60
442.8712, 13299.81
443.3533, 13292.52
443.8354, 13278.25
444.3175, 13265.38
444.7996, 13256.93
445.2817, 13251.23
445.7639, 13246.41
446.2460, 13242.40
446.7281, 13238.67
447.2102, 13234.18
447.6923, 13229.21
448.1744, 13226.89
448.6566, 13231.60
449.1387, 13233.80
449.6208, 13227.39
450.1029, 13205.11
450.5850, 13196.62
451.0671, 13208.10
451.5493, 13227.03
452.0314, 13236.44
452.5135, 13235.66
452.9956, 13227.43
453.4777, 13208.40
453.9598, 13183.36
454.4420, 13177.44
454.9241, 13193.24
455.4062, 13205.27
455.8883, 13186.17
456.3704, 13144.91
456.8525, 13125.39
457.3347, 13136.38
457.8168, 13155.49
458.2989, 13153.36
458.7810, 13136.32
459.2631, 13122.98
459.7452, 13126.73
460.2274, 13135.12
460.7095, 13132.36
461.1916, 13120.07
461.6737, 13110.86
462.1558, 13116.47
462.6379, 13126.40
463.1201, 13130.98
463.6022, 13126.91
464.0843, 13120.49
464.5664, 13109.19
465.0485, 13097.97
465.5306, 13094.81
466.0128, 13113.69
466.4949, 13128.66
466.9770, 13129.96
467.4591, 13116.88
467.9412, 13106.57
468.4233, 13097.91
468.9055, 13093.49
469.3876, 13095.88
469.8697, 13112.41
470.3518, 13119.67
470.8339, 13113.82
471.3160, 13101.25
471.7982, 13093.73
472.2803, 13092.31
472.7624, 13092.06
473.2445, 13091.06
473.7266, 13089.75
474.2087, 13090.70
474.6909, 13093.72
475.1730, 13099.49
475.6551, 13112.36
476.1372, 13129.16
476.6193, 13135.66
477.1014, 13127.46
477.5836, 13114.92
478.0657, 13111.39
478.5478, 13113.99
479.0299, 13114.64
479.5120, 13104.56
479.9941, 13094.12
480.4763, 13095.90
480.9584, 13108.67
481.4405, 13118.66
481.9226, 13116.51
482.4047, 13109.66
482.8868, 13103.71
483.3690, 13099.19
483.8511, 13097.21
484.3332, 13100.94
484.8153, 13106.93
485.2974, 13109.61
485.7795, 13107.81
486.2617, 13102.96
486.7438, 13093.35
487.2259, 13079.14
487.7080, 13070.76
488.1901, 13071.13
488.6722, 13073.50
489.1544, 13073.38
489.6365, 13069.22
490.1186, 13069.31
490.6007, 13075.44
491.0828, 13083.64
491.5649, 13087.77
492.0471, 13087.65
492.5292, 13085.97
493.0113, 13082.98
493.4934, 13079.18
493.9755, 13075.14
494.4576, 13070.88
494.9398, 13068.55
495.4219, 13072.85
495.9040, 13079.33
496.3861, 13078.43
496.8682, 13067.56
497.3503, 13057.09
497.8325, 13058.24
498.3146, 13064.89
498.7967, 13067.58
499.2788, 13057.02
499.7609, 13047.17
500.2430, 13046.74
500.7252, 13053.80
501.2073, 13059.09
501.6894, 13061.53
502.1715, 13060.61
502.6536, 13055.62
503.1357, 13044.99
503.6179, 13034.96
504.1000, 13023.12
504.5821, 13013.62
505.0642, 13010.78
505.5463, 13016.65
506.0284, 13024.31
506.5106, 13033.33
506.9927, 13042.89
507.4748, 13051.44
507.9569, 13059.55
508.4390, 13062.88
508.9211, 13054.38
509.4033, 13036.65
509.8854, 13034.92
510.3675, 13050.65
510.8496, 13069.47
511.3317, 13077.05
511.8138, 13076.50
512.2960, 13076.21
512.7781, 13078.50
513.2602, 13080.98
513.7423, 13081.33
514.2244, 13080.01
514.7065, 13078.08
515.1887, 13077.72
515.6708, 13075.71
516.1529, 13067.60
516.6350, 13053.66
517.1171, 13044.63
517.5992, 13047.84
518.0814, 13054.95
518.5635, 13060.58
519.0456, 13062.88
519.5277, 13065.89
520.0098, 13075.52
520.4919, 13083.64
520.9741, 13075.82
521.4562, 13037.96
521.9383, 13012.84
522.4204, 13013.01
522.9025, 13034.26
523.3846, 13052.01
523.8668, 13066.96
524.3489, 13074.42
524.8310, 13066.02
525.3131, 13044.55
525.7952, 13036.63
526.2773, 13044.80
526.7595, 13057.77
527.2416, 13064.16
527.7237, 13065.21
528.2058, 13063.95
528.6879, 13060.72
529.1700, 13056.65
529.6522, 13053.77
530.1343, 13051.27
530.6164, 13046.49
531.0985, 13034.47
531.5806, 13022.87
532.0627, 13016.91
532.5449, 13017.25
533.0270, 13018.71
533.5091, 13020.46
533.9912, 13022.39
534.4733, 13024.29
534.9554, 13024.98
535.4376, 13027.08
535.9197, 13031.27
536.4018, 13036.26
536.8839, 13039.28
537.3660, 13038.46
537.8481, 13040.57
538.3303, 13049.10
538.8124, 13061.92
539.2945, 13067.62
539.7766, 13065.78
540.2587, 13060.76
540.7408, 13053.69
541.2230, 13045.77
541.7051, 13041.51
542.1872, 13041.42
542.6693, 13044.41
543.1514, 13054.98
543.6335, 13067.14
544.1157, 13069.14
544.5978, 13050.15
545.0799, 13030.39
545.5620, 13024.64
546.0441, 13029.14
546.5262, 13034.54
547.0084, 13039.26
547.4905, 13042.30
547.9726, 13041.03
548.4547, 13034.51
548.9368, 13034.90
549.4189, 13043.93
549.9011, 13059.27
550.3832, 13082.22
550.8653, 13126.38
551.3474, 13142.96
551.8295, 13119.16
552.3116, 13081.55
552.7938, 13072.59
553.2759, 13095.89
553.7580, 13112.19
554.2401, 13109.59
554.7222, 13094.76
555.2043, 13082.56
555.6865, 13073.12
556.1686, 13066.26
556.6507, 13062.69
557.1328, 13061.55
557.6149, 13063.60
558.0970, 13069.06
558.5792, 13069.92
559.0613, 13054.84
559.5434, 13035.24
560.0255, 13022.69
560.5076, 13021.61
560.9897, 13025.14
561.4719, 13035.57
561.9540, 13048.35
562.4361, 13055.76
562.9182, 13047.33
563.4003, 13044.23
563.8824, 13052.97
564.3646, 13071.12
564.8467, 13082.41
565.3288, 13084.80
565.8109, 13083.93
566.2930, 13081.21
566.7751, 13076.30
567.2573, 13076.91
567.7394, 13084.23
568.2215, 13091.02
568.7036, 13087.28
569.1857, 13076.21
569.6678, 13069.84
570.1500, 13071.39
570.6321, 13076.93
571.1142, 13085.67
571.5963, 13095.07
572.0784, 13099.30
572.5605, 13092.97
573.0427, 13083.46
573.5248, 13075.99
574.0069, 13069.99
574.4890, 13060.10
574.9711, 13038.20
575.4532, 13017.74
575.9354, 13005.70
576.4175, 13003.91
576.8996, 13006.10
577.3817, 13016.97
577.8638, 13027.18
578.3459, 13026.71
578.8281, 13011.39
579.3102, 13002.45
579.7923, 13003.30
580.2744, 13009.57
580.7565, 13013.97
581.2386, 13016.43
581.7208, 13017.00
582.2029, 13013.82
582.6850, 13009.98
583.1671, 13013.04
583.6492, 13021.62
584.1313, 13027.43
584.6134, 13021.29
585.0955, 13012.54
585.5776, 13009.54
586.0598, 13013.39
586.5419, 13021.82
587.0240, 13042.73
587.5061, 13062.93
587.9882, 13071.23
588.4703, 13051.53
588.9525, 13039.91
589.4346, 13041.26
589.9167, 13049.77
590.3988, 13056.33
590.8809, 13060.19
591.3630, 13063.24
591.8452, 13065.44
592.3273, 13067.01
592.8094, 13069.38
593.2915, 13072.55
593.7736, 13074.75
594.2557, 13074.35
594.7379, 13072.24
595.2200, 13070.41
595.7021, 13068.97
596.1842, 13069.09
596.6663, 13076.95
597.1484, 13084.82
597.6306, 13080.93
598.1127, 13057.58
598.5948, 13039.38
599.0769, 13045.79
599.5590, 13061.42
600.0411, 13066.90
600.5233, 13045.40
601.0054, 13028.82
601.4875, 13025.17
601.9696, 13030.06
602.4517, 13029.73
602.9338, 13021.10
603.4160, 13013.84
603.8981, 13010.90
604.3802, 13012.19
604.8623, 13018.02
605.3444, 13029.16
605.8265, 13038.96
606.3087, 13038.05
606.7908, 13031.87
607.2729, 13039.90
607.7550, 13065.79
608.2371, 13087.03
608.7192, 13073.18
609.2014, 13045.49
609.6835, 13034.50
610.1656, 13060.07
610.6477, 13085.11
611.1298, 13092.74
611.6119, 13089.12
612.0941, 13085.46
612.5762, 13082.75
613.0583, 13081.55
613.5404, 13083.66
614.0225, 13087.78
614.5046, 13085.62
614.9868, 13072.52
615.4689, 13063.93
615.9510, 13070.06
616.4331, 13089.73
616.9152, 13096.53
617.3973, 13089.04
617.8795, 13081.00
618.3616, 13088.75
618.8437, 13104.98
619.3258, 13110.25
619.8079, 13100.08
620.2900, 13089.16
620.7722, 13091.01
621.2543, 13099.95
621.7364, 13108.10
622.2185, 13115.75
622.7006, 13119.00
623.1827, 13111.85
623.6649, 13099.55
624.1470, 13094.56
624.6291, 13103.39
625.1112, 13113.18
625.5933, 13121.46
626.0754, 13128.28
626.5576, 13134.46
627.0397, 13139.93
627.5218, 13144.40
628.0039, 13148.70
628.4860, 13152.26
628.9681, 13149.24
629.4503, 13139.17
629.9324, 13128.85
630.4145, 13124.97
630.8966, 13124.90
631.3787, 13123.32
631.8608, 13118.44
632.3430, 13116.46
632.8251, 13126.80
633.3072, 13140.75
633.7893, 13147.71
634.2714, 13132.21
634.7535, 13124.28
635.2357, 13136.45
635.7178, 13159.57
636.1999, 13172.79
636.6820, 13171.63
637.1641, 13167.85
637.6462, 13162.53
638.1284, 13156.75
638.6105, 13157.91
639.0926, 13166.43
639.5747, 13176.29
640.0568, 13184.32
640.5389, 13190.78
641.0211, 13196.07
641.5032, 13200.21
641.9853, 13203.88
642.4674, 13210.54
642.9495, 13215.69
643.4316, 13212.61
643.9138, 13197.63
644.3959, 13185.99
644.8780, 13186.55
645.3601, 13192.86
645.8422, 13198.58
646.3243, 13204.18
646.8065, 13207.59
647.2886, 13207.69
647.7707, 13206.29
648.2528, 13206.37
648.7349, 13207.91
649.2170, 13211.31
649.6992, 13217.70
650.1813, 13225.06
650.6634, 13226.69
651.1455, 13223.29
651.6276, 13222.45
652.1097, 13231.36
652.5919, 13243.51
653.0740, 13250.61
653.5561, 13252.85
654.0382, 13253.33
654.5203, 13250.26
655.0024, 13248.40
655.4846, 13251.13
655.9667, 13259.39
656.4488, 13268.97
656.9309, 13283.68
657.4130, 13295.76
657.8951, 13298.71
658.3773, 13286.87
658.8594, 13283.09
659.3415, 13290.51
659.8236, 13301.64
660.3057, 13306.99
660.7878, 13306.82
661.2700, 13303.57
661.7521, 13296.15
662.2342, 13289.71
662.7163, 13293.37
663.1984, 13303.67
663.6805, 13311.84
664.1627, 13312.62
664.6448, 13311.47
665.1269, 13310.88
665.6090, 13311.00
666.0911, 13312.00
666.5732, 13316.27
667.0554, 13319.04
667.5375, 13316.55
668.0196, 13308.97
668.5017, 13311.93
668.9838, 13329.97
669.4659, 13347.50
669.9481, 13355.84
670.4302, 13355.04
670.9123, 13345.56
671.3944, 13326.01
671.8765, 13311.08
672.3586, 13320.22
672.8408, 13341.92
673.3229, 13356.13
673.8050, 13358.53
674.2871, 13358.16
674.7692, 13363.40
675.2513, 13368.29
675.7335, 13366.10
676.2156, 13341.77
676.6977, 13328.22
677.1798, 13338.50
677.6619, 13358.68
678.1440, 13367.35
678.6262, 13359.72
679.1083, 13353.15
679.5904, 13349.65
680.0725, 13350.44
680.5546, 13360.92
681.0367, 13380.47
681.5189, 13398.28
682.0010, 13408.92
682.4831, 13414.93
682.9652, 13418.93
683.4473, 13421.32
683.9294, 13424.77
684.4116, 13432.29
684.8937, 13439.97
685.3758, 13445.28
685.8579, 13447.95
686.3400, 13450.65
686.8221, 13454.02
687.3043, 13457.56
687.7864, 13461.55
688.2685, 13466.73
688.7506, 13468.00
689.2327, 13463.62
689.7148, 13460.14
690.1970, 13466.82
690.6791, 13481.17
691.1612, 13484.27
691.6433, 13471.85
692.1254, 13460.15
692.6075, 13470.33
693.0897, 13490.86
693.5718, 13503.07
694.0539, 13497.47
694.5360, 13490.95
695.0181, 13492.49
695.5002, 13497.52
695.9824, 13498.84
696.4645, 13486.99
696.9466, 13483.39
697.4287, 13493.96
697.9108, 13512.88
698.3929, 13524.08
698.8751, 13525.60
699.3572, 13532.81
699.8393, 13554.79
700.3214, 13582.60
700.8035, 13591.95
701.2856, 13585.72
701.7678, 13580.92
702.2499, 13590.93
702.7320, 13604.14
703.2141, 13609.45
703.6962, 13607.42
704.1783, 13604.94
704.6605, 13603.02
705.1426, 13602.32
705.6247, 13604.48
706.1068, 13610.28
706.5889, 13609.44
707.0710, 13598.62
707.5532, 13586.71
708.0353, 13579.27
708.5174, 13576.35
708.9995, 13574.77
709.4816, 13574.87
709.9637, 13574.22
710.4459, 13568.15
710.9280, 13560.50
711.4101, 13559.71
711.8922, 13568.92
712.3743, 13577.06
712.8564, 13573.62
713.3386, 13567.31
713.8207, 13567.43
714.3028, 13584.19
714.7849, 13595.29
715.2670, 13596.50
715.7491, 13592.91
716.2313, 13589.76
716.7134, 13585.36
717.1955, 13588.56
717.6776, 13603.52
718.1597, 13621.65
718.6418, 13625.48
719.1240, 13617.57
719.6061, 13610.85
720.0882, 13610.50
720.5703, 13612.81
721.0524, 13614.81
721.5345, 13616.59
722.0167, 13618.40
722.4988, 13622.97
722.9809, 13625.23
723.4630, 13619.39
723.9451, 13608.88
724.4272, 13611.17
724.9094, 13637.86
725.3915, 13655.17
725.8736, 13646.43
726.3557, 13618.58
726.8378, 13609.69
727.3199, 13619.96
727.8021, 13636.39
728.2842, 13656.76
728.7663, 13675.39
729.2484, 13679.99
729.7305, 13671.30
730.2126, 13662.48
730.6948, 13656.63
731.1769, 13655.99
731.6590, 13664.43
732.1411, 13684.35
732.6232, 13697.15
733.1053, 13695.97
733.5875, 13693.72
734.0696, 13700.37
734.5517, 13718.98
735.0338, 13720.96
735.5159, 13703.39
735.9980, 13683.13
736.4802, 13675.21
736.9623, 13677.87
737.4444, 13688.60
737.9265, 13708.55
738.4086, 13725.75
738.8907, 13725.76
739.3729, 13720.82
739.8550, 13725.14
740.3371, 13750.33
740.8192, 13767.15
741.3013, 13762.08
741.7834, 13751.25
742.2656, 13750.74
742.7477, 13764.74
743.2298, 13772.60
743.7119, 13769.42
744.1940, 13764.75
744.6761, 13774.46
745.1583, 13795.95
745.6404, 13817.77
746.1225, 13839.77
746.6046, 13854.52
747.0867, 13845.58
747.5688, 13826.31
748.0510, 13819.59
748.5331, 13853.26
749.0152, 13877.47
749.4973, 13867.52
749.9794, 13841.86
750.4615, 13837.96
750.9437, 13865.05
751.4258, 13891.66
751.9079, 13912.35
752.3900, 13927.30
752.8721, 13933.88
753.3542, 13933.30
753.8364, 13938.77
754.3185, 13960.16
754.8006, 13985.77
755.2827, 14001.15
755.7648, 14009.08
756.2469, 14017.29
756.7291, 14028.91
757.2112, 14041.41
757.6933, 14055.53
758.1754, 14070.06
758.6575, 14079.28
759.1396, 14080.08
759.6218, 14081.50
760.1039, 14087.11
760.5860, 14095.72
761.0681, 14102.53
761.5502, 14107.59
762.0323, 14111.48
762.5145, 14113.37
762.9966, 14115.23
763.4787, 14120.25
763.9608, 14128.07
764.4429, 14135.71
764.9250, 14143.54
765.4072, 14149.39
765.8893, 14152.24
766.3714, 14151.95
766.8535, 14148.23
767.3356, 14137.43
767.8177, 14129.40
768.2999, 14129.40
768.7820, 14136.55
769.2641, 14145.21
769.7462, 14155.28
770.2283, 14161.85
770.7104, 14155.70
771.1926, 14146.42
771.6747, 14148.86
772.1568, 14163.53
772.6389, 14178.86
773.1210, 14194.79
773.6031, 14205.41
774.0853, 14204.70
774.5674, 14189.57
775.0495, 14182.45
775.5316, 14186.85
776.0137, 14193.78
776.4958, 14195.63
776.9780, 14193.20
777.4601, 14203.28
777.9422, 14226.87
778.4243, 14252.25
778.9064, 14268.29
779.3885, 14280.89
779.8707, 14299.10
780.3528, 14324.42
780.8349, 14348.20
781.3170, 14364.89
781.7991, 14379.41
782.2812, 14395.05
782.7633, 14412.16
783.2454, 14430.79
783.7275, 14455.18
784.2097, 14472.14
784.6918, 14464.96
785.1739, 14437.00
785.6560, 14422.91
786.1381, 14425.94
786.6202, 14429.07
787.1024, 14413.96
787.5845, 14391.03
788.0666, 14373.10
788.5487, 14362.31
789.0308, 14355.64
789.5129, 14353.82
789.9951, 14354.38
790.4772, 14355.47
790.9593, 14357.55
791.4414, 14358.44
791.9235, 14357.99
792.4056, 14356.27
792.8878, 14351.98
793.3699, 14345.94
793.8520, 14343.98
794.3341, 14347.04
794.8162, 14349.54
795.2983, 14345.80
795.7805, 14339.34
796.2626, 14334.47
796.7447, 14333.35
797.2268, 14329.96
797.7089, 14327.00
798.1910, 14318.14
798.6732, 14297.42
799.1553, 14259.91
799.6374, 14228.90
800.1195, 14205.72
800.6016, 14187.07
801.0837, 14170.35
801.5659, 14155.26
802.0480, 14138.93
802.5301, 14120.25
803.0122, 14107.36
803.4943, 14108.94
803.9764, 14117.67
804.4586, 14127.06
804.9407, 14138.11
805.4228, 14143.89
805.9049, 14143.21
806.3870, 14137.87
806.8691, 14126.77
807.3513, 14108.12
807.8334, 14101.04
808.3155, 14108.26
808.7976, 14117.43
809.2797, 14115.53
809.7618, 14106.11
810.2440, 14095.21
810.7261, 14083.17
811.2082, 14073.60
811.6903, 14068.07
812.1724, 14066.24
812.6545, 14068.74
813.1367, 14079.49
813.6188, 14084.43
814.1009, 14082.22
814.5830, 14076.52
815.0651, 14069.43
815.5472, 14061.30
816.0294, 14056.32
816.5115, 14055.23
816.9936, 14054.38
817.4757, 14050.54
817.9578, 14045.17
818.4399, 14039.29
818.9221, 14032.66
819.4042, 14029.22
819.8863, 14028.71
820.3684, 14033.55
820.8505, 14046.67
821.3326, 14072.48
821.8148, 14086.48
822.2969, 14085.11
822.7790, 14082.71
823.2611, 14093.52
823.7432, 14113.02
824.2253, 14126.94
824.7075, 14133.84
825.1896, 14139.21
825.6717, 14148.48
826.1538, 14156.69
826.6359, 14159.58
827.1180, 14155.99
827.6002, 14149.67
828.0823, 14136.25
828.5644, 14126.51
829.0465, 14129.49
829.5286, 14145.89
830.0107, 14152.61
830.4929, 14149.59
830.9750, 14141.05
831.4571, 14125.29
831.9392, 14108.76
832.4213, 14103.40
832.9034, 14109.59
833.3856, 14114.25
833.8677, 14107.38
834.3498, 14100.43
834.8319, 14101.37
835.3140, 14110.67
835.7961, 14114.36
836.2783, 14109.52
836.7604, 14106.69
837.2425, 14113.37
837.7246, 14126.64
838.2067, 14135.65
838.6888, 14140.39
839.1710, 14141.33
839.6531, 14131.77
840.1352, 14123.82
840.6173, 14130.76
841.0994, 14150.97
841.5815, 14164.36
842.0637, 14162.03
842.5458, 14158.37
843.0279, 14158.85
843.5100, 14161.76
843.9921, 14153.78
844.4742, 14134.40
844.9564, 14120.22
845.4385, 14123.21
845.9206, 14134.25
846.4027, 14140.77
846.8848, 14143.83
847.3669, 14146.43
847.8491, 14151.48
848.3312, 14155.32
848.8133, 14154.22
849.2954, 14150.98
849.7775, 14154.48
850.2596, 14166.24
850.7418, 14180.06
851.2239, 14194.44
851.7060, 14209.21
852.1881, 14224.68
852.6702, 14240.07
853.1523, 14252.23
853.6345, 14254.81
854.1166, 14259.40
854.5987, 14279.35
855.0808, 14305.42
855.5629, 14320.27
856.0450, 14305.50
856.5272, 14302.33
857.0093, 14321.22
857.4914, 14347.41
857.9735, 14352.31
858.4556, 14337.60
858.9377, 14332.29
859.4199, 14344.82
859.9020, 14363.87
860.3841, 14378.06
860.8662, 14390.80
861.3483, 14407.10
861.8304, 14428.10
862.3126, 14453.39
862.7947, 14484.15
863.2768, 14518.26
863.7589, 14553.68
864.2410, 14590.24
864.7231, 14627.59
865.2053, 14664.44
865.6874, 14706.81
866.1695, 14768.72
866.6516, 14839.37
867.1337, 14893.20
867.6158, 14922.90
868.0980, 14964.20
868.5801, 15037.03
869.0622, 15128.72
869.5443, 15230.43
870.0264, 15341.88
870.5085, 15463.92
870.9907, 15591.04
871.4728, 15740.20
871.9549, 15924.98
872.4370, 16141.18
872.9191, 16379.57
873.4012, 16639.95
873.8834, 16890.29
874.3655, 17110.38
874.8476, 17310.98
875.3297, 17499.48
875.8118, 17675.78
876.2939, 17845.98
876.7761, 17994.37
877.2582, 18160.33
877.7403, 18357.82
878.2224, 18585.22
878.7045, 18826.17
879.1866, 19082.47
879.6688, 19368.38
880.1509, 19695.95
880.6330, 20053.06
881.1151, 20444.46
881.5972, 20858.08
882.0793, 21251.87
882.5615, 21609.11
883.0436, 21957.56
883.5257, 22333.70
884.0078, 22689.68
884.4899, 22961.00
884.9720, 23157.75
885.4542, 23073.98
885.9363, 22635.46
886.4184, 21941.10
886.9005, 20997.94
887.3826, 19923.51
887.8647, 18922.21
888.3469, 18020.37
888.8290, 17257.35
889.3111, 16693.50
889.7932, 16258.74
890.2753, 15884.55
890.7574, 15569.71
891.2396, 15323.14
891.7217, 15150.70
892.2038, 15016.98
892.6859, 14888.85
893.1680, 14769.87
893.6501, 14666.63
894.1323, 14579.33
894.6144, 14505.77
895.0965, 14450.15
895.5786, 14403.12
896.0607, 14358.91
896.5428, 14317.66
897.0250, 14273.38
897.5071, 14223.59
897.9892, 14179.90
898.4713, 14151.37
898.9534, 14134.24
899.4355, 14116.29
899.9177, 14098.36
900.3998, 14085.28
900.8819, 14085.36
901.3640, 14086.05
901.8461, 14079.16
902.3282, 14065.63
902.8104, 14054.26
903.2925, 14045.65
903.7746, 14037.47
904.2567, 14028.88
904.7388, 14020.52
905.2209, 14015.73
905.7031, 14013.09
906.1852, 14006.38
906.6673, 13990.40
907.1494, 13974.35
907.6315, 13964.68
908.1136, 13959.19
908.5958, 13954.42
909.0779, 13949.31
909.5600, 13947.37
910.0421, 13950.96
910.5242, 13954.64
911.0063, 13949.13
911.4885, 13936.97
911.9706, 13931.78
912.4527, 13936.01
912.9348, 13942.24
913.4169, 13947.92
913.8990, 13950.56
914.3812, 13945.65
914.8633, 13928.51
915.3454, 13922.74
915.8275, 13933.02
916.3096, 13947.05
916.7917, 13959.11
917.2739, 13968.71
917.7560, 13974.27
918.2381, 13975.49
918.7202, 13970.84
919.2023, 13948.58
919.6844, 13928.95
920.1666, 13932.71
920.6487, 13955.01
921.1308, 13968.04
921.6129, 13965.38
922.0950, 13958.05
922.5771, 13947.47
923.0593, 13935.18
923.5414, 13925.02
924.0235, 13917.00
924.5056, 13909.50
924.9877, 13902.97
925.4698, 13895.56
925.9520, 13883.58
926.4341, 13870.60
926.9162, 13861.63
927.3983, 13855.70
927.8804, 13858.63
928.3625, 13876.32
928.8447, 13894.06
929.3268, 13894.33
929.8089, 13879.44
930.2910, 13866.77
930.7731, 13857.39
931.2552, 13853.83
931.7374, 13864.21
932.2195, 13876.56
932.7016, 13877.75
933.1837, 13865.01
933.6658, 13864.00
934.1479, 13886.51
934.6301, 13903.50
935.1122, 13900.58
935.5943, 13882.72
936.0764, 13869.85
936.5585, 13861.66
937.0406, 13856.30
937.5228, 13852.11
938.0049, 13851.02
938.4870, 13857.44
938.9691, 13867.92
939.4512, 13874.03
939.9333, 13874.28
940.4155, 13870.13
940.8976, 13858.50
941.3797, 13847.05
941.8618, 13850.23
942.3439, 13864.93
942.8260, 13876.70
943.3082, 13882.83
943.7903, 13885.75
944.2724, 13887.02
944.7545, 13886.03
945.2366, 13881.52
945.7188, 13871.44
946.2009, 13865.19
946.6830, 13865.55
947.1651, 13863.65
947.6472, 13851.15
948.1293, 13831.71
948.6115, 13819.99
949.0936, 13815.66
949.5757, 13814.18
950.0578, 13819.38
950.5399, 13820.75
951.0220, 13806.79
951.5042, 13782.89
951.9863, 13772.53
952.4684, 13782.28
952.9505, 13788.94
953.4326, 13786.75
953.9147, 13780.16
954.3969, 13774.33
954.8790, 13770.67
955.3611, 13774.06
955.8432, 13789.12
956.3253, 13802.40
956.8074, 13807.54
957.2896, 13806.68
957.7717, 13800.83
958.2538, 13785.96
958.7359, 13780.86
959.2180, 13786.73
959.7001, 13796.21
960.1823, 13805.41
960.6644, 13812.95
961.1465, 13815.08
961.6286, 13812.09
962.1107, 13808.21
962.5928, 13805.14
963.0750, 13801.83
963.5571, 13798.93
964.0392, 13795.67
964.5213, 13789.07
965.0034, 13779.55
965.4855, 13765.30
965.9677, 13743.42
966.4498, 13722.24
966.9319, 13713.34
967.4140, 13713.88
967.8961, 13719.90
968.3782, 13739.57
968.8604, 13747.16
969.3425, 13727.58
969.8246, 13704.03
970.3067, 13696.25
970.7888, 13704.80
971.2709, 13708.24
971.7531, 13705.29
972.2352, 13705.59
972.7173, 13725.38
973.1994, 13745.96
973.6815, 13743.60
974.1636, 13719.55
974.6458, 13703.85
975.1279, 13706.61
975.6100, 13711.29
976.0921, 13713.74
976.5742, 13714.82
977.0563, 13717.12
977.5385, 13720.43
978.0206, 13723.02
978.5027, 13723.88
978.9848, 13725.04
979.4669, 13732.80
979.9490, 13739.90
980.4311, 13736.29
980.9132, 13715.26
981.3953, 13696.17
981.8774, 13677.90
982.3596, 13664.72
982.8417, 13663.90
983.3238, 13670.99
983.8059, 13672.00
984.2880, 13666.79
984.7701, 13662.58
985.2523, 13663.70
985.7344, 13666.53
986.2165, 13672.02
986.6986, 13677.85
987.1807, 13672.70
987.6628, 13654.29
988.1450, 13638.13
988.6271, 13628.59
989.1092, 13623.94
989.5913, 13625.77
990.0734, 13629.73
990.5555, 13626.93
991.0377, 13609.20
991.5198, 13597.10
992.0019, 13600.59
992.4840, 13606.92
992.9661, 13605.61
993.4482, 13596.27
993.9304, 13595.85
994.4125, 13604.81
994.8946, 13610.96
995.3767, 13599.55
995.8588, 13585.81
996.3409, 13586.83
996.8231, 13599.93
997.3052, 13604.83
997.7873, 13590.73
998.2694, 13582.69
998.7515, 13588.03
999.2336, 13599.48
999.7158, 13601.28
1000.198, 13596.23
1000.680, 13596.10
1001.162, 13606.53
1001.644, 13613.28
1002.126, 13604.41
1002.608, 13589.47
1003.091, 13576.36
1003.573, 13564.85
1004.055, 13558.98
1004.537, 13559.96
1005.019, 13561.00
1005.501, 13554.96
1005.983, 13547.42
1006.465, 13552.74
1006.948, 13566.19
1007.430, 13569.65
1007.912, 13542.61
1008.394, 13521.04
1008.876, 13514.42
1009.358, 13518.19
1009.840, 13528.58
1010.322, 13545.08
1010.804, 13547.03
1011.287, 13528.70
1011.769, 13509.00
1012.251, 13504.73
1012.733, 13508.77
1013.215, 13515.47
1013.697, 13524.97
1014.179, 13530.51
1014.661, 13532.10
1015.143, 13529.12
1015.626, 13519.31
1016.108, 13505.70
1016.590, 13497.44
1017.072, 13493.60
1017.554, 13490.28
1018.036, 13485.03
1018.518, 13480.67
1019.000, 13477.29
1019.483, 13476.15
1019.965, 13479.44
1020.447, 13488.30
1020.929, 13495.47
1021.411, 13500.75
1021.893, 13502.02
1022.375, 13493.96
1022.857, 13482.54
1023.339, 13476.59
1023.822, 13476.44
1024.304, 13471.77
1024.786, 13457.05
1025.268, 13441.66
1025.750, 13426.54
1026.232, 13414.31
1026.714, 13413.45
1027.196, 13422.66
1027.679, 13436.09
1028.161, 13455.69
1028.643, 13469.70
1029.125, 13467.35
1029.607, 13457.14
1030.089, 13447.27
1030.571, 13436.36
1031.053, 13433.71
1031.536, 13441.16
1032.018, 13446.89
1032.500, 13439.73
1032.982, 13426.42
1033.464, 13414.39
1033.946, 13405.50
1034.428, 13406.21
1034.910, 13438.50
1035.392, 13454.62
1035.875, 13438.60
1036.357, 13407.71
1036.839, 13392.47
1037.321, 13390.97
1037.803, 13385.09
1038.285, 13370.98
1038.767, 13359.04
1039.249, 13359.84
1039.731, 13364.61
1040.214, 13366.08
1040.696, 13363.43
1041.178, 13361.94
1041.660, 13362.67
1042.142, 13359.80
1042.624, 13347.90
1043.106, 13334.05
1043.588, 13334.39
1044.071, 13342.28
1044.553, 13342.41
1045.035, 13317.69
1045.517, 13303.37
1045.999, 13315.20
1046.481, 13330.16
1046.963, 13324.21
1047.445, 13299.20
1047.927, 13285.01
1048.410, 13282.34
1048.892, 13282.73
1049.374, 13280.24
1049.856, 13278.40
1050.338, 13283.52
1050.820, 13291.93
1051.302, 13285.96
1051.784, 13257.49
1052.266, 13244.25
1052.749, 13257.58
1053.231, 13278.12
1053.713, 13281.06
1054.195, 13272.02
1054.677, 13257.98
1055.159, 13238.28
1055.641, 13225.97
1056.123, 13232.34
1056.606, 13237.79
1057.088, 13231.79
1057.570, 13217.53
1058.052, 13213.48
1058.534, 13218.36
1059.016, 13224.13
1059.498, 13231.22
1059.980, 13232.56
1060.463, 13218.88
1060.945, 13198.87
1061.427, 13183.74
1061.909, 13171.84
1062.391, 13174.56
1062.873, 13194.39
1063.355, 13215.98
1063.837, 13229.15
1064.319, 13234.04
1064.802, 13227.04
1065.284, 13210.39
1065.766, 13197.49
1066.248, 13196.09
1066.730, 13192.93
1067.212, 13185.51
1067.694, 13175.25
1068.176, 13164.04
1068.658, 13152.31
1069.141, 13140.63
1069.623, 13128.27
1070.105, 13123.07
1070.587, 13140.49
1071.069, 13157.05
1071.551, 13154.69
1072.033, 13135.39
1072.515, 13127.64
1072.998, 13131.98
1073.480, 13134.49
1073.962, 13126.41
1074.444, 13117.63
1074.926, 13119.99
1075.408, 13128.39
1075.890, 13135.11
1076.372, 13141.52
1076.854, 13139.00
1077.337, 13124.02
1077.819, 13109.63
1078.301, 13109.42
1078.783, 13117.05
1079.265, 13117.83
1079.747, 13112.34
1080.229, 13105.56
1080.711, 13094.17
1081.193, 13089.23
1081.676, 13096.90
1082.158, 13108.90
1082.640, 13111.69
1083.122, 13105.78
1083.604, 13095.28
1084.086, 13080.14
1084.568, 13067.68
1085.050, 13064.92
1085.532, 13065.67
1086.015, 13066.94
1086.497, 13068.10
1086.979, 13064.37
1087.461, 13055.13
1087.943, 13046.26
1088.425, 13039.84
1088.907, 13034.83
1089.389, 13031.15
1089.872, 13027.59
1090.354, 13021.73
1090.836, 13010.59
1091.318, 13005.09
1091.800, 13007.31
1092.282, 13011.50
1092.764, 13016.03
1093.246, 13018.96
1093.729, 13011.72
1094.211, 12997.08
1094.693, 12986.03
1095.175, 12985.96
1095.657, 12986.12
1096.139, 12982.45
1096.621, 12978.39
1097.103, 12977.91
1097.585, 12980.90
1098.068, 12985.39
1098.550, 12991.25
1099.032, 12993.71
1099.514, 12982.62
1099.996, 12973.52
1100.478, 12978.69
1100.960, 12995.14
1101.442, 13010.23
1101.924, 13024.50
1102.407, 13034.26
1102.889, 13037.55
1103.371, 13041.84
1103.853, 13055.90
1104.335, 13075.50
1104.817, 13094.10
1105.299, 13109.93
1105.781, 13140.14
1106.264, 13197.12
1106.746, 13238.77
1107.228, 13243.30
1107.710, 13230.99
1108.192, 13243.12
1108.674, 13271.46
1109.156, 13297.15
1109.638, 13310.30
1110.120, 13330.36
1110.603, 13362.58
1111.085, 13402.51
1111.567, 13449.97
1112.049, 13503.48
1112.531, 13555.55
1113.013, 13605.86
1113.495, 13655.96
1113.977, 13709.57
1114.459, 13760.65
1114.942, 13811.65
1115.424, 13855.44
1115.906, 13886.08
1116.388, 13905.55
1116.870, 13891.48
1117.352, 13842.72
1117.834, 13762.03
1118.316, 13628.12
1118.799, 13483.46
1119.281, 13361.34
1119.763, 13259.56
1120.245, 13161.48
1120.727, 13060.90
1121.209, 12987.91
1121.691, 12950.20
1122.173, 12930.31
1122.656, 12915.74
1123.138, 12901.71
1123.620, 12880.28
1124.102, 12850.14
1124.584, 12824.59
1125.066, 12807.31
1125.548, 12788.74
1126.030, 12762.66
1126.512, 12738.45
1126.995, 12740.71
1127.477, 12758.84
1127.959, 12767.52
1128.441, 12758.34
1128.923, 12748.91
1129.405, 12746.20
1129.887, 12742.89
1130.369, 12735.12
1130.851, 12723.73
1131.334, 12710.30
1131.816, 12696.09
1132.298, 12687.05
1132.780, 12687.99
1133.262, 12690.66
1133.744, 12694.34
1134.226, 12695.17
1134.708, 12687.87
1135.191, 12671.44
1135.673, 12664.23
1136.155, 12665.88
1136.637, 12666.61
1137.119, 12662.27
1137.601, 12652.91
1138.083, 12634.46
1138.565, 12612.46
1139.047, 12599.45
1139.530, 12598.09
1140.012, 12590.99
1140.494, 12576.16
1140.976, 12563.24
1141.458, 12563.42
1141.940, 12568.00
1142.422, 12568.73
1142.904, 12565.62
1143.386, 12561.93
1143.869, 12557.77
1144.351, 12552.54
1144.833, 12545.46
1145.315, 12539.14
1145.797, 12538.25
1146.279, 12539.69
1146.761, 12540.38
1147.243, 12540.06
1147.726, 12532.53
1148.208, 12510.65
1148.690, 12496.02
1149.172, 12497.62
1149.654, 12505.90
1150.136, 12500.82
1150.618, 12488.87
1151.100, 12483.72
1151.583, 12489.69
1152.065, 12496.67
1152.547, 12505.62
1153.029, 12509.56
1153.511, 12503.12
1153.993, 12490.21
1154.475, 12483.31
1154.957, 12481.10
1155.439, 12479.31
1155.922, 12477.13
1156.404, 12474.14
1156.886, 12473.05
1157.368, 12468.48
1157.850, 12454.44
1158.332, 12432.75
1158.814, 12419.88
1159.296, 12415.35
1159.778, 12415.66
1160.261, 12426.86
1160.743, 12433.16
1161.225, 12420.69
1161.707, 12403.51
1162.189, 12396.68
1162.671, 12400.30
1163.153, 12403.10
1163.635, 12404.60
1164.118, 12403.44
1164.600, 12396.51
1165.082, 12388.86
1165.564, 12384.69
1166.046, 12381.79
1166.528, 12375.05
1167.010, 12363.58
1167.492, 12360.23
1167.974, 12366.96
1168.457, 12369.18
1168.939, 12348.44
1169.421, 12323.96
1169.903, 12309.41
1170.385, 12304.75
1170.867, 12305.54
1171.349, 12313.32
1171.831, 12316.67
1172.313, 12313.23
1172.796, 12307.13
1173.278, 12301.19
1173.760, 12295.68
1174.242, 12293.37
1174.724, 12293.47
1175.206, 12280.18
1175.688, 12247.33
1176.170, 12231.92
1176.653, 12248.87
1177.135, 12270.38
1177.617, 12254.96
1178.099, 12227.19
1178.581, 12220.46
1179.063, 12242.41
1179.545, 12247.60
1180.027, 12228.07
1180.510, 12216.07
1180.992, 12226.81
1181.474, 12244.24
1181.956, 12246.68
1182.438, 12238.67
1182.920, 12225.42
1183.402, 12203.89
1183.884, 12196.40
1184.366, 12210.61
1184.849, 12218.76
1185.331, 12203.52
1185.813, 12178.49
1186.295, 12167.37
1186.777, 12165.79
1187.259, 12166.05
1187.741, 12168.51
1188.223, 12167.92
1188.705, 12165.11
1189.188, 12156.66
1189.670, 12133.73
1190.152, 12107.71
1190.634, 12103.40
1191.116, 12115.42
1191.598, 12131.06
1192.080, 12156.94
1192.562, 12167.79
1193.045, 12158.83
1193.527, 12142.79
1194.009, 12126.34
1194.491, 12111.96
1194.973, 12107.02
1195.455, 12109.63
1195.937, 12113.39
1196.419, 12118.78
1196.901, 12120.63
1197.384, 12117.53
1197.866, 12112.52
1198.348, 12109.43
1198.830, 12101.27
1199.312, 12097.33
1199.794, 12083.48
1200.276, 12070.58
1200.758, 12059.56
1201.240, 12052.84
1201.723, 12053.22
1202.205, 12053.61
1202.687, 12043.04
1203.169, 12026.65
1203.651, 12017.42
1204.133, 12015.59
1204.615, 12014.17
1205.097, 12007.79
1205.580, 12006.24
1206.062, 12014.20
1206.544, 12022.64
1207.026, 12016.00
1207.508, 12000.00
1207.990, 11989.09
1208.472, 11984.42
1208.954, 11980.01
1209.437, 11973.51
1209.919, 11966.89
1210.401, 11960.62
1210.883, 11954.25
1211.365, 11942.51
1211.847, 11931.18
1212.329, 11938.04
1212.811, 11966.14
1213.293, 11984.69
1213.776, 11977.11
1214.258, 11966.47
1214.740, 11956.96
1215.222, 11950.22
1215.704, 11952.04
1216.186, 11958.46
1216.668, 11960.87
1217.150, 11957.82
1217.632, 11949.71
1218.115, 11930.66
1218.597, 11915.66
1219.079, 11910.70
1219.561, 11910.95
1220.043, 11904.34
1220.525, 11895.63
1221.007, 11898.19
1221.489, 11918.42
1221.972, 11925.83
1222.454, 11905.23
1222.936, 11886.97
1223.418, 11883.06
1223.900, 11887.55
1224.382, 11891.78
1224.864, 11893.52
1225.346, 11886.96
1225.828, 11868.39
1226.311, 11851.75
1226.793, 11838.95
1227.275, 11828.91
1227.757, 11821.15
1228.239, 11816.01
1228.721, 11818.97
1229.203, 11823.86
1229.685, 11815.99
1230.167, 11783.96
1230.650, 11766.52
1231.132, 11770.32
1231.614, 11779.53
1232.096, 11789.33
1232.578, 11795.85
1233.060, 11786.45
1233.542, 11769.43
1234.024, 11761.79
1234.507, 11774.87
1234.989, 11775.92
1235.471, 11759.28
1235.953, 11744.30
1236.435, 11742.31
1236.917, 11748.16
1237.399, 11759.01
1237.881, 11769.59
1238.364, 11769.66
1238.846, 11751.45
1239.328, 11735.53
1239.810, 11721.70
1240.292, 11712.08
1240.774, 11710.53
1241.256, 11711.66
1241.738, 11706.47
1242.220, 11698.95
1242.703, 11696.48
1243.185, 11701.90
1243.667, 11707.00
1244.149, 11711.92
1244.631, 11714.60
1245.113, 11711.31
1245.595, 11706.97
1246.077, 11708.21
1246.559, 11711.63
1247.042, 11711.42
1247.524, 11707.12
1248.006, 11698.30
1248.488, 11684.39
1248.970, 11673.78
1249.452, 11677.56
1249.934, 11682.03
1250.416, 11673.83
1250.899, 11659.70
1251.381, 11651.47
1251.863, 11652.55
1252.345, 11640.33
1252.827, 11614.82
1253.309, 11592.85
1253.791, 11588.12
1254.273, 11588.14
1254.755, 11585.03
1255.238, 11581.10
1255.720, 11580.28
1256.202, 11582.63
1256.684, 11578.25
1257.166, 11567.59
1257.648, 11563.73
1258.130, 11586.17
1258.612, 11604.12
1259.094, 11595.86
1259.577, 11578.97
1260.059, 11572.46
1260.541, 11575.30
1261.023, 11568.70
1261.505, 11554.43
1261.987, 11548.96
1262.469, 11576.22
1262.951, 11594.22
1263.434, 11585.11
1263.916, 11566.06
1264.398, 11552.76
1264.880, 11543.71
1265.362, 11530.12
1265.844, 11513.68
1266.326, 11505.36
1266.808, 11520.53
1267.291, 11528.17
1267.773, 11519.30
1268.255, 11508.51
1268.737, 11513.87
1269.219, 11527.42
1269.701, 11528.98
1270.183, 11520.28
1270.665, 11510.29
1271.147, 11501.51
1271.630, 11492.58
1272.112, 11483.63
1272.594, 11474.54
1273.076, 11462.80
1273.558, 11452.41
1274.040, 11452.98
1274.522, 11443.05
1275.004, 11458.16
1275.486, 11437.15
1275.969, 11428.49
1276.451, 11435.62
1276.933, 11446.57
1277.415, 11455.19
1277.897, 11458.91
1278.379, 11451.00
1278.861, 11436.59
1279.343, 11428.65
1279.825, 11429.02
1280.308, 11428.71
1280.790, 11427.26
1281.272, 11424.39
1281.754, 11417.64
1282.236, 11411.54
1282.718, 11410.18
1283.200, 11411.06
1283.682, 11409.99
1284.165, 11406.81
1284.647, 11403.13
1285.129, 11399.13
1285.611, 11397.13
1286.093, 11398.70
1286.575, 11402.56
1287.057, 11413.09
1287.539, 11421.34
1288.021, 11415.74
1288.504, 11398.89
1288.986, 11384.54
1289.468, 11372.90
1289.950, 11361.60
1290.432, 11343.11
1290.914, 11335.62
1291.396, 11347.78
1291.878, 11361.45
1292.360, 11356.10
1292.843, 11340.24
1293.325, 11333.33
1293.807, 11334.72
1294.289, 11340.19
1294.771, 11360.37
1295.253, 11362.46
1295.735, 11339.98
1296.217, 11316.23
1296.700, 11312.47
1297.182, 11318.11
1297.664, 11318.18
1298.146, 11314.92
1298.628, 11317.62
1299.110, 11333.38
1299.592, 11338.68
1300.074, 11332.22
1300.557, 11319.07
1301.039, 11297.27
1301.521, 11275.61
1302.003, 11263.50
1302.485, 11255.99
1302.967, 11248.16
1303.449, 11246.53
##END=



