##NAMES=Rynersonite
##RRUFFID=R080064
##IDEAL CHEMISTRY=CaTa_2_O_6_
##LOCALITY=Ampanodiana South pegmatite, Tetezantsio-Andoabatokely Pegmatite Field, Andrembesoa Commune, Betafo Department, Vakinankaratra Region (Betafo - Antsirabé region), Antananarivo Province, Madagascar
##OWNER=RRUFF
##SOURCE=Michael Scott
##DESCRIPTION=Columnar aggregate of dark gray prismatic crystals, associated with quartz, orthoclase, liddicoatite and behierite
##STATUS=The identification of this mineral has been confirmed by single-crystal X-ray diffraction.
##URL=rruff.info/R080064
167.2515, 397.2792
167.7336, 397.1574
168.2157, 397.4462
168.6979, 397.9085
169.1800, 398.2592
169.6621, 398.3255
170.1442, 398.2426
170.6263, 398.3795
171.1084, 398.7521
171.5906, 399.3631
172.0727, 400.4944
172.5548, 401.7739
173.0369, 402.6823
173.5190, 402.8750
174.0011, 402.4232
174.4833, 401.9235
174.9654, 400.7509
175.4475, 400.1963
175.9296, 400.8401
176.4117, 402.3015
176.8938, 403.9042
177.3760, 405.1573
177.8581, 406.0530
178.3402, 406.8849
178.8223, 407.6713
179.3044, 408.3863
179.7865, 409.0516
180.2687, 409.6434
180.7508, 410.0994
181.2329, 410.3643
181.7150, 410.4243
182.1971, 410.3432
182.6792, 409.3930
183.1614, 408.9045
183.6435, 410.0475
184.1256, 412.7039
184.6077, 415.4174
185.0898, 416.9265
185.5719, 417.0884
186.0540, 417.0171
186.5362, 416.2306
187.0183, 415.5020
187.5004, 415.6547
187.9825, 416.8055
188.4646, 418.2335
188.9467, 419.4223
189.4289, 420.3777
189.9110, 421.0830
190.3931, 421.1390
190.8752, 421.0582
191.3573, 421.7148
191.8394, 423.3498
192.3216, 425.2334
192.8037, 426.9296
193.2858, 428.4484
193.7679, 429.7722
194.2500, 430.7900
194.7321, 431.5939
195.2143, 432.4755
195.6964, 433.3917
196.1785, 434.4835
196.6606, 435.9101
197.1427, 437.5472
197.6248, 439.1081
198.1070, 440.3818
198.5891, 441.3961
199.0712, 442.4281
199.5533, 443.3348
200.0354, 444.4371
200.5175, 445.9823
200.9997, 447.8121
201.4818, 449.5516
201.9639, 450.7808
202.4460, 451.4681
202.9281, 452.8554
203.4102, 455.8092
203.8924, 458.7082
204.3745, 461.1092
204.8566, 463.0518
205.3387, 464.7113
205.8208, 466.2145
206.3029, 467.5415
206.7851, 468.9763
207.2672, 470.4750
207.7493, 472.1111
208.2314, 473.9283
208.7135, 475.9098
209.1956, 478.0522
209.6778, 480.4346
210.1599, 483.1870
210.6420, 484.9553
211.1241, 484.8023
211.6062, 484.6713
212.0883, 485.6464
212.5705, 487.6664
213.0526, 489.9117
213.5347, 491.5808
214.0168, 492.5584
214.4989, 494.5260
214.9810, 498.7678
215.4632, 502.9272
215.9453, 505.3679
216.4274, 506.0488
216.9095, 506.0371
217.3916, 506.0261
217.8737, 506.0750
218.3559, 506.7572
218.8380, 508.4509
219.3201, 510.5556
219.8022, 512.7598
220.2843, 515.0403
220.7664, 516.9703
221.2486, 517.9562
221.7307, 518.2474
222.2128, 518.8884
222.6949, 520.2964
223.1770, 521.9842
223.6591, 523.4355
224.1413, 524.6279
224.6234, 525.6456
225.1055, 526.7149
225.5876, 527.6263
226.0697, 527.8770
226.5518, 526.7090
227.0340, 525.1260
227.5161, 524.7819
227.9982, 526.0377
228.4803, 527.2725
228.9624, 527.5587
229.4445, 527.2442
229.9267, 526.6887
230.4088, 525.9425
230.8909, 525.0923
231.3730, 524.2976
231.8551, 523.5532
232.3372, 522.8911
232.8194, 522.8073
233.3015, 522.6618
233.7836, 521.5806
234.2657, 519.0294
234.7478, 515.6218
235.2299, 512.6926
235.7121, 510.2650
236.1942, 508.3098
236.6763, 506.9508
237.1584, 505.9173
237.6405, 505.0506
238.1227, 504.3494
238.6048, 503.5092
239.0869, 501.5839
239.5690, 497.3623
240.0511, 494.2137
240.5332, 493.4379
241.0154, 493.5727
241.4975, 493.1806
241.9796, 491.6432
242.4617, 489.4118
242.9438, 487.6255
243.4259, 486.5158
243.9081, 485.5239
244.3902, 484.7592
244.8723, 483.9901
245.3544, 482.8703
245.8365, 481.2779
246.3186, 479.5893
246.8007, 478.7133
247.2829, 479.8393
247.7650, 480.0358
248.2471, 478.4495
248.7292, 476.3134
249.2113, 474.8028
249.6934, 474.3070
250.1756, 474.3184
250.6577, 473.8357
251.1398, 472.2668
251.6219, 471.0439
252.1040, 470.4263
252.5861, 470.0050
253.0683, 469.3900
253.5504, 468.4793
254.0325, 467.4894
254.5146, 466.8026
254.9967, 466.8664
255.4788, 466.3693
255.9610, 464.8619
256.4431, 463.0693
256.9252, 461.5286
257.4073, 460.3855
257.8894, 459.6222
258.3716, 459.2719
258.8537, 459.6531
259.3358, 459.5851
259.8179, 459.0139
260.3000, 458.0318
260.7821, 456.4462
261.2643, 454.2827
261.7464, 452.3046
262.2285, 451.4686
262.7106, 452.1469
263.1927, 452.1061
263.6748, 450.5770
264.1570, 448.7818
264.6391, 447.8527
265.1212, 447.8778
265.6033, 448.0435
266.0854, 447.6089
266.5675, 446.5239
267.0497, 445.4456
267.5318, 444.5796
268.0139, 443.5950
268.4960, 441.9656
268.9781, 439.7288
269.4602, 437.8863
269.9424, 437.4514
270.4245, 438.1797
270.9066, 438.0751
271.3887, 436.5015
271.8708, 434.5302
272.3529, 432.9775
272.8351, 431.8185
273.3172, 430.5756
273.7993, 428.7701
274.2814, 426.7298
274.7635, 425.4194
275.2456, 425.3623
275.7278, 425.4843
276.2099, 425.1685
276.6920, 424.4199
277.1741, 423.2149
277.6562, 421.2969
278.1383, 419.0614
278.6204, 417.3729
279.1025, 416.4286
279.5847, 415.5657
280.0668, 414.1374
280.5489, 412.2943
281.0310, 411.0571
281.5131, 411.1484
281.9952, 411.6440
282.4774, 411.2352
282.9595, 409.8246
283.4416, 408.1253
283.9237, 406.3062
284.4058, 404.4808
284.8879, 403.2052
285.3701, 402.9472
285.8522, 402.8324
286.3343, 401.7867
286.8164, 399.8642
287.2985, 398.1711
287.7806, 397.3820
288.2628, 397.2953
288.7449, 397.3652
289.2270, 397.7741
289.7091, 397.8406
290.1912, 396.6169
290.6733, 394.4955
291.1555, 392.8967
291.6376, 392.9977
292.1197, 394.0484
292.6018, 394.1808
293.0839, 393.0035
293.5660, 391.6346
294.0482, 390.8390
294.5303, 390.3824
295.0124, 389.8265
295.4945, 388.8327
295.9766, 387.7393
296.4587, 387.1776
296.9409, 387.2384
297.4230, 387.5263
297.9051, 388.0870
298.3872, 388.6832
298.8693, 389.0416
299.3514, 389.1160
299.8336, 388.8702
300.3157, 388.1109
300.7978, 386.7155
301.2799, 385.5229
301.7620, 385.1289
302.2441, 384.9410
302.7263, 384.3006
303.2084, 382.9857
303.6905, 381.8374
304.1726, 382.0113
304.6547, 383.5870
305.1368, 384.5215
305.6190, 383.6422
306.1011, 382.4943
306.5832, 382.2442
307.0653, 382.9628
307.5474, 384.0700
308.0295, 385.3769
308.5117, 386.8221
308.9938, 387.6655
309.4759, 387.7102
309.9580, 387.1754
310.4401, 385.7917
310.9222, 383.8835
311.4044, 382.6363
311.8865, 383.1780
312.3686, 385.0928
312.8507, 386.5717
313.3328, 387.4653
313.8149, 388.1085
314.2971, 388.7663
314.7792, 389.3348
315.2613, 389.5811
315.7434, 389.1953
316.2255, 388.5558
316.7076, 388.5565
317.1898, 389.4424
317.6719, 390.2881
318.1540, 390.3325
318.6361, 390.2518
319.1182, 390.9920
319.6003, 393.1252
320.0825, 395.3525
320.5646, 395.5210
321.0467, 393.1794
321.5288, 391.6742
322.0109, 393.0091
322.4930, 395.0508
322.9752, 396.1815
323.4573, 396.1402
323.9394, 395.6541
324.4215, 395.1918
324.9036, 394.7624
325.3857, 394.7831
325.8679, 395.5803
326.3500, 396.6265
326.8321, 397.5728
327.3142, 398.4194
327.7963, 399.2350
328.2784, 400.0936
328.7606, 400.9689
329.2427, 401.6854
329.7248, 402.0271
330.2069, 402.5801
330.6890, 404.1035
331.1711, 406.0762
331.6533, 407.3326
332.1354, 406.8142
332.6175, 405.5219
333.0996, 405.6006
333.5817, 407.4174
334.0638, 409.4281
334.5460, 411.1290
335.0281, 412.4922
335.5102, 413.3324
335.9923, 413.4287
336.4744, 413.4013
336.9565, 414.0744
337.4387, 415.4947
337.9208, 416.7723
338.4029, 417.5869
338.8850, 418.1384
339.3671, 418.5420
339.8492, 418.7892
340.3314, 419.1646
340.8135, 420.1322
341.2956, 421.5345
341.7777, 422.2390
342.2598, 421.6219
342.7419, 420.8672
343.2241, 421.1217
343.7062, 422.1946
344.1883, 423.1361
344.6704, 423.2976
345.1525, 423.0453
345.6346, 423.2413
346.1168, 424.0657
346.5989, 424.8936
347.0810, 425.0496
347.5631, 424.9086
348.0452, 425.1895
348.5273, 426.5340
349.0095, 427.9643
349.4916, 428.2755
349.9737, 427.4463
350.4558, 426.4365
350.9379, 425.4051
351.4200, 424.6455
351.9022, 424.6814
352.3843, 425.8608
352.8664, 426.9354
353.3485, 427.0165
353.8306, 426.2857
354.3127, 425.4219
354.7949, 424.5331
355.2770, 423.6966
355.7591, 423.0536
356.2412, 422.6024
356.7233, 422.0590
357.2054, 421.0965
357.6876, 420.0485
358.1697, 419.5711
358.6518, 419.8271
359.1339, 420.0687
359.6160, 419.4786
360.0981, 418.2507
360.5803, 417.4700
361.0624, 417.5884
361.5445, 417.9618
362.0266, 418.1806
362.5087, 418.2232
362.9908, 418.0045
363.4730, 417.4355
363.9551, 416.5837
364.4372, 415.6747
364.9193, 414.6612
365.4014, 413.6785
365.8835, 412.6813
366.3657, 411.7668
366.8478, 411.2414
367.3299, 411.2894
367.8120, 411.4150
368.2941, 410.7017
368.7762, 408.8679
369.2584, 407.4984
369.7405, 407.1664
370.2226, 407.1895
370.7047, 406.8469
371.1868, 406.0677
371.6689, 405.3688
372.1511, 405.2711
372.6332, 405.8098
373.1153, 405.9524
373.5974, 405.5807
374.0795, 404.9811
374.5616, 404.2213
375.0438, 403.3429
375.5259, 402.3215
376.0080, 401.0848
376.4901, 399.8499
376.9722, 399.4267
377.4543, 400.9118
377.9365, 401.7802
378.4186, 401.2773
378.9007, 400.2540
379.3828, 399.6695
379.8649, 399.7788
380.3470, 400.1431
380.8292, 400.1484
381.3113, 399.6436
381.7934, 399.2045
382.2755, 398.8881
382.7576, 398.5791
383.2397, 398.2864
383.7219, 397.9571
384.2040, 397.4213
384.6861, 396.4873
385.1682, 395.2130
385.6503, 394.5418
386.1324, 394.9809
386.6146, 395.5063
387.0967, 396.2915
387.5788, 396.9519
388.0609, 396.8615
388.5430, 395.7611
389.0251, 394.2753
389.5073, 393.7418
389.9894, 394.8578
390.4715, 395.4649
390.9536, 395.0971
391.4357, 394.5263
391.9178, 394.1623
392.4000, 394.0813
392.8821, 394.2036
393.3642, 394.4932
393.8463, 394.9561
394.3284, 395.3519
394.8105, 395.5869
395.2927, 395.8643
395.7748, 396.4850
396.2569, 397.1526
396.7390, 397.3013
397.2211, 396.5189
397.7032, 395.3405
398.1854, 395.0638
398.6675, 396.0423
399.1496, 396.8535
399.6317, 396.8912
400.1138, 396.7417
400.5959, 396.7975
401.0780, 397.1295
401.5602, 397.6647
402.0423, 398.4207
402.5244, 399.3695
403.0065, 400.2305
403.4886, 401.0392
403.9707, 401.6345
404.4529, 401.8471
404.9350, 401.7754
405.4171, 401.6876
405.8992, 401.6094
406.3813, 401.6250
406.8634, 401.9596
407.3456, 402.6624
407.8277, 403.2075
408.3098, 403.0990
408.7919, 402.7975
409.2740, 403.1512
409.7561, 404.5037
410.2383, 405.7313
410.7204, 405.9933
411.2025, 405.5862
411.6846, 405.3770
412.1667, 405.5953
412.6488, 406.0269
413.1310, 406.3444
413.6131, 406.5440
414.0952, 407.1619
414.5773, 408.8488
415.0594, 410.6189
415.5415, 411.4066
416.0237, 411.2630
416.5058, 411.1297
416.9879, 411.6462
417.4700, 412.6732
417.9521, 413.4402
418.4342, 413.6314
418.9164, 413.9825
419.3985, 414.9390
419.8806, 416.1037
420.3627, 416.8161
420.8448, 416.8711
421.3269, 416.6931
421.8091, 416.9208
422.2912, 417.7460
422.7733, 418.4441
423.2554, 418.8322
423.7375, 419.2578
424.2196, 419.8955
424.7018, 420.7504
425.1839, 421.8183
425.6660, 423.1509
426.1481, 424.6401
426.6302, 425.5546
427.1123, 425.1527
427.5945, 425.0615
428.0766, 425.6265
428.5587, 426.5142
429.0408, 427.4192
429.5229, 428.2386
430.0050, 429.0174
430.4872, 429.7923
430.9693, 430.5251
431.4514, 431.4055
431.9335, 432.6113
432.4156, 433.8271
432.8977, 435.0478
433.3799, 436.1838
433.8620, 437.0222
434.3441, 437.2656
434.8262, 437.2455
435.3083, 438.0313
435.7904, 439.9679
436.2726, 441.7452
436.7547, 442.9781
437.2368, 443.7982
437.7189, 444.1196
438.2010, 443.8842
438.6831, 443.7574
439.1653, 444.3368
439.6474, 445.5284
440.1295, 446.9029
440.6116, 448.5377
441.0937, 450.0616
441.5758, 451.1655
442.0580, 451.9097
442.5401, 452.3954
443.0222, 452.4688
443.5043, 452.4168
443.9864, 452.4285
444.4685, 452.5278
444.9507, 453.0003
445.4328, 454.2197
445.9149, 455.6468
446.3970, 455.9454
446.8791, 454.7465
447.3612, 453.7216
447.8434, 453.4153
448.3255, 453.4864
448.8076, 453.5533
449.2897, 453.5436
449.7718, 453.5216
450.2539, 453.5685
450.7361, 453.6943
451.2182, 453.6266
451.7003, 453.7100
452.1824, 453.2687
452.6645, 451.3584
453.1466, 448.9034
453.6288, 447.6632
454.1109, 448.4105
454.5930, 449.9967
455.0751, 450.1007
455.5572, 447.9004
456.0393, 445.7482
456.5215, 443.3373
457.0036, 441.2202
457.4857, 439.7555
457.9678, 438.8932
458.4499, 438.3868
458.9320, 438.1727
459.4142, 438.1125
459.8963, 437.3843
460.3784, 435.8340
460.8605, 433.8488
461.3426, 431.1262
461.8247, 428.2798
462.3069, 425.9789
462.7890, 424.3896
463.2711, 422.9325
463.7532, 420.9627
464.2353, 418.5167
464.7174, 416.3167
465.1996, 414.7010
465.6817, 412.9223
466.1638, 410.1496
466.6459, 406.8001
467.1280, 403.9492
467.6101, 402.3032
468.0923, 400.9980
468.5744, 399.1251
469.0565, 396.7129
469.5386, 394.1683
470.0207, 391.5273
470.5028, 388.9862
470.9850, 387.0314
471.4671, 385.7847
471.9492, 384.2751
472.4313, 381.8238
472.9134, 379.2335
473.3955, 377.5956
473.8777, 376.8926
474.3598, 375.9569
474.8419, 373.8195
475.3240, 370.6466
475.8061, 368.1240
476.2882, 366.6102
476.7704, 365.2021
477.2525, 363.8758
477.7346, 362.4976
478.2167, 360.8462
478.6988, 358.8863
479.1809, 356.9170
479.6631, 355.2919
480.1452, 354.0609
480.6273, 352.9743
481.1094, 352.2225
481.5915, 351.4222
482.0736, 350.4852
482.5558, 349.4027
483.0379, 348.1410
483.5200, 346.6530
484.0021, 345.0991
484.4842, 343.7884
484.9663, 342.7527
485.4485, 341.7848
485.9306, 340.8244
486.4127, 339.9468
486.8948, 339.1722
487.3769, 338.5130
487.8590, 338.0296
488.3412, 338.0464
488.8233, 338.1768
489.3054, 337.6115
489.7875, 336.3020
490.2696, 334.7368
490.7517, 332.9037
491.2339, 331.1325
491.7160, 330.1065
492.1981, 330.2013
492.6802, 329.9569
493.1623, 328.2303
493.6444, 325.9848
494.1266, 324.7759
494.6087, 324.8448
495.0908, 325.2394
495.5729, 325.1620
496.0550, 324.6119
496.5371, 323.9643
497.0193, 322.8690
497.5014, 322.0945
497.9835, 322.1064
498.4656, 322.4987
498.9477, 322.7726
499.4298, 322.7456
499.9120, 322.4134
500.3941, 321.7340
500.8762, 320.5947
501.3583, 319.5333
501.8404, 318.5692
502.3225, 317.6654
502.8047, 316.6148
503.2868, 315.6486
503.7689, 315.2597
504.2510, 315.7521
504.7331, 316.6490
505.2152, 317.0787
505.6974, 316.9788
506.1795, 316.8192
506.6616, 316.8291
507.1437, 316.6616
507.6258, 315.8839
508.1079, 314.6296
508.5901, 313.6573
509.0722, 313.3079
509.5543, 313.4652
510.0364, 314.2075
510.5185, 315.5152
511.0006, 316.4203
511.4828, 316.3687
511.9649, 315.7206
512.4470, 315.2464
512.9291, 315.0223
513.4112, 314.6801
513.8933, 313.7470
514.3754, 312.8805
514.8575, 312.9639
515.3397, 313.9481
515.8218, 314.9353
516.3039, 315.2668
516.7860, 315.0178
517.2681, 314.7340
517.7502, 314.2826
518.2324, 313.9655
518.7145, 313.8207
519.1966, 313.8134
519.6787, 313.9225
520.1608, 314.1363
520.6429, 314.4463
521.1251, 314.9161
521.6072, 315.5327
522.0893, 315.7032
522.5714, 314.9402
523.0535, 314.5167
523.5356, 315.2643
524.0178, 316.3621
524.4999, 316.8216
524.9820, 316.3607
525.4641, 315.6071
525.9462, 314.9961
526.4283, 314.5530
526.9105, 314.4247
527.3926, 314.7115
527.8747, 315.0811
528.3568, 315.2197
528.8389, 315.2296
529.3210, 315.4760
529.8032, 316.4239
530.2853, 317.1272
530.7674, 316.8417
531.2495, 315.9848
531.7316, 315.3297
532.2137, 315.0983
532.6959, 315.1946
533.1780, 315.5638
533.6601, 316.3131
534.1422, 316.6474
534.6243, 316.3369
535.1064, 315.9331
535.5886, 315.5475
536.0707, 315.2312
536.5528, 315.0737
537.0349, 315.1056
537.5170, 315.1830
537.9991, 315.0440
538.4813, 314.6199
538.9634, 314.3427
539.4455, 314.3643
539.9276, 314.3937
540.4097, 314.3291
540.8918, 314.1727
541.3740, 313.9389
541.8561, 313.6328
542.3382, 313.2534
542.8203, 312.7587
543.3024, 312.1655
543.7845, 311.6254
544.2667, 311.1442
544.7488, 310.7889
545.2309, 310.8168
545.7130, 311.1583
546.1951, 311.0245
546.6772, 309.8789
547.1594, 308.6139
547.6415, 307.7007
548.1236, 307.1365
548.6057, 306.8977
549.0878, 306.9879
549.5699, 307.2335
550.0521, 307.3725
550.5342, 307.4655
551.0163, 307.2458
551.4984, 306.4964
551.9805, 305.7105
552.4626, 305.1256
552.9448, 304.6559
553.4269, 304.0480
553.9090, 303.1621
554.3911, 302.2872
554.8732, 302.0135
555.3553, 302.4521
555.8375, 302.7173
556.3196, 302.6793
556.8017, 302.4492
557.2838, 302.0013
557.7659, 301.4293
558.2480, 301.0173
558.7302, 301.0515
559.2123, 301.0671
559.6944, 300.5337
560.1765, 299.5522
560.6586, 298.6009
561.1407, 297.8584
561.6229, 297.0655
562.1050, 295.7634
562.5871, 293.8065
563.0692, 292.5811
563.5513, 292.6260
564.0334, 292.8857
564.5156, 292.9650
564.9977, 292.8487
565.4798, 292.5358
565.9619, 292.0307
566.4440, 291.4463
566.9261, 290.9587
567.4083, 290.5844
567.8904, 290.2393
568.3725, 290.1928
568.8546, 289.8808
569.3367, 288.8221
569.8188, 287.4391
570.3010, 286.4253
570.7831, 286.0414
571.2652, 286.0120
571.7473, 286.1759
572.2294, 286.4757
572.7115, 286.4125
573.1937, 285.8288
573.6758, 285.0677
574.1579, 284.3668
574.6400, 283.7178
575.1221, 283.0792
575.6042, 282.1039
576.0864, 281.5291
576.5685, 282.2697
577.0506, 283.4980
577.5327, 283.6828
578.0148, 282.4869
578.4969, 280.9432
578.9791, 280.1424
579.4612, 280.1114
579.9433, 280.1610
580.4254, 280.6297
580.9075, 280.7741
581.3896, 280.1717
581.8718, 279.3253
582.3539, 278.8501
582.8360, 278.8509
583.3181, 278.8499
583.8002, 278.2233
584.2823, 277.0999
584.7645, 276.4460
585.2466, 276.3096
585.7287, 276.5207
586.2108, 277.3193
586.6929, 278.2686
587.1750, 278.7674
587.6572, 278.7676
588.1393, 278.3376
588.6214, 277.0003
589.1035, 275.5052
589.5856, 274.9247
590.0677, 275.2980
590.5499, 276.0445
591.0320, 276.9192
591.5141, 277.6970
591.9962, 277.5145
592.4783, 274.9632
592.9604, 273.4415
593.4426, 273.6733
593.9247, 274.3640
594.4068, 274.7565
594.8889, 274.7874
595.3710, 274.6428
595.8531, 274.4016
596.3353, 274.1469
596.8174, 274.0633
597.2995, 274.1569
597.7816, 274.4541
598.2637, 275.4582
598.7458, 276.1069
599.2280, 275.0719
599.7101, 272.7463
600.1922, 271.2773
600.6743, 271.8995
601.1564, 273.1552
601.6385, 274.1582
602.1207, 274.8085
602.6028, 274.6538
603.0849, 273.4856
603.5670, 272.1679
604.0491, 271.8600
604.5313, 272.7694
605.0134, 273.4005
605.4955, 273.6220
605.9776, 273.7574
606.4597, 273.8073
606.9418, 273.8755
607.4240, 274.1265
607.9061, 274.5905
608.3882, 275.0702
608.8703, 275.4364
609.3524, 275.6687
609.8345, 275.3898
610.3167, 274.3724
610.7988, 273.3984
611.2809, 272.7603
611.7630, 272.4456
612.2451, 272.4859
612.7272, 272.9422
613.2094, 273.4880
613.6915, 274.0987
614.1736, 274.6491
614.6557, 274.9493
615.1378, 275.0111
615.6199, 274.9553
616.1021, 274.8129
616.5842, 274.7091
617.0663, 275.0378
617.5484, 276.5209
618.0305, 277.1898
618.5126, 276.4782
618.9948, 275.5549
619.4769, 274.9886
619.9590, 274.7587
620.4411, 274.6064
620.9232, 274.3456
621.4053, 274.3203
621.8875, 275.3156
622.3696, 277.3053
622.8517, 278.8219
623.3338, 279.6564
623.8159, 279.8935
624.2980, 279.3334
624.7802, 278.2005
625.2623, 277.1994
625.7444, 276.1494
626.2265, 275.5808
626.7086, 276.0799
627.1907, 277.0620
627.6729, 277.6937
628.1550, 277.8320
628.6371, 277.8193
629.1192, 277.9363
629.6013, 278.1818
630.0834, 278.5582
630.5656, 279.2406
631.0477, 279.7593
631.5298, 279.8768
632.0119, 279.9552
632.4940, 280.3491
632.9761, 280.9993
633.4583, 281.4887
633.9404, 281.4767
634.4225, 281.2404
634.9046, 281.2120
635.3867, 281.3794
635.8688, 281.6050
636.3510, 281.8805
636.8331, 282.1168
637.3152, 282.1953
637.7973, 282.0990
638.2794, 282.0105
638.7615, 282.0536
639.2437, 281.9706
639.7258, 281.3478
640.2079, 280.6582
640.6900, 280.6183
641.1721, 281.3753
641.6542, 282.4641
642.1364, 283.4922
642.6185, 284.4315
643.1006, 284.8174
643.5827, 284.3512
644.0648, 283.9874
644.5469, 284.0637
645.0291, 284.3945
645.5112, 284.9321
645.9933, 285.6631
646.4754, 286.2090
646.9575, 286.2649
647.4396, 286.1473
647.9218, 286.2313
648.4039, 286.4622
648.8860, 286.5155
649.3681, 286.2383
649.8502, 285.9127
650.3323, 286.0063
650.8145, 286.6877
651.2966, 287.0112
651.7787, 286.5500
652.2608, 286.2366
652.7429, 286.4166
653.2250, 286.8743
653.7072, 287.4622
654.1893, 288.1073
654.6714, 288.4274
655.1535, 287.6472
655.6356, 286.2570
656.1177, 286.1255
656.5999, 287.4690
657.0820, 288.6595
657.5641, 288.9273
658.0462, 288.6295
658.5283, 288.3293
659.0104, 287.9574
659.4926, 287.8981
