##NAMES=Salammoniac
##RRUFFID=R061022
##IDEAL CHEMISTRY=N^3-^H_4_Cl
##LOCALITY=Schoeller mine, Kladno, Bohemia, Czech Republic
##OWNER=RRUFF
##SOURCE=Michael Scott
##DESCRIPTION=A crust of colorless tabular crystals
##STATUS=The identification of this mineral has been confirmed by X-ray diffraction and chemical analysis
##URL=rruff.info/R061022
##MEASURED CHEMISTRY=NH_4_Cl_1.00_ ; N, H not measured but estimated by stoichiometry
118.8382, 0.0000000E+00
119.3203, 12.12769
119.8024, 10.68994
120.2845, 0.2714840
120.7667, 4.619385
121.2488, 3.716797
121.7309, 2.479492
122.2130, 12.63525
122.6951, 27.13013
123.1772, 44.23096
123.6594, 61.72900
124.1415, 79.09863
124.6236, 99.16943
125.1057, 124.3311
125.5878, 153.7466
126.0699, 186.8606
126.5521, 224.6970
127.0342, 266.1418
127.5163, 308.9265
127.9984, 352.9304
128.4805, 398.1260
128.9626, 444.5581
129.4448, 492.1721
129.9269, 540.4958
130.4090, 589.7993
130.8911, 640.1040
131.3732, 689.6682
131.8553, 737.9509
132.3375, 785.9153
132.8196, 834.6809
133.3017, 883.7043
133.7838, 930.9626
134.2659, 973.9519
134.7480, 1011.374
135.2302, 1047.015
135.7123, 1081.990
136.1944, 1114.653
136.6765, 1144.011
137.1586, 1169.790
137.6407, 1191.999
138.1229, 1210.848
138.6050, 1226.007
139.0871, 1237.493
139.5692, 1245.261
140.0513, 1249.313
140.5334, 1249.188
141.0156, 1244.267
141.4977, 1236.120
141.9798, 1228.106
142.4619, 1220.949
142.9440, 1212.181
143.4261, 1200.015
143.9083, 1185.130
144.3904, 1170.186
144.8725, 1156.803
145.3546, 1143.337
145.8367, 1127.474
146.3188, 1108.407
146.8010, 1088.553
147.2831, 1069.881
147.7652, 1052.436
148.2473, 1035.528
148.7294, 1019.163
149.2115, 1003.135
149.6937, 987.1252
150.1758, 970.8259
150.6579, 955.0835
151.1400, 941.2185
151.6221, 929.7297
152.1042, 919.5903
152.5864, 910.1570
153.0685, 901.8323
153.5506, 895.3022
154.0327, 890.9004
154.5148, 888.3062
154.9969, 885.8889
155.4791, 883.3230
155.9612, 881.4033
156.4433, 879.8146
156.9254, 878.9985
157.4075, 879.5906
157.8896, 881.9717
158.3718, 886.1327
158.8539, 892.2603
159.3360, 900.8464
159.8181, 910.5276
160.3002, 921.3394
160.7823, 932.9727
161.2645, 944.8101
161.7466, 956.4164
162.2287, 967.7717
162.7108, 978.9670
163.1929, 990.4580
163.6750, 1001.471
164.1572, 1011.807
164.6393, 1021.384
165.1214, 1029.744
165.6035, 1036.568
166.0856, 1041.699
166.5677, 1044.897
167.0499, 1045.983
167.5320, 1045.231
168.0141, 1043.448
168.4962, 1041.026
168.9783, 1035.803
169.4604, 1025.367
169.9426, 1011.066
170.4247, 994.3777
170.9068, 975.6643
171.3889, 954.9198
171.8710, 931.6860
172.3531, 904.9504
172.8353, 876.6873
173.3174, 848.4019
173.7995, 819.8542
174.2816, 790.4366
174.7637, 759.0618
175.2458, 725.9375
175.7280, 694.8550
176.2101, 666.8193
176.6922, 637.9098
177.1743, 610.4525
177.6564, 584.5952
178.1385, 560.2678
178.6207, 537.7510
179.1028, 517.3799
179.5849, 497.2821
180.0670, 476.3895
180.5491, 456.7303
181.0313, 439.1047
181.5134, 423.4369
181.9955, 409.4957
182.4776, 396.9287
182.9597, 385.9823
183.4418, 375.8125
183.9240, 365.9144
184.4061, 357.0189
184.8882, 350.0872
185.3703, 344.9498
185.8524, 340.1534
186.3345, 333.8553
186.8167, 325.0675
187.2988, 317.6055
187.7809, 311.3969
188.2630, 306.3485
188.7451, 302.7467
189.2272, 300.5642
189.7094, 299.0623
190.1915, 297.3542
190.6736, 295.4583
191.1557, 292.8849
191.6378, 289.1892
192.1199, 284.9772
192.6021, 280.7968
193.0842, 276.7579
193.5663, 272.9651
194.0484, 270.0710
194.5305, 267.9729
195.0126, 265.3096
195.4948, 261.7834
195.9769, 257.4093
196.4590, 251.9236
196.9411, 244.8882
197.4232, 237.6047
197.9053, 231.5916
198.3875, 226.6672
198.8696, 221.6382
199.3517, 215.6816
199.8338, 209.1193
200.3159, 203.2220
200.7980, 198.8909
201.2802, 194.3435
201.7623, 188.1351
202.2444, 180.5424
202.7265, 172.7758
203.2086, 165.7720
203.6907, 159.5515
204.1729, 153.3508
204.6550, 147.8149
205.1371, 141.7124
205.6192, 133.8522
206.1013, 124.6204
206.5834, 115.7513
207.0656, 109.4581
207.5477, 106.3497
208.0298, 101.6261
208.5119, 93.14551
208.9940, 84.68225
209.4761, 77.76440
209.9583, 72.36316
210.4404, 67.47473
210.9225, 61.84094
211.4046, 55.01257
211.8867, 49.34558
212.3689, 45.69763
212.8510, 42.32227
213.3331, 38.47607
213.8152, 34.10620
214.2973, 29.60266
214.7794, 25.42065
215.2616, 21.52637
215.7437, 18.04016
216.2258, 14.90320
216.7079, 12.15918
217.1900, 9.894409
217.6721, 8.097290
218.1543, 6.512268
218.6364, 4.943909
219.1185, 3.486084
219.6006, 1.643799
220.0827, 1.099670
220.5648, 3.781921
221.0470, 5.732544
221.5291, 6.862793
222.0112, 7.542786
222.4933, 8.058716
222.9754, 8.303040
223.4575, 8.885376
223.9397, 10.02759
224.4218, 11.31067
224.9039, 12.50476
225.3860, 13.53162
225.8681, 14.27496
226.3502, 14.48322
226.8324, 14.12891
227.3145, 14.07404
227.7966, 14.90436
228.2787, 15.76117
228.7608, 15.73798
229.2429, 14.71967
229.7251, 13.52118
230.2072, 12.88458
230.6893, 12.71881
231.1714, 12.50421
231.6535, 11.69434
232.1356, 11.03351
232.6178, 11.80786
233.0999, 14.35510
233.5820, 16.59021
234.0641, 16.38806
234.5462, 14.59760
235.0283, 13.06714
235.5105, 12.43439
235.9926, 12.24585
236.4747, 11.86633
236.9568, 11.22247
237.4389, 10.56396
237.9210, 10.07806
238.4032, 9.650085
238.8853, 9.092285
239.3674, 8.330261
239.8495, 7.383057
240.3316, 6.248840
240.8137, 4.778259
241.2959, 3.516724
241.7780, 2.900513
242.2601, 2.598450
242.7422, 2.308655
243.2243, 1.995667
243.7064, 1.515625
244.1886, 0.5708010
244.6707, 1.037537
245.1528, 2.642944
245.6349, 4.117737
246.1170, 5.427673
246.5991, 6.435669
247.0813, 7.024475
247.5634, 7.498291
248.0455, 8.557007
248.5276, 10.73865
249.0097, 12.29401
249.4918, 12.45587
249.9740, 12.05219
250.4561, 11.61572
250.9382, 11.32782
251.4203, 11.39191
251.9024, 12.23346
252.3845, 14.10809
252.8667, 16.24988
253.3488, 18.93524
253.8309, 21.55249
254.3130, 23.46759
254.7951, 24.51453
255.2772, 25.21667
255.7594, 26.56116
256.2415, 28.97522
256.7236, 31.14111
257.2057, 32.72717
257.6878, 34.21802
258.1699, 36.08923
258.6520, 38.41052
259.1342, 40.73755
259.6163, 42.26019
260.0984, 42.06543
260.5805, 43.02814
261.0626, 45.88672
261.5447, 49.14661
262.0269, 51.91510
262.5090, 53.99915
262.9911, 55.66901
263.4732, 57.28259
263.9553, 58.89459
264.4374, 60.26648
264.9196, 60.85620
265.4017, 61.66290
265.8838, 63.70148
266.3659, 66.79651
266.8480, 69.63623
267.3301, 70.61377
267.8123, 68.93591
268.2944, 68.81024
268.7765, 70.87891
269.2586, 73.58386
269.7407, 76.60315
270.2228, 79.62933
270.7050, 82.00781
271.1871, 83.02747
271.6692, 82.45807
272.1513, 82.59082
272.6334, 83.38470
273.1155, 84.71460
273.5977, 86.87506
274.0798, 89.58990
274.5619, 92.10712
275.0440, 93.83539
275.5261, 94.79053
276.0082, 95.95938
276.4904, 97.69098
276.9725, 99.22296
277.4546, 99.97662
277.9367, 100.2654
278.4188, 100.9710
278.9009, 102.7709
279.3831, 105.3703
279.8652, 106.7461
280.3473, 105.7939
280.8294, 105.1405
281.3115, 105.6978
281.7936, 106.9728
282.2758, 108.1220
282.7579, 108.7643
283.2400, 109.0096
283.7221, 109.1633
284.2042, 109.3647
284.6863, 109.3981
285.1685, 109.0359
285.6506, 108.4393
286.1327, 107.9528
286.6148, 107.7699
287.0969, 107.7978
287.5790, 107.7357
288.0612, 107.4247
288.5433, 107.2691
289.0254, 107.6679
289.5075, 108.1751
289.9896, 108.0873
290.4717, 107.1128
290.9539, 105.6572
291.4360, 104.4083
291.9181, 103.5752
292.4002, 102.9759
292.8823, 102.7423
293.3644, 102.5639
293.8466, 102.1077
294.3287, 101.3387
294.8108, 100.5450
295.2929, 99.97757
295.7750, 99.64917
296.2571, 99.41666
296.7393, 99.31454
297.2214, 99.30243
297.7035, 99.49762
298.1856, 99.86823
298.6677, 99.97006
299.1498, 99.27039
299.6320, 97.85156
300.1141, 97.11935
300.5962, 97.78180
301.0783, 98.48486
301.5604, 98.41983
302.0425, 97.70728
302.5247, 96.87042
303.0068, 96.16345
303.4889, 95.51559
303.9710, 94.68433
304.4531, 93.20258
304.9352, 92.12665
305.4174, 92.21268
305.8995, 93.12442
306.3816, 94.00766
306.8637, 94.54745
307.3458, 94.67001
307.8279, 94.18091
308.3101, 92.89755
308.7922, 91.69678
309.2743, 90.91306
309.7564, 90.41669
310.2385, 89.98093
310.7206, 89.52951
311.2028, 89.13318
311.6849, 88.91492
312.1670, 88.88275
312.6491, 88.68219
313.1312, 88.10913
313.6133, 87.39105
314.0955, 86.72974
314.5776, 86.13977
315.0597, 85.79742
315.5418, 86.08032
316.0239, 86.95575
316.5060, 87.23306
316.9882, 86.37369
317.4703, 85.18887
317.9524, 84.23709
318.4345, 83.57126
318.9166, 83.19968
319.3987, 83.22375
319.8809, 83.56107
320.3630, 83.69916
320.8451, 83.43323
321.3272, 83.15521
321.8093, 83.26559
322.2914, 83.59903
322.7736, 83.46710
323.2557, 82.37854
323.7378, 80.80130
324.2199, 79.99463
324.7020, 80.29633
325.1841, 80.56552
325.6663, 80.37708
326.1484, 79.88428
326.6305, 79.35370
327.1126, 78.85312
327.5947, 78.40533
328.0768, 78.02838
328.5590, 77.69528
329.0411, 77.48843
329.5232, 77.71698
330.0053, 77.94904
330.4874, 77.49777
330.9695, 76.23645
331.4517, 74.96793
331.9338, 74.58768
332.4159, 75.20102
332.8980, 75.52069
333.3801, 75.14465
333.8622, 74.73904
334.3444, 74.99878
334.8265, 75.82184
335.3086, 76.30963
335.7907, 75.72321
336.2729, 74.24298
336.7550, 73.33923
337.2371, 73.55408
337.7192, 73.70041
338.2013, 73.14825
338.6834, 72.13239
339.1656, 71.20068
339.6477, 70.60376
340.1298, 70.28156
340.6119, 70.13672
341.0940, 70.52124
341.5761, 70.44830
342.0583, 69.43146
342.5404, 68.00476
343.0225, 66.78656
343.5046, 65.93607
343.9867, 65.33646
344.4688, 64.87015
344.9510, 64.62790
345.4331, 64.30319
345.9152, 64.13373
346.3973, 63.68857
346.8794, 62.29184
347.3615, 60.09320
347.8437, 58.28052
348.3258, 57.96796
348.8079, 59.26825
349.2900, 60.00595
349.7721, 59.99789
350.2542, 59.61841
350.7364, 58.87286
351.2185, 57.96695
351.7006, 57.22934
352.1827, 56.82846
352.6648, 56.66223
353.1469, 56.41586
353.6291, 55.69772
354.1112, 55.32523
354.5933, 55.89746
355.0754, 56.65814
355.5575, 56.55765
356.0396, 55.30597
356.5218, 53.74133
357.0039, 53.32419
357.4860, 55.04892
357.9681, 55.75452
358.4502, 54.64008
358.9323, 53.20343
359.4145, 52.55066
359.8966, 52.66391
360.3787, 52.71805
360.8608, 51.85025
361.3429, 49.95309
361.8250, 48.43616
362.3072, 47.35159
362.7893, 46.58365
363.2714, 46.22385
363.7535, 46.12732
364.2356, 46.05331
364.7177, 45.86594
365.1999, 45.58704
365.6820, 45.32339
366.1641, 45.47311
366.6462, 45.03009
367.1283, 43.31116
367.6104, 41.29880
368.0926, 40.05890
368.5747, 39.86017
369.0568, 39.95056
369.5389, 39.05634
370.0210, 36.52271
370.5031, 34.83896
370.9853, 34.82343
371.4674, 34.96225
371.9495, 34.45410
372.4316, 33.35251
372.9137, 32.22058
373.3958, 31.54117
373.8780, 31.29132
374.3601, 30.94653
374.8422, 30.63190
375.3243, 30.02646
375.8064, 28.82547
376.2885, 27.35074
376.7707, 26.05862
377.2528, 25.15723
377.7349, 24.53452
378.2170, 24.01007
378.6991, 23.69412
379.1812, 23.15155
379.6634, 22.00180
380.1455, 20.76297
380.6276, 19.84061
381.1097, 19.30551
381.5918, 18.87326
382.0739, 18.28311
382.5561, 17.54425
383.0382, 16.78461
383.5203, 16.05258
384.0024, 15.25150
384.4845, 14.13635
384.9666, 12.87738
385.4488, 11.99890
385.9309, 12.10236
386.4130, 12.66354
386.8951, 12.41602
387.3772, 11.14252
387.8593, 9.894562
388.3415, 9.246338
388.8236, 8.946899
389.3057, 8.755005
389.7878, 8.726410
390.2699, 8.562256
390.7520, 7.794556
391.2342, 6.536652
391.7163, 5.782074
392.1984, 6.115234
392.6805, 6.652893
393.1626, 6.174561
393.6447, 4.685822
394.1269, 3.350159
394.6090, 2.611816
395.0911, 2.301941
395.5732, 2.245178
396.0553, 2.448639
396.5374, 2.622223
397.0196, 2.556702
397.5017, 2.249329
397.9838, 1.795135
398.4659, 1.116577
398.9480, 0.3667300
399.4301, 0.4777830
399.9123, 1.339752
400.3944, 1.950714
400.8765, 2.158630
401.3586, 2.104492
401.8407, 2.127167
402.3228, 2.310211
402.8050, 2.380493
403.2871, 2.116302
403.7692, 1.802765
404.2513, 1.759277
404.7334, 2.044952
405.2155, 2.528961
405.6977, 3.134338
406.1798, 3.939026
406.6619, 4.204651
407.1440, 3.211060
407.6261, 2.461700
408.1082, 2.882660
408.5904, 4.093567
409.0725, 5.208313
409.5546, 5.732697
410.0367, 5.742371
410.5188, 5.475311
411.0009, 4.687500
411.4831, 3.926666
411.9652, 3.031921
412.4473, 2.283875
412.9294, 2.002625
413.4115, 2.215240
413.8936, 2.619781
414.3758, 2.881500
414.8579, 3.002106
415.3400, 2.961365
415.8221, 2.868591
416.3042, 2.490479
416.7863, 1.486908
417.2685, 0.1496580
417.7506, 1.006409
418.2327, 1.695374
418.7148, 1.943726
419.1969, 1.675751
419.6790, 0.3865360
420.1612, 0.2358090
420.6433, 0.9376530
421.1254, 2.465668
421.6075, 3.068512
422.0896, 2.526855
422.5717, 1.809509
423.0539, 1.877167
423.5360, 2.684265
424.0181, 3.545685
424.5002, 4.515198
424.9823, 5.342163
425.4644, 5.840698
425.9466, 6.086121
426.4287, 6.247101
426.9108, 6.208282
427.3929, 6.256439
427.8750, 6.969849
428.3571, 8.397583
428.8393, 9.545380
429.3214, 9.866882
429.8035, 9.716461
430.2856, 9.761688
430.7677, 10.06396
431.2498, 10.34375
431.7320, 10.43478
432.2141, 10.41537
432.6962, 10.36078
433.1783, 10.25311
433.6604, 10.37079
434.1425, 11.10654
434.6247, 12.47018
435.1068, 13.51590
435.5889, 13.91861
436.0710, 14.25931
436.5531, 14.99820
437.0352, 15.98691
437.5174, 16.71066
437.9995, 16.87292
438.4816, 16.71896
438.9637, 16.91013
439.4458, 17.72446
439.9279, 18.47699
440.4101, 19.20758
440.8922, 19.82120
441.3743, 20.18530
441.8564, 20.31363
442.3385, 20.37988
442.8206, 20.53946
443.3028, 20.79068
443.7849, 21.20767
444.2670, 22.03192
444.7491, 22.75882
445.2312, 23.13840
445.7133, 23.37640
446.1955, 23.79462
446.6776, 24.53369
447.1597, 25.42783
447.6418, 26.12714
448.1239, 26.49039
448.6060, 27.09015
449.0882, 28.46588
449.5703, 29.70554
450.0524, 30.23126
450.5345, 30.12054
451.0166, 29.86029
451.4987, 29.67905
451.9809, 29.62424
452.4630, 29.92804
452.9451, 30.72986
453.4272, 31.52158
453.9093, 32.08942
454.3914, 32.49734
454.8736, 32.76437
455.3557, 32.85632
455.8378, 32.94641
456.3199, 33.22760
456.8020, 33.63696
457.2841, 33.84793
457.7663, 33.67517
458.2484, 33.52917
458.7305, 33.91556
459.2126, 34.77512
459.6947, 35.69772
460.1768, 36.80405
460.6590, 37.79648
461.1411, 38.46609
461.6232, 38.82111
462.1053, 38.87656
462.5874, 38.56357
463.0695, 38.04712
463.5517, 37.81726
464.0338, 38.14017
464.5159, 38.23102
464.9980, 37.61975
465.4801, 37.06177
465.9622, 37.47745
466.4444, 38.77789
466.9265, 39.85004
467.4086, 39.60504
467.8907, 38.06522
468.3728, 37.15735
468.8549, 37.66968
469.3371, 37.98444
469.8192, 37.31366
470.3013, 36.45456
470.7834, 36.56586
471.2655, 38.01172
471.7477, 39.84262
472.2298, 40.60428
472.7119, 40.07764
473.1940, 39.57596
473.6761, 39.22522
474.1582, 38.88629
474.6404, 38.36270
475.1225, 37.82669
475.6046, 37.66983
476.0867, 38.26785
476.5688, 39.20300
477.0509, 39.60568
477.5331, 39.38568
478.0152, 39.25476
478.4973, 39.61084
478.9794, 40.10492
479.4615, 40.26083
479.9436, 40.01544
480.4258, 39.97403
480.9079, 40.71442
481.3900, 41.76352
481.8721, 42.20120
482.3542, 41.90408
482.8363, 41.63144
483.3185, 42.02347
483.8006, 42.91376
484.2827, 43.32428
484.7648, 42.74399
485.2469, 42.30527
485.7290, 42.57275
486.2112, 43.17059
486.6933, 43.46564
487.1754, 43.28745
487.6575, 43.07538
488.1396, 43.42679
488.6217, 44.54153
489.1039, 45.26825
489.5860, 45.74094
490.0681, 45.76761
490.5502, 44.77127
491.0323, 43.37045
491.5144, 42.67215
491.9966, 43.24344
492.4787, 44.51608
492.9608, 45.34109
493.4429, 45.69641
493.9250, 45.66437
494.4071, 44.77863
494.8893, 43.89581
495.3714, 43.43518
495.8535, 43.38480
496.3356, 43.56052
496.8177, 43.96326
497.2998, 44.45325
497.7820, 44.70456
498.2641, 44.70804
498.7462, 44.48160
499.2283, 43.50143
499.7104, 42.66556
500.1925, 43.41980
500.6747, 46.16196
501.1568, 48.25412
501.6389, 48.05090
502.1210, 46.49203
502.6031, 44.89600
503.0852, 43.43320
503.5674, 42.38910
504.0495, 42.06042
504.5316, 42.36713
505.0137, 42.64658
505.4958, 43.13739
505.9779, 43.31921
506.4601, 42.80017
506.9422, 41.98944
507.4243, 41.30292
507.9064, 40.88583
508.3885, 40.90359
508.8706, 41.67862
509.3528, 43.41724
509.8349, 44.29361
510.3170, 43.69312
510.7991, 42.89011
511.2812, 41.84348
511.7633, 40.94534
512.2454, 40.92700
512.7275, 42.10559
513.2097, 43.41684
513.6918, 42.92877
514.1739, 40.34509
514.6560, 38.80814
515.1381, 39.38232
515.6202, 40.26001
516.1024, 40.41064
516.5845, 39.97388
517.0666, 39.34238
517.5487, 38.56293
518.0308, 37.77521
518.5129, 37.20874
518.9951, 36.83743
519.4772, 36.26370
519.9593, 35.20419
520.4414, 34.11072
520.9235, 33.80853
521.4056, 34.36670
521.8878, 34.80023
522.3699, 34.96341
522.8520, 34.82513
523.3341, 34.23944
523.8162, 33.37271
524.2983, 32.71011
524.7805, 32.52365
525.2626, 32.61099
525.7447, 32.41797
526.2268, 31.76941
526.7089, 31.10278
527.1910, 30.24808
527.6732, 29.51007
528.1553, 29.21219
528.6374, 29.21387
529.1195, 29.00961
529.6016, 28.15002
530.0837, 26.89844
530.5659, 26.30341
531.0480, 26.65552
531.5301, 27.02664
532.0122, 27.38629
532.4943, 27.49146
532.9764, 26.87186
533.4586, 25.52982
533.9407, 24.47568
534.4228, 24.63306
534.9049, 25.49585
535.3870, 26.08658
535.8691, 26.36307
536.3513, 26.26501
536.8334, 25.51480
537.3155, 24.44360
537.7976, 23.95770
538.2797, 24.19559
538.7618, 24.63846
539.2440, 25.75327
539.7261, 26.68170
540.2082, 26.20691
540.6903, 24.36157
541.1724, 22.36172
541.6545, 21.13928
542.1367, 20.62640
542.6188, 20.23486
543.1009, 20.08051
543.5830, 19.99295
544.0651, 19.95505
544.5472, 19.84058
545.0294, 19.58600
545.5115, 19.21204
545.9936, 18.76050
546.4757, 18.14548
546.9578, 17.45886
547.4399, 17.46753
547.9221, 18.73138
548.4042, 19.37360
548.8863, 17.78595
549.3684, 15.53445
549.8505, 14.24060
550.3326, 14.19482
550.8148, 14.40488
551.2969, 14.45432
551.7790, 14.31009
552.2611, 13.83624
552.7432, 13.01788
553.2253, 12.19141
553.7075, 11.60626
554.1896, 11.19974
554.6717, 10.66812
555.1538, 9.572937
555.6359, 8.947693
556.1180, 9.557404
556.6002, 10.39191
557.0823, 10.29031
557.5644, 9.213165
558.0465, 8.047577
558.5286, 7.585785
559.0107, 7.741821
559.4929, 7.721649
559.9750, 7.586823
560.4571, 7.161530
560.9392, 6.106354
561.4213, 4.989136
561.9034, 4.284546
562.3856, 4.064026
562.8677, 4.062622
563.3498, 4.145447
563.8319, 4.285919
564.3140, 4.420654
564.7961, 4.563141
565.2783, 4.585144
565.7604, 4.388245
566.2425, 4.043396
566.7246, 3.715393
567.2067, 3.451324
567.6888, 3.034668
568.1710, 2.138367
568.6531, 1.204865
569.1352, 0.7769470
569.6173, 0.8491210
570.0994, 1.076202
570.5815, 1.253906
571.0637, 1.356262
571.5458, 1.265381
572.0279, 0.7466740
572.5100, 0.3753050
572.9921, 0.1098630
573.4742, 4.5531999E-02
573.9564, 0.4647220
574.4385, 1.194336
574.9206, 1.625305
575.4027, 1.239410
575.8848, 0.3460390
576.3669, 0.1808780
576.8491, 0.2850340
577.3312, 0.3091130
577.8133, 0.2285770
578.2954, 0.2235110
578.7775, 0.6106260
579.2596, 1.351532
579.7418, 1.721497
580.2239, 1.051636
580.7060, 0.1720890
581.1881, 2.9327000E-02
581.6702, 0.3583980
582.1523, 0.8160710
582.6345, 1.121674
583.1166, 1.352234
583.5988, 1.643616
584.0809, 2.051910
584.5630, 2.360168
585.0451, 2.652222
585.5272, 2.774506
586.0093, 2.585571
586.4915, 2.177521
586.9736, 1.672913
587.4557, 1.120178
587.9378, 0.6701660
588.4199, 0.6408390
588.9020, 1.090851
589.3842, 1.474396
589.8663, 1.845032
590.3484, 1.990936
590.8305, 1.601074
591.3126, 0.9337770
591.7947, 0.5645750
592.2769, 0.7493290
592.7590, 1.085480
593.2411, 1.403381
593.7232, 1.619568
594.2053, 1.477844
594.6874, 0.9107670
595.1696, 0.1582950
595.6517, 0.6389770
596.1338, 1.474182
596.6159, 1.794495
597.0980, 1.160400
597.5801, 0.6398930
598.0623, 0.5232540
598.5444, 0.6019900
599.0265, 0.7357480
599.5086, 0.8455200
599.9907, 0.7525940
600.4728, 0.1565860
600.9550, 0.8080750
601.4371, 1.085480
601.9192, 0.3964540
602.4013, 0.3007510
602.8834, 0.7097170
603.3655, 0.9476320
603.8477, 1.094299
604.3298, 1.157410
604.8119, 1.167145
605.2940, 1.090942
605.7761, 1.000000
606.2582, 0.9138490
606.7404, 0.8692630
607.2225, 1.080170
607.7046, 1.662720
608.1867, 2.534119
608.6688, 3.588959
609.1509, 5.210541
609.6331, 6.058746
610.1152, 5.799377
610.5973, 5.132477
611.0794, 4.112854
611.5615, 3.014984
612.0436, 2.300110
612.5258, 2.180908
613.0079, 2.385986
613.4900, 2.542450
613.9721, 2.652863
614.4542, 2.613983
614.9363, 2.222473
615.4185, 1.997864
615.9006, 2.522583
616.3827, 3.408813
616.8648, 3.882050
617.3469, 3.638489
617.8290, 3.293823
618.3112, 3.089447
618.7933, 3.062347
619.2754, 3.410065
619.7575, 4.122101
620.2396, 4.675629
620.7217, 4.594086
621.2039, 4.017120
621.6860, 3.869629
622.1681, 4.378021
622.6502, 5.033844
623.1323, 6.174347
623.6144, 7.159821
624.0966, 7.422150
624.5787, 7.039673
625.0608, 6.519989
625.5429, 6.139252
626.0250, 5.889801
626.5071, 5.707581
626.9893, 5.582062
627.4714, 5.831421
627.9535, 6.785431
628.4356, 7.785675
628.9177, 7.882050
629.3998, 7.231323
629.8820, 7.101837
630.3641, 8.279236
630.8462, 9.403351
631.3283, 9.633148
631.8104, 9.322510
632.2925, 9.113831
632.7747, 9.180054
633.2568, 9.238617
633.7389, 8.935974
634.2210, 8.259186
634.7031, 7.868195
635.1852, 7.886841
635.6674, 8.038849
636.1495, 8.198090
636.6316, 8.449707
637.1137, 9.045349
637.5958, 9.976196
638.0779, 10.62277
638.5601, 10.25620
639.0422, 9.431274
639.5243, 9.164642
640.0064, 9.432404
640.4885, 9.657349
640.9706, 9.596649
641.4528, 9.380951
641.9349, 9.202667
642.4170, 9.068390
642.8991, 8.999329
643.3812, 9.112000
643.8633, 9.207367
644.3455, 9.112122
644.8276, 8.980438
645.3097, 9.079254
645.7918, 9.483337
646.2739, 9.975586
646.7560, 10.32257
647.2382, 10.53125
647.7203, 10.59198
648.2024, 10.53714
648.6845, 10.33954
649.1666, 9.871887
649.6487, 9.300995
650.1309, 8.776062
650.6130, 8.254303
651.0951, 8.054596
651.5772, 8.571930
652.0593, 9.306335
652.5414, 9.746674
653.0236, 9.937561
653.5057, 10.18698
653.9878, 10.63708
654.4699, 11.07205
654.9520, 11.06345
655.4341, 10.42688
655.9163, 9.939941
656.3984, 9.567505
656.8805, 9.407806
657.3626, 9.688934
657.8447, 10.12469
658.3268, 10.26974
658.8090, 9.954376
659.2911, 9.540955
659.7732, 9.269226
660.2553, 9.175598
660.7374, 9.379059
661.2195, 9.883331
661.7017, 10.46826
662.1838, 11.12079
662.6659, 11.63348
663.1480, 11.42847
663.6301, 9.873474
664.1122, 8.949615
664.5944, 9.176727
665.0765, 9.601746
665.5586, 9.670624
666.0407, 9.525696
666.5228, 9.536987
667.0049, 9.862854
667.4871, 10.33545
667.9692, 10.79877
668.4513, 11.23654
668.9334, 11.41626
669.4155, 11.23663
669.8976, 11.03656
670.3798, 11.07547
670.8619, 11.20697
671.3440, 11.08264
671.8261, 10.56494
672.3082, 10.19583
672.7903, 10.30405
673.2725, 10.48648
673.7546, 10.32181
674.2367, 9.911835
674.7188, 9.642334
675.2009, 9.705750
675.6830, 9.973145
676.1652, 10.19638
676.6473, 10.33887
677.1294, 10.66541
677.6115, 11.40005
678.0936, 12.01141
678.5757, 12.30786
679.0579, 12.32178
679.5400, 12.04855
680.0221, 11.44055
680.5042, 10.82199
680.9863, 10.24866
681.4684, 9.841400
681.9506, 9.770081
682.4327, 10.03470
682.9148, 10.67065
683.3969, 11.75800
683.8790, 12.88141
684.3611, 13.13388
684.8433, 12.05893
685.3254, 11.50784
685.8075, 12.19147
686.2896, 12.62973
686.7717, 11.98843
687.2538, 10.93246
687.7360, 10.43268
688.2181, 10.75833
688.7002, 11.28427
689.1823, 11.77179
689.6644, 12.03308
690.1465, 11.40945
690.6287, 9.941772
691.1108, 8.951599
691.5929, 9.151520
692.0750, 10.01654
692.5571, 10.59537
693.0392, 10.81076
693.5214, 10.98749
694.0035, 11.26178
694.4856, 11.35767
694.9677, 10.97473
695.4498, 10.43118
695.9319, 10.17935
696.4141, 10.33344
696.8962, 10.60028
697.3783, 10.75360
697.8604, 10.80039
698.3425, 10.69147
698.8246, 10.40918
699.3068, 10.36551
699.7889, 10.89264
700.2710, 11.46790
700.7531, 11.14117
701.2352, 9.562927
701.7173, 8.878265
702.1995, 9.989960
702.6816, 11.02826
703.1637, 11.08493
703.6458, 10.67609
704.1279, 10.56921
704.6100, 10.91122
705.0922, 11.22870
705.5743, 11.03998
706.0564, 10.49081
706.5385, 10.10385
707.0206, 9.892090
707.5027, 9.706970
707.9849, 9.458832
708.4670, 9.279083
708.9491, 9.404541
709.4312, 9.826996
709.9133, 10.05991
710.3954, 9.874603
710.8776, 9.719849
711.3597, 9.881714
711.8418, 10.11688
712.3239, 10.02194
712.8060, 9.613342
713.2881, 9.405548
713.7703, 9.877075
714.2524, 10.65787
714.7345, 10.67923
715.2166, 9.865875
715.6987, 9.337463
716.1808, 9.438416
716.6630, 9.754822
717.1451, 10.04767
717.6272, 10.25220
718.1093, 10.09061
718.5914, 9.056396
719.0735, 8.275269
719.5557, 8.342743
720.0378, 8.738037
720.5199, 8.982178
721.0020, 8.997040
721.4841, 8.823181
721.9662, 8.445923
722.4484, 7.987762
722.9305, 7.834045
723.4126, 8.029755
723.8947, 8.154144
724.3768, 8.214783
724.8589, 8.107300
725.3411, 7.479767
725.8232, 6.639618
726.3053, 6.438690
726.7874, 7.282104
727.2695, 7.968445
727.7516, 7.921356
728.2338, 7.717407
728.7159, 7.981171
729.1980, 8.521240
729.6801, 8.661194
730.1622, 8.096161
730.6443, 7.342743
731.1265, 7.290833
731.6086, 7.943298
732.0907, 7.960358
732.5728, 6.963074
733.0549, 6.361359
733.5370, 7.206207
734.0192, 8.515930
734.5013, 8.647034
734.9834, 7.419586
735.4655, 6.532013
735.9476, 6.564575
736.4297, 6.801514
736.9119, 6.990021
737.3940, 7.010986
737.8761, 6.540833
738.3582, 5.580200
738.8403, 4.821777
739.3224, 5.101807
739.8046, 6.135620
740.2867, 6.711395
740.7688, 6.825104
741.2509, 6.524353
741.7330, 5.535431
742.2151, 4.494720
742.6973, 4.243591
743.1794, 4.656311
743.6615, 4.690399
744.1436, 3.738190
744.6257, 3.046936
745.1078, 3.288635
745.5900, 3.842102
746.0721, 4.087769
746.5542, 3.974335
747.0363, 3.708008
747.5184, 3.367188
748.0005, 3.125397
748.4827, 3.486969
748.9648, 4.433594
749.4469, 4.786041
749.9290, 4.211334
750.4111, 3.575684
750.8932, 3.447418
751.3754, 3.686523
751.8575, 3.865234
752.3396, 3.959564
752.8217, 4.045624
753.3038, 4.238464
753.7859, 4.318420
754.2681, 4.047943
754.7502, 3.586212
755.2323, 3.266403
755.7144, 3.198730
756.1965, 3.121094
756.6786, 2.657394
757.1608, 1.958435
757.6429, 1.610901
758.1250, 1.647003
758.6071, 1.568542
759.0892, 1.130585
759.5714, 0.6148220
760.0535, 0.3963930
760.5356, 0.5017700
761.0177, 0.7266540
761.4998, 1.292542
761.9819, 1.693527
762.4641, 1.686401
762.9462, 1.539658
763.4283, 1.559311
763.9104, 1.717148
764.3925, 1.692871
764.8746, 1.207962
765.3568, 0.5897520
765.8389, 0.2344970
766.3210, 0.1157990
766.8031, 0.2358090
767.2852, 0.6010280
767.7673, 0.8433690
768.2495, 0.6581270
768.7316, 0.1735690
769.2137, 0.1291810
769.6958, 2.5299000E-02
770.1779, 0.1716770
770.6600, 1.119232
771.1422, 1.736511
771.6243, 1.173065
772.1064, 6.7276001E-02
772.5885, 0.5162350
773.0706, 0.2934110
773.5527, 7.0510998E-02
774.0349, 0.2539060
774.5170, 0.2708590
774.9991, 1.9745000E-02
775.4812, 0.4801940
775.9633, 0.5848540
776.4454, 0.1403200
776.9276, 0.4886780
777.4097, 0.8647160
777.8918, 0.9933620
778.3739, 1.069733
778.8560, 1.176987
779.3381, 1.041595
779.8203, 0.2787480
780.3024, 0.4720150
780.7845, 0.6861420
781.2666, 0.4323120
781.7487, 7.2356999E-02
782.2308, 0.5474090
782.7130, 0.9397580
783.1951, 0.6007690
783.6772, 7.7620998E-02
784.1593, 0.1026310
784.6414, 0.6054230
785.1235, 0.9912570
785.6057, 0.9220120
786.0878, 0.5810390
786.5699, 0.2581180
787.0520, 4.7561999E-02
787.5341, 0.4261170
788.0162, 0.9603420
788.4984, 1.257843
788.9805, 1.031235
789.4626, 0.5309750
789.9447, 0.1401980
790.4268, 0.1887210
790.9089, 0.1612550
791.3911, 0.7424620
791.8732, 1.423264
792.3553, 1.245834
792.8374, 0.7112580
793.3195, 0.3343660
793.8016, 0.2353670
794.2838, 0.3848420
794.7659, 0.9642490
795.2480, 1.523621
795.7301, 1.173767
796.2122, 0.1516720
796.6943, 0.4528960
797.1765, 0.4195400
797.6586, 0.2164310
798.1407, 0.1954190
798.6228, 0.2738040
799.1049, 0.1386870
799.5870, 0.3884580
800.0692, 0.7489620
800.5513, 0.6051330
801.0334, 0.6474760
801.5155, 1.435516
801.9976, 2.455231
802.4797, 2.883560
802.9619, 2.539200
803.4440, 2.225296
803.9261, 2.506409
804.4082, 2.847473
804.8903, 2.682220
805.3724, 2.192810
805.8546, 1.829910
806.3367, 1.707962
806.8188, 1.563202
807.3009, 1.088974
807.7830, 0.4437560
808.2651, 0.3240050
808.7473, 0.8168330
809.2294, 1.222626
809.7115, 1.345749
810.1936, 1.490417
810.6757, 1.954376
811.1578, 2.626801
811.6400, 3.061676
812.1221, 3.154388
812.6042, 3.232101
813.0863, 3.371323
813.5684, 3.478043
814.0505, 3.603790
814.5327, 3.618011
815.0148, 3.203247
815.4969, 2.297699
815.9790, 1.472397
816.4611, 1.185867
816.9432, 1.324219
817.4254, 1.848846
817.9075, 2.654678
818.3896, 3.196976
818.8717, 3.313492
819.3538, 3.179306
819.8359, 2.931976
820.3181, 2.602402
820.8002, 2.397552
821.2823, 2.252655
821.7644, 2.391220
822.2465, 3.200134
822.7286, 3.913315
823.2108, 4.020950
823.6929, 3.763062
824.1750, 3.627426
824.6571, 3.719818
825.1392, 3.810272
825.6213, 3.728699
826.1035, 3.686996
826.5856, 3.966827
827.0677, 4.389236
827.5498, 4.548584
828.0319, 4.349518
828.5140, 4.133606
828.9962, 4.332962
829.4783, 4.795425
829.9604, 4.870422
830.4425, 4.530045
830.9246, 4.329163
831.4067, 4.399338
831.8889, 4.603989
832.3710, 4.894043
832.8531, 5.217270
833.3352, 5.281219
833.8173, 4.640747
834.2994, 4.508377
834.7816, 5.417816
835.2637, 6.188553
835.7458, 6.154373
836.2279, 5.730545
836.7100, 5.624344
837.1921, 5.995102
837.6743, 6.140015
838.1564, 5.320358
838.6385, 4.390472
839.1206, 4.168320
839.6027, 4.428085
840.0848, 4.699509
840.5670, 4.869995
841.0491, 5.053391
841.5312, 5.347916
842.0133, 5.613983
842.4954, 5.401871
842.9775, 4.695145
843.4597, 4.489777
843.9418, 5.044922
844.4239, 5.644958
844.9060, 5.808533
845.3881, 5.771027
845.8702, 6.142059
846.3524, 7.273758
846.8345, 7.712021
847.3166, 6.751526
847.7987, 5.977768
848.2808, 5.942230
848.7629, 6.314529
849.2451, 6.893753
849.7272, 7.552429
850.2093, 7.908432
850.6914, 7.616043
851.1735, 7.150497
851.6556, 6.833298
852.1378, 6.653229
852.6199, 6.609955
853.1020, 6.685928
853.5841, 6.879532
854.0662, 7.205200
854.5483, 7.385147
855.0305, 6.825272
855.5126, 5.595245
855.9947, 5.201813
856.4768, 5.858429
856.9589, 6.272110
857.4410, 5.811859
857.9232, 5.193893
858.4053, 5.330704
858.8874, 6.232513
859.3695, 6.833237
859.8516, 6.903290
860.3337, 7.022614
860.8159, 7.566193
861.2980, 7.856354
861.7801, 7.078979
862.2622, 5.780930
862.7443, 5.208282
863.2264, 5.744598
863.7086, 6.412170
864.1907, 6.748398
864.6728, 6.797440
865.1549, 6.472870
865.6370, 5.985840
866.1191, 5.608093
866.6013, 5.396606
867.0834, 5.468185
867.5655, 6.051636
868.0476, 6.906738
868.5297, 7.239685
869.0118, 7.091156
869.4940, 7.081223
869.9761, 7.329773
870.4582, 7.537994
870.9403, 7.526184
871.4224, 7.306763
871.9045, 6.815048
872.3867, 5.831985
872.8688, 5.193146
873.3509, 5.089203
873.8330, 5.126968
874.3151, 5.407974
874.7972, 5.647995
875.2794, 5.423782
875.7615, 4.801346
876.2436, 4.501709
876.7257, 5.208496
877.2078, 5.704544
877.6899, 4.997284
878.1721, 3.989197
878.6542, 3.700470
879.1363, 4.074295
879.6184, 4.625488
880.1005, 5.138596
880.5826, 5.478516
881.0648, 5.409348
881.5469, 5.065857
882.0290, 4.893829
882.5111, 4.852753
882.9932, 4.351242
883.4753, 3.151138
883.9575, 2.228836
884.4396, 2.662003
884.9217, 4.095016
885.4038, 4.571060
885.8859, 3.642578
886.3680, 3.151779
886.8502, 3.618423
887.3323, 4.010300
887.8144, 3.645508
888.2965, 2.917252
888.7786, 2.439865
889.2607, 2.249146
889.7429, 2.322128
890.2250, 2.874832
890.7071, 3.427185
891.1892, 4.005539
891.6713, 4.341553
892.1534, 3.994278
892.6356, 3.130859
893.1177, 2.424255
893.5998, 2.167511
894.0819, 2.168152
894.5640, 2.556122
895.0461, 2.968689
895.5283, 2.615509
896.0104, 1.707565
896.4925, 1.225800
896.9746, 1.528915
897.4567, 2.050995
897.9388, 2.133255
898.4210, 1.899658
898.9031, 1.983017
899.3852, 2.407516
899.8673, 2.548233
900.3494, 2.200089
900.8315, 1.905884
901.3137, 2.132751
901.7958, 2.643967
902.2779, 2.765106
902.7600, 2.354141
903.2421, 2.048660
903.7242, 1.898849
904.2064, 1.789642
904.6885, 1.719269
905.1706, 1.653702
905.6527, 1.598541
906.1348, 1.532867
906.6169, 1.315659
907.0991, 0.6329960
907.5812, 0.1770630
908.0633, 0.3574070
908.5454, 0.7765350
909.0275, 1.163040
909.5096, 1.434402
909.9918, 1.542770
910.4739, 1.530548
910.9560, 1.571732
911.4381, 1.970367
911.9202, 2.389374
912.4023, 2.196182
912.8845, 1.609177
913.3666, 1.283615
913.8487, 1.333755
914.3308, 1.385788
914.8129, 1.150589
915.2950, 0.8458250
915.7772, 1.092560
916.2593, 1.879410
916.7414, 1.922348
917.2235, 0.9702000
917.7056, 0.4378510
918.1877, 1.095535
918.6699, 1.956787
919.1520, 1.667603
919.6341, 0.2297970
920.1162, 0.1987460
920.5983, 1.300629
921.0804, 2.195831
921.5626, 1.948044
922.0447, 1.300873
922.5268, 0.2424010
923.0089, 0.8256990
923.4910, 1.135330
923.9731, 0.4994200
924.4553, 0.1696620
924.9374, 0.9817050
925.4195, 1.381348
925.9016, 0.5657650
926.3837, 0.4379430
926.8658, 0.2689970
927.3480, 0.8716280
927.8301, 1.547745
928.3122, 0.9623410
928.7943, 0.2427670
929.2764, 0.3389590
929.7585, 0.8933870
930.2407, 1.654938
930.7228, 2.411911
931.2049, 2.586868
931.6870, 2.043228
932.1691, 1.315414
932.6512, 0.8362880
933.1334, 0.6124880
933.6155, 0.7027280
934.0976, 1.081192
934.5797, 1.638840
935.0618, 2.383041
935.5439, 2.741150
936.0261, 2.337585
936.5082, 1.612366
936.9903, 1.331619
937.4724, 1.487320
937.9545, 1.372299
938.4366, 0.8496860
938.9188, 0.4686580
939.4009, 0.3446040
939.8830, 0.4026030
940.3651, 0.6627810
940.8472, 1.050644
941.3293, 1.303726
941.8115, 1.397202
942.2936, 1.463623
942.7757, 1.595016
943.2578, 1.536926
943.7399, 0.8850560
944.2220, 0.2290190
944.7042, 0.4456630
945.1863, 1.355728
945.6684, 1.586121
946.1505, 9.3887001E-02
946.6326, 1.056686
947.1147, 0.5915830
947.5969, 0.3818210
948.0790, 1.122986
948.5611, 1.510605
949.0432, 1.380508
949.5253, 0.7529450
950.0074, 0.1899870
950.4896, 5.3955000E-02
950.9717, 0.2647710
951.4538, 1.049225
951.9359, 2.003143
952.4180, 2.110062
952.9001, 1.411758
953.3823, 0.8310240
953.8644, 0.8350980
954.3465, 1.074280
954.8286, 1.026031
955.3107, 0.7985990
955.7928, 0.9588010
956.2750, 1.483643
956.7571, 1.938354
957.2392, 2.240494
957.7213, 2.141739
958.2034, 1.342300
958.6855, 0.2637180
959.1677, 0.1258540
959.6498, 1.199539
960.1319, 1.651001
960.6140, 1.233765
961.0961, 0.9046330
961.5782, 1.064331
962.0604, 1.320328
962.5425, 1.238297
963.0246, 0.8768620
963.5067, 0.6912080
963.9888, 0.8358000
964.4709, 0.9055330
964.9531, 1.043747
965.4352, 0.9217530
965.9173, 1.4435000E-02
966.3994, 1.006241
966.8815, 1.024704
967.3636, 5.0140001E-02
967.8458, 0.8553010
968.3279, 1.770020
968.8100, 2.194031
969.2921, 1.584518
969.7742, 0.7864690
970.2563, 0.3949280
970.7385, 0.3319550
971.2206, 0.3640590
971.7027, 0.4329380
972.1848, 0.5420070
972.6669, 0.8179780
973.1490, 0.9992980
973.6312, 0.6821440
974.1133, 0.2692110
974.5954, 0.4993130
975.0775, 1.179688
975.5596, 1.351059
976.0417, 0.5921480
976.5239, 0.1587220
977.0060, 0.2940060
977.4881, 1.201019
977.9702, 1.246841
978.4523, 0.7384190
978.9344, 0.3485570
979.4166, 0.2409360
979.8987, 0.4118650
980.3808, 0.8787380
980.8629, 1.291855
981.3450, 1.038544
981.8271, 0.3405610
982.3093, 0.2001340
982.7914, 0.5950160
983.2735, 0.7915800
983.7556, 0.5532840
984.2377, 0.1076200
984.7198, 0.2797700
985.2020, 0.5585330
985.6841, 0.7131960
986.1662, 0.7528690
986.6483, 0.7142330
987.1304, 0.5492860
987.6125, 0.3876800
988.0947, 0.3060000
988.5768, 0.2115940
989.0589, 4.2006999E-02
989.5410, 0.4051970
990.0231, 0.4906460
990.5052, 0.1100460
990.9874, 0.1229710
991.4695, 0.2157590
991.9516, 6.0242001E-02
992.4337, 0.7644040
992.9158, 1.593384
993.3979, 1.363739
993.8801, 7.8537002E-02
994.3622, 0.6528470
994.8443, 0.4229280
995.3264, 0.2134400
995.8085, 0.2502750
996.2906, 0.2229610
996.7728, 0.1889950
997.2549, 0.7069090
997.7370, 0.9183350
998.2191, 0.7835540
998.7012, 0.4886780
999.1833, 0.2181240
999.6655, 0.6981200
1000.148, 0.5985260
1000.630, 0.2981870
1001.112, 3.4210000E-02
1001.594, 0.1580960
1002.076, 0.2517240
1002.558, 0.2733610
1003.040, 0.3890380
1003.522, 0.7584080
1004.005, 1.077484
1004.487, 1.175034
1004.969, 1.164581
1005.451, 0.9884030
1005.933, 0.7231290
1006.415, 0.6690220
1006.897, 0.9335940
1007.379, 1.161285
1007.861, 1.031616
1008.344, 0.7720950
1008.826, 0.5606690
1009.308, 0.4551090
1009.790, 0.5859070
1010.272, 0.8943630
1010.754, 1.140488
1011.236, 1.210098
1011.718, 1.153931
1012.201, 0.8507390
1012.683, 0.5531620
1013.165, 0.9186550
1013.647, 1.674606
1014.129, 1.980850
1014.611, 1.719833
1015.093, 1.184433
1015.575, 0.5130920
1016.057, 8.4747002E-02
1016.540, 0.7130280
1017.022, 1.998444
1017.504, 2.391571
1017.986, 2.010056
1018.468, 1.927383
1018.950, 2.363922
1019.432, 2.770874
1019.914, 2.758774
1020.396, 2.574127
1020.879, 2.706085
1021.361, 3.116272
1021.843, 3.351257
1022.325, 3.406586
1022.807, 3.388458
1023.289, 3.308380
1023.771, 3.249634
1024.253, 3.247009
1024.735, 3.384552
1025.218, 3.865845
1025.700, 4.702240
1026.182, 4.981415
1026.664, 4.560806
1027.146, 4.355331
1027.628, 4.567215
1028.110, 5.255280
1028.592, 6.654816
1029.075, 8.344360
1029.557, 9.141983
1030.039, 8.901581
1030.521, 8.516556
1031.003, 7.845398
1031.485, 7.425568
1031.967, 7.407944
1032.449, 7.697937
1032.932, 8.323425
1033.414, 9.123215
1033.896, 9.593887
1034.378, 9.694061
1034.860, 9.537643
1035.342, 8.995514
1035.824, 8.362473
1036.306, 7.413803
1036.788, 6.782883
1037.271, 7.051682
1037.753, 8.055008
1038.235, 9.331787
1038.717, 11.33998
1039.199, 12.33411
1039.681, 11.57123
1040.163, 10.86533
1040.645, 10.62369
1041.127, 10.65929
1041.610, 11.01239
1042.092, 11.51414
1042.574, 11.56828
1043.056, 10.90149
1043.538, 10.52916
1044.020, 10.80736
1044.502, 10.99245
1044.984, 10.69395
1045.467, 10.39374
1045.949, 10.57100
1046.431, 11.05753
1046.913, 11.32352
1047.395, 11.26430
1047.877, 11.15540
1048.359, 10.81306
1048.841, 10.69957
1049.323, 11.07469
1049.806, 11.66286
1050.288, 12.34836
1050.770, 13.02565
1051.252, 13.46594
1051.734, 13.61063
1052.216, 13.60558
1052.698, 13.48915
1053.180, 13.30737
1053.662, 13.01523
1054.145, 12.70512
1054.627, 12.30298
1055.109, 11.97536
1055.591, 12.21165
1056.073, 13.23283
1056.555, 13.99828
1057.037, 13.94839
1057.519, 13.89722
1058.002, 14.33383
1058.484, 14.85281
1058.966, 15.14497
1059.448, 15.18739
1059.930, 14.96771
1060.412, 14.44955
1060.894, 14.03346
1061.376, 13.80220
1061.859, 13.77338
1062.341, 14.12505
1062.823, 14.53094
1063.305, 14.63368
1063.787, 14.58095
1064.269, 14.84296
1064.751, 15.53908
1065.233, 15.78198
1065.715, 14.89221
1066.198, 13.89886
1066.680, 12.89722
1067.162, 12.36235
1067.644, 13.08566
1068.126, 14.45555
1068.608, 15.34435
1069.090, 15.52005
1069.572, 15.32292
1070.054, 14.42056
1070.537, 13.79513
1071.019, 14.37184
1071.501, 14.99878
1071.983, 14.36952
1072.465, 13.20967
1072.947, 13.01311
1073.429, 13.95430
1073.911, 14.63664
1074.394, 14.27507
1074.876, 13.83122
1075.358, 13.71390
1075.840, 13.74417
1076.322, 13.83815
1076.804, 13.95094
1077.286, 14.02573
1077.768, 14.06279
1078.250, 14.12909
1078.733, 14.26559
1079.215, 14.40865
1079.697, 14.67932
1080.179, 14.78941
1080.661, 14.35342
1081.143, 13.71834
1081.625, 13.38574
1082.107, 13.36993
1082.590, 13.33205
1083.072, 13.09685
1083.554, 12.98009
1084.036, 13.20514
1084.518, 13.50812
1085.000, 13.82071
1085.482, 14.03416
1085.964, 13.85278
1086.447, 13.45177
1086.929, 13.55792
1087.411, 14.56363
1087.893, 15.33577
1088.375, 15.35823
1088.857, 15.07030
1089.339, 14.57298
1089.821, 14.02211
1090.303, 13.61615
1090.786, 13.27957
1091.268, 12.69177
1091.750, 11.70178
1092.232, 11.02864
1092.714, 11.13199
1093.196, 11.37088
1093.678, 11.63622
1094.160, 11.73589
1094.642, 11.45264
1095.125, 10.94414
1095.607, 10.46938
1096.089, 10.07173
1096.571, 9.962158
1097.053, 10.65535
1097.535, 11.02982
1098.017, 10.38513
1098.499, 9.588776
1098.982, 9.157700
1099.464, 9.045135
1099.946, 9.280258
1100.428, 9.850159
1100.910, 10.29828
1101.392, 10.54135
1101.874, 10.59013
1102.356, 10.32309
1102.839, 9.997345
1103.321, 9.785431
1103.803, 9.574951
1104.285, 9.142456
1104.767, 8.546768
1105.249, 8.234009
1105.731, 8.420929
1106.213, 8.470627
1106.695, 8.123764
1107.177, 7.897217
1107.660, 8.006195
1108.142, 8.201508
1108.624, 8.423050
1109.106, 8.636627
1109.588, 8.644257
1110.070, 8.262665
1110.552, 8.027725
1111.034, 8.355225
1111.517, 8.372940
1111.999, 7.553070
1112.481, 6.669098
1112.963, 6.277084
1113.445, 6.197464
1113.927, 6.051636
1114.409, 5.814377
1114.891, 5.695953
1115.374, 5.839554
1115.856, 5.864380
1116.338, 5.551208
1116.820, 5.315857
1117.302, 5.466156
1117.784, 5.732025
1118.266, 5.696716
1118.748, 5.382370
1119.230, 5.291824
1119.713, 5.469742
1120.195, 5.801773
1120.677, 6.497131
1121.159, 6.866714
1121.641, 6.574966
1122.123, 5.973160
1122.605, 5.368500
1123.087, 4.770874
1123.569, 4.204361
1124.052, 3.581024
1124.534, 3.428970
1125.016, 3.913162
1125.498, 4.276917
1125.980, 4.351242
1126.462, 4.109665
1126.944, 3.458542
1127.426, 2.651031
1127.909, 2.161087
1128.391, 1.967178
1128.873, 1.786591
1129.355, 1.598816
1129.837, 1.726212
1130.319, 2.269974
1130.801, 2.648727
1131.283, 2.542175
1131.766, 2.290161
1132.248, 2.276505
1132.730, 2.425125
1133.212, 2.310181
1133.694, 1.959930
1134.176, 1.740677
1134.658, 1.678696
1135.140, 1.556274
1135.622, 1.299576
1136.104, 1.095306
1136.587, 1.104828
1137.069, 1.285202
1137.551, 1.622986
1138.033, 2.048981
1138.515, 2.403976
1138.997, 2.624084
1139.479, 2.363678
1139.961, 1.645096
1140.444, 1.121628
1140.926, 1.172150
1141.408, 1.429794
1141.890, 1.473419
1142.372, 1.424377
1142.854, 1.433380
1143.336, 1.530045
1143.818, 1.899963
1144.301, 2.392410
1144.783, 2.451263
1145.265, 1.908035
1145.747, 1.317337
1146.229, 1.140793
1146.711, 1.040634
1147.193, 0.6233060
1147.675, 0.1476440
1148.157, 0.1598510
1148.640, 0.2529910
1149.122, 6.5552004E-02
1149.604, 0.6791690
1150.086, 0.8612210
1150.568, 9.9518001E-02
1151.050, 0.5010530
1151.532, 0.1258700
1152.014, 0.4269100
1152.496, 0.6787260
1152.979, 0.7367860
1153.461, 0.6888120
1153.943, 0.6168060
1154.425, 0.6796880
1154.907, 1.012894
1155.389, 0.9721070
1155.871, 0.1498260
1156.353, 0.9312290
1156.836, 0.6480100
1157.318, 0.1919710
1157.800, 0.1612850
1158.282, 0.3246610
1158.764, 0.3645780
1159.246, 0.2651980
1159.728, 2.3190000E-03
1160.210, 0.7487490
1160.693, 1.178467
1161.175, 1.289581
1161.657, 1.064407
1162.139, 0.1882780
1162.621, 0.6522060
1163.103, 0.8006130
1163.585, 0.5208440
1164.067, 0.5771790
1164.549, 1.086578
1165.031, 1.031570
1165.514, 0.1165010
1165.996, 0.2479550
1166.478, 0.3724670
1166.960, 0.8957210
1167.442, 0.7536320
1167.924, 0.1427760
1168.406, 0.7646180
1168.888, 1.760635
1169.371, 1.734161
1169.853, 0.7344360
1170.335, 0.7906190
1170.817, 2.010635
1171.299, 2.489334
1171.781, 1.634842
1172.263, 0.5324710
1172.745, 2.7710000E-02
1173.228, 0.1545870
1173.710, 0.1014560
1174.192, 0.6134800
1174.674, 1.057907
1175.156, 1.420258
1175.638, 1.720474
1176.120, 1.926880
1176.602, 1.811462
1177.084, 1.299438
1177.567, 0.8874210
1178.049, 1.122665
1178.531, 1.468307
1179.013, 1.153000
1179.495, 0.7068020
1179.977, 0.9586790
1180.459, 1.580139
1180.941, 1.839478
1181.423, 1.645721
1181.906, 1.374222
1182.388, 1.142883
1182.870, 1.028305
1183.352, 1.316681
1183.834, 1.445007
1184.316, 0.7613830
1184.798, 1.0406000E-02
1185.280, 5.4469998E-03
1185.763, 0.4926760
1186.245, 0.8434750
1186.727, 0.9707950
1187.209, 1.058273
1187.691, 1.282791
1188.173, 1.235580
1188.655, 0.3661500
1189.137, 0.1528020
1189.620, 0.3747860
1190.102, 1.246109
1190.584, 1.878662
1191.066, 2.272156
1191.548, 2.403046
1192.030, 2.233337
1192.512, 1.936737
1192.994, 1.390396
1193.476, 1.220078
1193.958, 1.671692
1194.441, 1.970352
1194.923, 1.634995
1195.405, 1.122467
1195.887, 1.076004
1196.369, 1.337509
1196.851, 1.198654
1197.333, 0.7261510
1197.815, 0.5424350
1198.298, 0.7137600
1198.780, 1.687546
1199.262, 3.455673
1199.744, 4.326874
1200.226, 3.098328
1200.708, 1.260818
1201.190, 0.6730800
1201.672, 0.8151550
1202.155, 0.9186550
1202.637, 1.002411
1203.119, 1.216629
1203.601, 1.467255
1204.083, 1.359802
1204.565, 0.8450620
1205.047, 0.5775300
1205.529, 1.104019
1206.011, 1.600998
1206.494, 1.459732
1206.976, 1.190140
1207.458, 1.126572
1207.940, 1.170135
1208.422, 1.201584
1208.904, 1.197327
1209.386, 1.249100
1209.868, 1.403442
1210.350, 1.290817
1210.833, 0.2725680
1211.315, 0.1496890
1211.797, 0.9990230
1212.279, 1.919373
1212.761, 1.643921
1213.243, 0.8933410
1213.725, 0.4010160
1214.207, 0.1352690
1214.690, 0.1835630
1215.172, 0.6634830
1215.654, 0.7791290
1216.136, 0.4360500
1216.618, 0.3329320
1217.100, 0.6764370
1217.582, 0.8900450
1218.064, 0.5662690
1218.547, 0.1356960
1219.029, 0.1678920
1219.511, 0.4907680
1219.993, 0.6292880
1220.475, 0.5959470
1220.957, 0.5369260
1221.439, 0.5005800
1221.921, 0.5465550
1222.403, 0.6374050
1222.885, 0.6322330
1223.368, 0.4730070
1223.850, 0.2696840
1224.332, 0.1249240
1224.814, 3.5934001E-02
1225.296, 0.3441930
1225.778, 0.4652710
1226.260, 0.1074520
1226.742, 0.4600680
1227.225, 0.7383420
1227.707, 0.6492770
1228.189, 0.4504090
1228.671, 0.2021480
1229.153, 6.1675999E-02
1229.635, 8.5860997E-02
1230.117, 0.1870730
1230.599, 0.3856660
1231.082, 0.6055300
1231.564, 0.7716520
1232.046, 0.9313510
1232.528, 1.172546
1233.010, 1.490662
1233.492, 1.512268
1233.974, 1.068405
1234.456, 0.9651030
1234.938, 1.337799
1235.421, 1.828766
1235.903, 2.360474
1236.385, 2.501831
1236.867, 1.999680
1237.349, 1.179779
1237.831, 0.5848850
1238.313, 0.2259830
1238.795, 0.2825470
1239.277, 0.6121370
1239.760, 0.8547970
1240.242, 0.9535680
1240.724, 0.8079990
1241.206, 0.5030980
1241.688, 0.5668180
1242.170, 1.461533
1242.652, 2.251984
1243.134, 2.037354
1243.617, 1.555725
1244.099, 1.228500
1244.581, 1.135498
1245.063, 1.442795
1245.545, 1.907959
1246.027, 1.971588
1246.509, 1.554276
1246.991, 1.303833
1247.474, 1.511673
1247.956, 1.700836
1248.438, 1.614929
1248.920, 1.483643
1249.402, 1.482559
1249.884, 1.502090
1250.366, 1.608276
1250.848, 1.705215
1251.330, 1.841782
1251.813, 2.032745
1252.295, 1.886230
1252.777, 1.420059
1253.259, 1.055862
1253.741, 0.7983700
1254.223, 0.6780240
1254.705, 0.7487180
1255.187, 0.9479830
1255.669, 0.9617160
1256.152, 0.8588260
1256.634, 0.7460940
1257.116, 0.7744140
1257.598, 1.325104
1258.080, 1.938568
1258.562, 1.664719
1259.044, 0.9039760
1259.526, 0.7972110
1260.009, 1.463440
1260.491, 1.958755
1260.973, 1.888275
1261.455, 1.866440
1261.937, 2.026810
1262.419, 2.170319
1262.901, 2.500702
1263.383, 2.642960
1263.865, 2.124084
1264.348, 1.478485
1264.830, 1.507767
1265.312, 2.092560
1265.794, 2.217896
1266.276, 1.765701
1266.758, 1.403061
1267.240, 1.136047
1267.722, 1.337509
1268.204, 2.087463
1268.687, 2.465500
1269.169, 1.965454
1269.651, 1.216110
1270.133, 1.007339
1270.615, 1.071030
1271.097, 0.6828160
1271.579, 0.1388700
1272.061, 1.9516001E-02
1272.544, 0.2328030
1273.026, 0.7628330
1273.508, 1.391113
1273.990, 1.367905
1274.472, 0.4286190
1274.954, 0.1862490
1275.436, 0.5234830
1275.918, 1.140472
1276.401, 0.7246250
1276.883, 0.3498540
1277.365, 0.7687230
1277.847, 1.405838
1278.329, 1.856979
1278.811, 2.005173
1279.293, 1.582703
1279.775, 1.151794
1280.257, 0.8917850
1280.740, 1.020050
1281.222, 0.8665770
1281.704, 0.3637850
1282.186, 2.7770000E-03
1282.668, 0.0000000E+00
##END=



