##NAMES=Sassolite
##RRUFFID=R060496
##IDEAL CHEMISTRY=B(OH)_3_
##LOCALITY=Upper Biddy mine, near Ryan, Death Valley, Inyo County, California, USA
##OWNER=RRUFF
##SOURCE=Michael Scott
##DESCRIPTION=Colorless thin pseudohexagonal single crystals
##STATUS=The identification of this mineral has been confirmed by single-crystal X-ray diffraction.
##URL=rruff.info/R060496
111.8088, 1177.578
112.2909, 1178.459
112.7731, 1180.953
113.2552, 1184.738
113.7373, 1189.146
114.2194, 1193.140
114.7015, 1195.832
115.1836, 1199.913
115.6658, 1206.730
116.1479, 1214.267
116.6300, 1220.302
117.1121, 1223.984
117.5942, 1226.588
118.0763, 1231.450
118.5584, 1240.472
119.0406, 1247.471
119.5227, 1250.309
120.0048, 1249.694
120.4869, 1247.631
120.9690, 1245.270
121.4511, 1241.406
121.9333, 1234.395
122.4154, 1223.179
122.8975, 1210.627
123.3796, 1199.498
123.8617, 1190.011
124.3438, 1179.774
124.8260, 1166.535
125.3081, 1152.377
125.7902, 1138.900
126.2723, 1126.556
126.7544, 1115.488
127.2365, 1106.075
127.7187, 1097.957
128.2008, 1092.485
128.6829, 1090.461
129.1650, 1090.697
129.6471, 1091.838
130.1292, 1093.240
130.6114, 1094.814
131.0935, 1095.154
131.5756, 1093.502
132.0577, 1091.265
132.5398, 1088.765
133.0219, 1085.951
133.5041, 1082.742
133.9862, 1079.210
134.4683, 1075.607
134.9504, 1069.251
135.4325, 1059.830
135.9146, 1048.545
136.3968, 1035.667
136.8789, 1021.407
137.3610, 1006.379
137.8431, 991.3795
138.3252, 976.3204
138.8073, 961.3649
139.2895, 945.9183
139.7716, 930.7635
140.2537, 917.0141
140.7358, 905.1706
141.2179, 893.9787
141.7000, 881.6000
142.1821, 868.1441
142.6643, 855.5389
143.1464, 844.8837
143.6285, 835.8007
144.1106, 826.8198
144.5927, 817.4710
145.0748, 808.3931
145.5570, 799.8522
146.0391, 791.8824
146.5212, 784.7307
147.0033, 778.8483
147.4854, 774.3528
147.9675, 769.8925
148.4497, 765.3116
148.9318, 760.5811
149.4139, 755.5399
149.8960, 750.2022
150.3781, 744.8480
150.8602, 739.8839
151.3424, 735.1211
151.8245, 731.1761
152.3066, 728.4772
152.7887, 726.2123
153.2708, 723.7063
153.7529, 720.7248
154.2351, 717.5109
154.7172, 714.6790
155.1993, 712.5336
155.6814, 710.4776
156.1635, 708.9579
156.6456, 707.3733
157.1278, 704.7703
157.6099, 700.5898
158.0920, 695.4424
158.5741, 692.0120
159.0562, 691.4595
159.5383, 691.0250
160.0205, 690.1257
160.5026, 688.8643
160.9847, 687.4817
161.4668, 686.0824
161.9489, 684.6948
162.4310, 683.4515
162.9131, 682.6081
163.3953, 681.6652
163.8774, 680.2770
164.3595, 678.4794
164.8416, 676.6102
165.3237, 674.6275
165.8058, 672.8121
166.2880, 671.7667
166.7701, 672.2010
167.2522, 672.9183
167.7343, 672.3448
168.2164, 670.1660
168.6985, 668.1990
169.1807, 667.7791
169.6628, 668.1462
170.1449, 668.4362
170.6270, 668.2814
171.1091, 667.8796
171.5912, 667.7061
172.0734, 667.9030
172.5555, 668.0740
173.0376, 667.9562
173.5197, 667.7382
174.0018, 667.6801
174.4839, 667.9271
174.9661, 668.4616
175.4482, 669.1783
175.9303, 670.2278
176.4124, 671.3187
176.8945, 672.2924
177.3766, 673.2537
177.8588, 674.3251
178.3409, 675.5381
178.8230, 676.8917
179.3051, 679.1208
179.7872, 683.5702
180.2693, 687.5737
180.7515, 690.2074
181.2336, 691.6797
181.7157, 692.6510
182.1978, 693.6432
182.6799, 694.6443
183.1620, 695.7771
183.6441, 696.7495
184.1263, 698.0557
184.6084, 700.0529
185.0905, 702.6736
185.5726, 705.5824
186.0547, 708.6179
186.5368, 711.8492
187.0190, 713.8301
187.5011, 714.1782
187.9832, 713.6156
188.4653, 712.1973
188.9474, 710.0168
189.4296, 708.1635
189.9117, 707.8220
190.3938, 708.9885
190.8759, 710.2737
191.3580, 710.8067
191.8401, 711.7235
192.3223, 714.6683
192.8044, 720.1194
193.2865, 726.0945
193.7686, 730.6228
194.2507, 734.1114
194.7328, 737.6392
195.2150, 741.2758
195.6971, 745.2205
196.1792, 749.8929
196.6613, 755.3855
197.1434, 761.5219
197.6255, 768.4007
198.1077, 775.8193
198.5898, 783.1461
199.0719, 789.6074
199.5540, 795.6276
200.0361, 802.9450
200.5182, 811.8071
201.0004, 821.9181
201.4825, 833.0923
201.9646, 845.1696
202.4467, 857.6528
202.9288, 870.2168
203.4109, 882.8968
203.8930, 895.8850
204.3752, 909.2227
204.8573, 922.8275
205.3394, 936.7338
205.8215, 950.8146
206.3036, 964.9654
206.7857, 979.2487
207.2679, 993.7466
207.7500, 1006.789
208.2321, 1018.338
208.7142, 1028.350
209.1963, 1037.376
209.6784, 1044.863
210.1606, 1049.583
210.6427, 1050.420
211.1248, 1047.242
211.6069, 1041.086
212.0890, 1032.414
212.5711, 1020.760
213.0533, 1005.488
213.5354, 986.9121
214.0175, 965.6343
214.4996, 941.9641
214.9817, 915.4023
215.4638, 889.6475
215.9460, 864.0587
216.4281, 839.5491
216.9102, 816.2765
217.3923, 794.4135
217.8744, 773.9241
218.3565, 754.8330
218.8387, 737.2246
219.3208, 721.9083
219.8029, 708.8503
220.2850, 697.6966
220.7671, 688.7930
221.2492, 681.8929
221.7314, 675.6342
222.2135, 668.7690
222.6956, 661.2955
223.1777, 655.0410
223.6598, 650.8185
224.1419, 647.1870
224.6240, 643.1240
225.1062, 638.5698
225.5883, 634.0149
226.0704, 629.7941
226.5525, 625.9454
227.0346, 622.3741
227.5167, 619.0845
227.9989, 616.0759
228.4810, 613.5538
228.9631, 611.5510
229.4452, 609.4370
229.9273, 606.6807
230.4094, 603.4631
230.8916, 600.2750
231.3737, 597.0765
231.8558, 594.0169
232.3379, 591.3875
232.8200, 589.2656
233.3021, 587.0251
233.7843, 583.8372
234.2664, 580.3387
234.7485, 577.5619
235.2306, 576.0565
235.7127, 575.1380
236.1948, 573.8533
236.6770, 572.0923
237.1591, 570.3901
237.6412, 568.9567
238.1233, 567.7512
238.6054, 566.8116
239.0875, 566.2890
239.5697, 565.8358
240.0518, 564.9441
240.5339, 563.6064
241.0160, 561.8170
241.4981, 558.7606
241.9802, 555.6064
242.4624, 553.6720
242.9445, 553.6088
243.4266, 554.3196
243.9087, 553.8187
244.3908, 551.5683
244.8729, 549.5624
245.3550, 548.4666
245.8372, 547.7678
246.3193, 547.1115
246.8014, 546.3864
247.2835, 545.5458
247.7656, 544.5226
248.2477, 543.3833
248.7299, 541.8648
249.2120, 539.4069
249.6941, 536.9069
250.1762, 535.1445
250.6583, 534.3405
251.1404, 533.9986
251.6226, 533.2571
252.1047, 531.8536
252.5868, 530.6599
253.0689, 530.0617
253.5510, 529.4750
254.0331, 528.3652
254.5153, 526.6466
254.9974, 524.7753
255.4795, 523.4895
255.9616, 523.2205
256.4437, 522.6222
256.9258, 521.2262
257.4080, 519.8716
257.8901, 519.2209
258.3722, 519.3349
258.8543, 519.6772
259.3364, 519.5088
259.8185, 518.5703
260.3007, 517.7549
260.7828, 517.0570
261.2649, 516.4475
261.7470, 515.7504
262.2291, 515.0359
262.7112, 514.7292
263.1934, 515.4895
263.6755, 518.0546
264.1576, 518.8698
264.6397, 516.8925
265.1218, 514.4066
265.6039, 512.5889
266.0861, 511.5096
266.5682, 510.6162
267.0503, 509.3554
267.5324, 507.6302
268.0145, 506.1904
268.4966, 504.9353
268.9788, 503.9832
269.4609, 503.7260
269.9430, 503.9235
270.4251, 503.7880
270.9072, 502.6100
271.3893, 500.3473
271.8715, 498.4898
272.3536, 496.8895
272.8357, 495.7357
273.3178, 495.4448
273.7999, 495.7193
274.2820, 495.7668
274.7642, 495.0012
275.2463, 493.5163
275.7284, 492.5034
276.2105, 492.2447
276.6926, 492.0229
277.1747, 491.5967
277.6568, 491.0220
278.1389, 490.4450
278.6211, 489.9442
279.1032, 489.5031
279.5853, 489.0491
280.0674, 488.5360
280.5495, 488.0653
281.0316, 487.7896
281.5138, 487.5607
281.9959, 487.0379
282.4780, 486.0235
282.9601, 484.8042
283.4422, 484.1839
283.9243, 484.4884
284.4065, 484.6701
284.8886, 484.4506
285.3707, 484.0009
285.8528, 483.5705
286.3349, 483.2429
286.8170, 482.9409
287.2992, 482.5059
287.7813, 481.8701
288.2634, 481.3475
288.7455, 481.1891
289.2276, 481.0904
289.7097, 480.5743
290.1919, 479.5141
290.6740, 478.4204
291.1561, 477.9701
291.6382, 478.2658
292.1203, 478.4263
292.6024, 478.5025
293.0846, 478.3279
293.5667, 477.5473
294.0488, 476.1304
294.5309, 474.7852
295.0130, 474.2114
295.4951, 474.4370
295.9773, 474.5460
296.4594, 474.4973
296.9415, 474.3265
297.4236, 473.9637
297.9057, 473.4388
298.3878, 473.0496
298.8700, 473.1086
299.3521, 473.4890
299.8342, 473.4223
300.3163, 472.5303
300.7984, 471.5451
301.2805, 470.8491
301.7627, 470.4152
302.2448, 470.1256
302.7269, 470.0135
303.2090, 469.9281
303.6911, 469.4220
304.1732, 468.2146
304.6554, 467.0883
305.1375, 466.5290
305.6196, 466.3292
306.1017, 465.9127
306.5838, 465.0052
307.0659, 463.8965
307.5481, 463.1301
308.0302, 462.6815
308.5123, 462.4977
308.9944, 462.7715
309.4765, 463.2584
309.9586, 463.5605
310.4408, 463.5849
310.9229, 463.3698
311.4050, 462.8806
311.8871, 462.1082
312.3692, 461.3831
312.8513, 460.5131
313.3335, 459.8394
313.8156, 459.9821
314.2977, 461.0633
314.7798, 462.1108
315.2619, 462.1410
315.7440, 461.2077
316.2262, 460.4608
316.7083, 460.2382
317.1904, 460.0583
317.6725, 459.3924
318.1546, 458.2714
318.6367, 457.3504
319.1188, 457.1638
319.6010, 457.5369
320.0831, 457.5346
320.5652, 456.7003
321.0473, 455.9559
321.5294, 455.9236
322.0115, 456.4336
322.4937, 456.9067
322.9758, 457.1099
323.4579, 457.0653
323.9400, 456.8427
324.4221, 456.4926
324.9042, 455.9186
325.3864, 454.8676
325.8685, 453.6007
326.3506, 452.5966
326.8327, 452.0094
327.3148, 451.7134
327.7969, 451.6074
328.2791, 451.7602
328.7612, 451.6993
329.2433, 451.1597
329.7254, 450.4450
330.2075, 449.8979
330.6896, 449.5774
331.1718, 449.3742
331.6539, 449.2025
332.1360, 449.0656
332.6181, 448.8928
333.1002, 448.6674
333.5823, 448.4170
334.0645, 448.0934
334.5466, 447.7281
335.0287, 447.5403
335.5108, 447.7910
335.9929, 448.3454
336.4750, 448.2785
336.9572, 446.7345
337.4393, 445.5300
337.9214, 445.8014
338.4035, 447.0065
338.8856, 447.8420
339.3677, 447.6890
339.8499, 446.8378
340.3320, 446.0252
340.8141, 445.2387
341.2962, 444.5030
341.7783, 443.7226
342.2604, 443.0298
342.7426, 442.6826
343.2247, 442.7572
343.7068, 442.9313
344.1889, 442.7115
344.6710, 441.8026
345.1531, 441.4252
345.6353, 442.1404
346.1174, 443.0109
346.5995, 443.3163
347.0816, 443.0116
347.5637, 442.4687
348.0458, 442.0057
348.5280, 441.6279
349.0101, 441.1831
349.4922, 440.8293
349.9743, 440.2706
350.4564, 439.1358
350.9385, 437.6953
351.4207, 436.5661
351.9028, 436.1317
352.3849, 436.2451
352.8670, 436.2820
353.3491, 436.1171
353.8312, 436.0330
354.3134, 436.0968
354.7955, 436.2472
355.2776, 436.5175
355.7597, 436.9020
356.2418, 437.1409
356.7239, 436.7631
357.2061, 435.3313
357.6882, 434.1432
358.1703, 433.2627
358.6524, 432.5478
359.1345, 431.8696
359.6166, 431.2375
360.0987, 430.8005
360.5808, 430.7295
361.0630, 431.0713
361.5451, 431.3131
362.0272, 431.6893
362.5093, 431.7329
362.9914, 430.9972
363.4735, 429.8312
363.9557, 428.8784
364.4378, 428.5273
364.9199, 428.6862
365.4020, 428.9896
365.8841, 429.7824
366.3662, 430.2278
366.8484, 429.9496
367.3305, 429.4408
367.8126, 429.2487
368.2947, 429.5289
368.7768, 429.9170
369.2589, 429.8428
369.7411, 429.1866
370.2232, 428.3731
370.7053, 427.0228
371.1874, 425.8530
371.6695, 425.3208
372.1516, 425.3691
372.6338, 425.5930
373.1159, 425.7368
373.5980, 425.7900
374.0801, 425.3446
374.5622, 423.6577
375.0443, 422.3955
375.5265, 422.2775
376.0086, 422.8714
376.4907, 423.5669
376.9728, 424.1357
377.4549, 424.4842
377.9370, 424.3327
378.4192, 423.4793
378.9013, 422.6969
379.3834, 422.1426
379.8655, 421.7741
380.3476, 421.6056
380.8297, 421.6378
381.3119, 421.7650
381.7940, 422.0117
382.2761, 422.3700
382.7582, 422.2812
383.2403, 421.3784
383.7224, 420.3483
384.2046, 419.5095
384.6867, 418.9085
385.1688, 418.6706
385.6509, 419.3688
386.1330, 420.3939
386.6151, 420.0810
387.0973, 417.9705
387.5794, 416.1819
388.0615, 416.4448
388.5436, 417.6494
389.0257, 418.2084
389.5078, 417.5638
389.9900, 416.6879
390.4721, 416.3739
390.9542, 416.5806
391.4363, 417.0816
391.9184, 418.0620
392.4005, 418.9746
392.8827, 419.0119
393.3648, 418.1387
393.8469, 417.1796
394.3290, 416.3155
394.8111, 415.6138
395.2932, 415.2889
395.7754, 415.4061
396.2575, 415.5082
396.7396, 415.0992
397.2217, 414.2499
397.7038, 413.7747
398.1859, 414.1126
398.6681, 414.4776
399.1501, 414.2803
399.6323, 413.6494
400.1144, 413.0808
400.5965, 412.8196
401.0786, 412.7826
401.5607, 412.7424
402.0428, 412.6403
402.5250, 412.6296
403.0071, 412.8534
403.4892, 413.1263
403.9713, 413.2397
404.4534, 413.1447
404.9355, 412.8989
405.4177, 412.5269
405.8998, 411.9430
406.3819, 411.7168
406.8640, 412.1240
407.3461, 412.5793
407.8282, 412.8594
408.3104, 412.9513
408.7925, 412.8755
409.2746, 412.6276
409.7567, 412.2619
410.2388, 412.0282
410.7209, 412.1896
411.2031, 412.1373
411.6852, 411.6557
412.1673, 411.0333
412.6494, 410.4660
413.1315, 410.0363
413.6136, 409.8422
414.0958, 410.1664
414.5779, 411.3337
415.0600, 411.7101
415.5421, 410.5747
416.0242, 409.2961
416.5063, 408.2357
416.9885, 407.4533
417.4706, 406.9957
417.9527, 406.9576
418.4348, 407.1997
418.9169, 407.1805
419.3990, 406.6418
419.8812, 406.4275
420.3633, 407.2852
420.8454, 408.3038
421.3275, 408.5349
421.8096, 407.7336
422.2917, 406.6951
422.7739, 406.2524
423.2560, 406.3736
423.7381, 406.3826
424.2202, 406.0843
424.7023, 405.7822
425.1844, 405.8250
425.6666, 406.0862
426.1487, 406.0981
426.6308, 405.5439
427.1129, 404.6807
427.5950, 403.7699
428.0771, 402.7864
428.5593, 402.1495
429.0414, 402.1849
429.5235, 402.6905
430.0056, 403.1900
430.4877, 403.8097
430.9698, 404.1401
431.4520, 403.7757
431.9341, 403.0116
432.4162, 402.4087
432.8983, 402.1039
433.3804, 402.0247
433.8625, 402.2108
434.3447, 402.7395
434.8268, 402.7185
435.3089, 401.4465
435.7910, 400.1860
436.2731, 399.9833
436.7552, 400.5727
437.2374, 400.9025
437.7195, 400.3280
438.2016, 399.1039
438.6837, 398.2100
439.1658, 397.5473
439.6479, 397.3586
440.1301, 398.0800
440.6122, 399.0488
441.0943, 399.6687
441.5764, 399.8096
442.0585, 399.6808
442.5406, 399.4912
443.0227, 399.2232
443.5049, 399.0328
443.9870, 398.9369
444.4691, 398.9069
444.9512, 399.2079
445.4333, 399.5172
445.9154, 399.2061
446.3976, 397.8797
446.8797, 396.1371
447.3618, 395.3747
447.8439, 395.9321
448.3260, 396.4584
448.8081, 396.6949
449.2903, 396.8302
449.7724, 396.9842
450.2545, 397.1580
450.7366, 397.2641
451.2187, 397.0924
451.7008, 396.7678
452.1830, 396.9131
452.6651, 397.7459
453.1472, 398.5249
453.6293, 398.8737
454.1114, 398.8733
454.5935, 398.5435
455.0757, 397.7478
455.5578, 396.8976
456.0399, 396.2214
456.5220, 395.7506
457.0041, 395.6617
457.4862, 396.0960
457.9684, 396.7383
458.4505, 397.2262
458.9326, 397.5726
459.4147, 397.7767
459.8968, 397.9624
460.3789, 397.9173
460.8611, 397.1217
461.3432, 395.7785
461.8253, 395.0579
462.3074, 395.8476
462.7895, 397.6352
463.2716, 398.2794
463.7538, 396.8392
464.2359, 395.5760
464.7180, 394.5360
465.2001, 393.8940
465.6822, 393.9914
466.1643, 394.8094
466.6465, 395.8144
467.1286, 396.4098
467.6107, 396.5401
468.0928, 396.8197
468.5749, 397.8122
469.0570, 398.3379
469.5392, 397.6430
470.0213, 396.3906
470.5034, 395.6037
470.9855, 395.7442
471.4676, 396.3256
471.9497, 396.4565
472.4319, 395.9947
472.9140, 395.7135
473.3961, 395.8557
473.8782, 396.1068
474.3603, 396.2758
474.8424, 396.3893
475.3246, 396.5967
475.8067, 396.9958
476.2888, 397.5464
476.7709, 398.1899
477.2530, 398.9398
477.7351, 399.6738
478.2173, 400.1894
478.6994, 400.7491
479.1815, 401.6669
479.6636, 402.8914
480.1457, 404.6973
480.6278, 407.1104
481.1100, 410.2281
481.5920, 414.3407
482.0742, 419.5181
482.5563, 425.2687
483.0384, 431.2686
483.5205, 437.5094
484.0026, 443.8022
484.4847, 450.3288
484.9669, 456.6885
485.4490, 463.1237
485.9311, 469.2242
486.4132, 474.0811
486.8953, 477.3854
487.3774, 480.0006
487.8596, 483.2708
488.3417, 487.2583
488.8238, 491.8638
489.3059, 496.6387
489.7880, 502.3267
490.2701, 509.1878
490.7523, 517.2413
491.2344, 526.4676
491.7165, 536.8580
492.1986, 548.3138
492.6807, 560.5380
493.1628, 573.3746
493.6450, 587.3323
494.1271, 601.5036
494.6092, 617.5105
495.0913, 636.3085
495.5734, 658.0060
496.0555, 682.7772
496.5377, 711.0930
497.0198, 742.3738
497.5019, 775.3997
497.9840, 810.6282
498.4661, 845.7333
498.9482, 882.7781
499.4304, 917.7013
499.9125, 944.2609
500.3946, 964.1639
500.8767, 970.9981
501.3588, 960.6348
501.8409, 935.4276
502.3231, 896.5881
502.8052, 844.2795
503.2873, 787.3798
503.7694, 733.3191
504.2515, 681.8226
504.7336, 636.0612
505.2158, 595.6544
505.6979, 560.6568
506.1800, 531.9431
506.6621, 508.3440
507.1442, 488.7894
507.6263, 472.7883
508.1085, 459.6440
508.5906, 448.4738
509.0727, 439.4017
509.5548, 431.8263
510.0369, 426.5019
510.5190, 421.9465
511.0012, 417.7871
511.4833, 413.9516
511.9654, 410.4056
512.4475, 407.1219
512.9296, 404.1361
513.4117, 401.5815
513.8939, 399.5075
514.3760, 397.3936
514.8581, 394.8777
515.3402, 392.5470
515.8223, 390.8721
516.3044, 389.8105
516.7866, 389.0415
517.2687, 388.7725
517.7508, 388.5243
518.2329, 387.5648
518.7150, 385.9390
519.1971, 384.3546
519.6793, 383.1372
520.1614, 382.1669
520.6435, 381.2014
521.1256, 380.1924
521.6077, 379.3048
522.0898, 378.4844
522.5720, 377.8550
523.0541, 377.7186
523.5362, 377.9546
524.0183, 377.9640
524.5004, 377.2699
524.9825, 376.0590
525.4647, 375.2924
525.9468, 375.3833
526.4289, 375.3563
526.9110, 375.1691
527.3931, 374.8096
527.8752, 374.1801
528.3574, 373.3286
528.8395, 372.5105
529.3216, 371.9649
529.8037, 371.6512
530.2858, 371.3153
530.7679, 370.9470
531.2501, 370.5820
531.7322, 370.0833
532.2143, 369.6706
532.6964, 369.6666
533.1785, 370.1873
533.6606, 370.6378
534.1428, 370.6093
534.6249, 370.2379
535.1070, 369.7734
535.5891, 369.2379
536.0712, 368.7228
536.5533, 368.2889
537.0355, 367.9372
537.5176, 367.6613
537.9997, 367.3619
538.4818, 367.2490
538.9639, 367.5991
539.4460, 368.0684
539.9282, 368.2013
540.4103, 367.9200
540.8924, 367.4909
541.3745, 367.1889
541.8566, 367.0187
542.3387, 366.8145
542.8209, 366.5664
543.3029, 366.2938
543.7850, 365.9988
544.2672, 365.6830
544.7493, 365.2567
545.2314, 364.7175
545.7135, 364.3836
546.1956, 364.8910
546.6777, 366.1139
547.1599, 366.4305
547.6420, 365.3823
548.1241, 364.2228
548.6062, 363.6953
549.0883, 363.5819
549.5704, 363.5943
550.0526, 363.7627
550.5347, 363.8889
551.0168, 363.9078
551.4989, 363.7846
551.9810, 363.3226
552.4631, 362.4682
552.9453, 361.7614
553.4274, 361.7906
553.9095, 362.5594
554.3916, 362.8546
554.8737, 362.4732
555.3558, 361.9380
555.8380, 361.0418
556.3201, 360.2262
556.8022, 360.2145
557.2843, 361.1002
557.7664, 362.0710
558.2485, 362.0939
558.7307, 361.1176
559.2128, 360.7101
559.6949, 361.5710
560.1770, 361.9869
560.6591, 361.0507
561.1412, 359.5568
561.6234, 358.4298
562.1055, 357.9102
562.5876, 357.7055
563.0697, 357.7734
563.5518, 357.9650
564.0339, 357.6239
564.5161, 356.5229
564.9982, 355.6846
565.4803, 356.0215
565.9624, 357.2381
566.4445, 357.9207
566.9266, 357.7006
567.4088, 357.4759
567.8909, 357.7174
568.3730, 358.0444
568.8551, 357.8814
569.3372, 357.1831
569.8193, 356.4446
570.3015, 356.1367
570.7836, 356.2357
571.2657, 356.3199
571.7478, 356.4952
572.2299, 356.5006
572.7120, 356.1271
573.1942, 355.6779
573.6763, 355.4489
574.1584, 355.4744
574.6405, 355.5590
575.1226, 355.6026
575.6047, 355.5719
576.0869, 355.2235
576.5690, 354.4149
577.0511, 353.9080
577.5332, 354.3576
578.0153, 355.1565
578.4974, 355.2795
578.9796, 354.5559
579.4617, 353.8584
579.9438, 353.4978
580.4259, 353.3472
580.9080, 353.3645
581.3901, 353.4892
581.8723, 353.4318
582.3544, 352.9669
582.8365, 352.2704
583.3186, 351.9424
583.8007, 352.3237
584.2828, 352.5692
584.7650, 352.8153
585.2471, 352.8094
585.7292, 352.1271
586.2113, 351.0174
586.6934, 350.2538
587.1755, 350.4117
587.6577, 351.0443
588.1398, 351.0875
588.6219, 350.4453
589.1040, 349.8619
589.5861, 349.5054
590.0682, 349.2757
590.5504, 349.0404
591.0325, 348.8209
591.5146, 348.7776
591.9967, 349.1369
592.4788, 349.5404
592.9609, 349.6581
593.4431, 349.5630
593.9252, 349.4388
594.4073, 349.3377
594.8894, 349.3851
595.3715, 349.8053
595.8536, 350.7570
596.3358, 351.3585
596.8179, 351.7078
597.3000, 351.6578
597.7821, 350.8400
598.2642, 349.7046
598.7463, 348.8710
599.2285, 348.5476
599.7106, 348.4757
600.1927, 348.3339
600.6748, 348.1289
601.1569, 348.1125
601.6390, 348.3781
602.1212, 348.6530
602.6033, 348.8513
603.0854, 348.9350
603.5675, 348.8005
604.0496, 348.3615
604.5317, 347.9233
605.0139, 347.5794
605.4960, 347.3557
605.9781, 347.3836
606.4602, 347.6380
606.9423, 347.7752
607.4244, 347.5138
607.9066, 346.9754
608.3887, 346.7052
608.8708, 346.8631
609.3529, 347.0852
609.8350, 347.6758
610.3171, 348.0697
610.7993, 347.6788
611.2814, 346.6919
611.7635, 345.8088
612.2456, 345.4341
612.7277, 345.4933
613.2098, 345.9902
613.6920, 346.9949
614.1741, 347.5959
614.6562, 347.4145
615.1383, 346.9622
615.6204, 346.7548
616.1025, 346.7429
616.5847, 346.6301
617.0668, 346.2029
617.5489, 345.8083
618.0310, 345.6557
618.5131, 345.6992
618.9952, 345.9330
619.4774, 346.3386
619.9595, 346.6096
620.4416, 346.3410
620.9237, 345.4820
621.4058, 344.8525
621.8879, 344.5300
622.3701, 344.3636
622.8522, 344.4454
623.3343, 344.5988
623.8164, 344.5836
624.2985, 344.3788
624.7806, 344.2968
625.2628, 344.8243
625.7448, 345.6355
626.2269, 345.7484
626.7090, 345.0843
627.1912, 344.4245
627.6733, 344.0809
628.1554, 343.9869
628.6375, 344.0948
629.1196, 344.4906
629.6017, 344.6542
630.0839, 344.4510
630.5660, 344.0431
631.0481, 343.3751
631.5302, 342.6061
632.0123, 342.0216
632.4944, 341.7543
632.9766, 341.8083
633.4587, 342.2625
633.9408, 343.2211
634.4229, 344.0799
634.9050, 345.0825
635.3871, 345.6210
635.8693, 345.1639
636.3514, 344.2150
636.8335, 343.4686
637.3156, 343.0371
637.7977, 343.0662
638.2798, 344.1071
638.7620, 345.5445
639.2441, 346.1425
639.7262, 345.7789
640.2083, 345.2378
640.6904, 345.0576
641.1725, 345.0434
641.6547, 344.5302
642.1368, 343.0251
642.6189, 341.7308
643.1010, 340.4579
643.5831, 339.5608
644.0652, 339.5165
644.5474, 340.0253
645.0295, 340.3778
645.5116, 340.2184
645.9937, 339.6566
646.4758, 338.5320
646.9579, 336.8578
647.4401, 336.4128
647.9222, 337.9649
648.4043, 339.7232
648.8864, 340.3684
649.3685, 340.1255
649.8506, 339.6530
650.3328, 338.8168
650.8149, 338.0450
651.2970, 337.5706
651.7791, 337.2206
652.2612, 336.7660
652.7433, 336.2032
653.2255, 335.6924
653.7076, 335.3397
654.1897, 335.1547
654.6718, 335.2055
655.1539, 335.6296
655.6360, 335.9501
656.1182, 335.9391
656.6003, 335.9440
657.0824, 336.2962
657.5645, 336.8320
658.0466, 337.0476
658.5287, 336.7256
659.0109, 336.0567
659.4930, 334.9396
659.9751, 333.6266
660.4572, 332.8180
660.9393, 332.6698
661.4214, 332.9855
661.9036, 333.7368
662.3857, 334.8267
662.8678, 335.1862
663.3499, 334.0173
663.8320, 333.1732
664.3141, 332.9717
664.7963, 333.0313
665.2784, 333.2154
665.7605, 333.3938
666.2426, 333.2549
666.7247, 332.4618
667.2068, 331.4873
667.6890, 331.2885
668.1711, 331.8392
668.6532, 332.2052
669.1353, 332.1448
669.6174, 331.9293
670.0995, 331.7527
670.5817, 331.6273
671.0638, 331.6396
671.5459, 331.9479
672.0280, 332.1964
672.5101, 332.4239
672.9922, 332.4421
673.4744, 331.8553
673.9565, 330.7652
674.4386, 329.8269
674.9207, 329.5494
675.4028, 329.7699
675.8849, 330.0192
676.3671, 330.3636
676.8492, 330.4243
677.3313, 329.9233
677.8134, 329.3428
678.2955, 329.1286
678.7776, 329.1672
679.2598, 329.0424
679.7419, 328.4596
680.2240, 327.9498
680.7061, 327.9751
681.1882, 328.2191
681.6703, 328.1291
682.1525, 327.6444
682.6346, 327.1587
683.1167, 327.0098
683.5988, 327.1097
684.0809, 327.0077
684.5630, 326.5868
685.0452, 326.2219
685.5273, 325.9385
686.0094, 325.7484
686.4915, 325.7079
686.9736, 325.7693
687.4557, 325.8001
687.9379, 325.7494
688.4200, 325.6503
688.9021, 325.4768
689.3842, 325.2841
689.8663, 325.2306
690.3484, 325.3403
690.8306, 325.4620
691.3127, 325.4783
691.7948, 325.4082
692.2769, 325.3505
692.7590, 325.3969
693.2411, 325.3081
693.7233, 324.8737
694.2054, 324.4991
694.6875, 324.5557
695.1696, 324.8716
695.6517, 324.9515
696.1339, 324.5094
696.6160, 323.9825
697.0981, 323.9143
697.5802, 324.1717
698.0623, 324.2611
698.5444, 324.0986
699.0266, 323.9194
699.5087, 323.9059
699.9908, 323.9890
700.4729, 323.9059
700.9550, 323.3796
701.4371, 323.1097
701.9193, 323.2867
702.4014, 323.5512
702.8835, 323.6664
703.3656, 323.6976
703.8477, 323.8553
704.3298, 324.2453
704.8120, 324.6422
705.2941, 324.6129
705.7762, 324.3108
706.2583, 324.6722
706.7404, 325.9311
707.2225, 326.7922
707.7046, 326.3613
708.1867, 325.1342
708.6688, 324.3841
709.1509, 324.3683
709.6331, 324.1391
710.1152, 323.2212
710.5973, 322.4696
711.0794, 322.5332
711.5615, 323.0848
712.0436, 323.5032
712.5258, 323.5639
713.0079, 323.5018
713.4900, 323.5221
713.9721, 323.6427
714.4542, 324.0751
714.9363, 324.9186
715.4185, 325.4522
715.9006, 325.2464
716.3827, 324.6515
716.8648, 324.2326
717.3469, 324.0102
717.8290, 323.8233
718.3112, 323.6519
718.7933, 323.5223
719.2754, 323.5588
719.7575, 323.5996
720.2396, 323.2740
720.7217, 322.5611
721.2039, 322.0715
721.6860, 322.6526
722.1681, 323.8852
722.6502, 323.8868
723.1323, 322.4493
723.6144, 321.5676
724.0966, 322.1037
724.5787, 323.1033
725.0608, 323.4782
725.5429, 323.2439
726.0250, 323.0005
726.5071, 322.6883
726.9893, 322.4848
727.4714, 322.7049
727.9535, 322.9214
728.4356, 322.4253
728.9177, 321.3195
729.3998, 320.5561
729.8820, 320.9056
730.3641, 321.9122
730.8462, 322.6125
731.3283, 323.0026
731.8104, 323.0611
732.2925, 322.6950
732.7747, 322.1839
733.2568, 321.6300
733.7389, 321.1101
734.2210, 320.9884
734.7031, 321.7120
735.1852, 322.1348
735.6674, 321.8836
736.1495, 321.3549
736.6316, 320.7564
737.1137, 320.1765
737.5958, 319.7027
738.0779, 319.3699
738.5601, 319.2057
739.0422, 319.3188
739.5243, 319.6737
740.0064, 319.9709
740.4885, 320.2352
740.9706, 320.1823
741.4528, 319.4381
741.9349, 318.4309
742.4170, 318.1833
742.8991, 318.9624
743.3812, 319.5070
743.8633, 319.6877
744.3455, 319.6445
744.8276, 319.4457
745.3097, 319.0756
745.7918, 318.3652
746.2739, 317.3257
746.7560, 316.4557
747.2382, 316.2730
747.7203, 316.6335
748.2024, 317.2286
748.6845, 318.0720
749.1666, 318.6387
749.6487, 318.7709
750.1309, 318.5004
750.6130, 317.6902
751.0951, 316.2801
751.5772, 315.6121
752.0593, 316.2654
752.5414, 316.8373
753.0236, 316.8981
753.5057, 316.8309
753.9878, 317.0287
754.4699, 317.4570
754.9520, 317.8131
755.4341, 317.9576
755.9163, 317.8769
756.3984, 317.4140
756.8805, 316.6844
757.3626, 316.2507
757.8447, 316.2206
758.3268, 316.2345
758.8090, 316.0784
759.2911, 315.7408
759.7732, 315.1448
760.2553, 313.6710
760.7374, 313.1003
761.2195, 314.3398
761.7017, 315.4736
762.1838, 315.4432
762.6659, 314.7696
763.1480, 314.3623
763.6301, 314.4819
764.1122, 314.6119
764.5944, 314.2507
765.0765, 313.7201
765.5586, 313.6319
766.0407, 313.8972
766.5228, 313.8909
767.0049, 313.3568
767.4871, 312.6315
767.9692, 312.1359
768.4513, 311.8653
768.9334, 311.7907
769.4155, 311.9271
769.8976, 312.2327
770.3798, 312.9390
770.8619, 313.6105
771.3440, 313.8694
771.8261, 313.7585
772.3082, 313.5923
772.7903, 313.3580
773.2725, 313.2655
773.7546, 313.6678
774.2367, 314.2184
774.7188, 314.2859
775.2009, 313.8693
775.6830, 313.5195
776.1652, 313.6094
776.6473, 313.9500
777.1294, 314.0928
777.6115, 314.0116
778.0936, 313.9111
778.5757, 313.7763
779.0579, 313.6767
779.5400, 313.6544
780.0221, 313.6911
780.5042, 313.7359
780.9863, 313.7607
781.4684, 313.9287
781.9506, 314.5431
782.4327, 315.0479
782.9148, 314.8853
783.3969, 314.4377
783.8790, 314.4108
784.3611, 314.9503
784.8433, 315.5790
785.3254, 315.9439
785.8075, 316.0092
786.2896, 315.4196
786.7717, 314.1581
787.2538, 313.6716
787.7360, 314.5344
788.2181, 315.6089
788.7002, 315.8294
789.1823, 315.3095
789.6644, 315.0083
790.1465, 314.9418
790.6286, 315.0595
791.1107, 315.5505
791.5928, 316.0483
792.0750, 316.3244
792.5571, 316.4207
793.0392, 316.4254
793.5213, 316.3463
794.0034, 316.3901
794.4855, 316.8958
794.9677, 317.5830
795.4498, 317.9147
795.9319, 317.8944
796.4140, 317.7401
796.8961, 317.5306
797.3782, 317.3360
797.8604, 317.2521
798.3425, 317.2799
798.8246, 317.3476
799.3067, 317.3826
799.7888, 317.5847
800.2709, 318.2406
800.7531, 318.8923
801.2352, 319.1713
801.7173, 319.1263
802.1994, 319.0522
802.6815, 319.1302
803.1636, 319.0444
803.6458, 318.2992
804.1279, 317.5120
804.6100, 317.4665
805.0921, 318.1109
805.5742, 319.0573
806.0563, 320.1286
806.5385, 320.9132
807.0206, 320.4962
807.5027, 319.0007
807.9848, 318.1799
808.4669, 318.2064
808.9490, 318.3909
809.4312, 318.4855
809.9133, 318.5074
810.3954, 318.4853
810.8775, 318.4235
811.3596, 318.2714
811.8417, 317.8206
812.3239, 317.5473
812.8060, 317.8004
813.2881, 318.1324
813.7702, 318.0753
814.2523, 317.6684
814.7344, 317.3067
815.2166, 317.2237
815.6987, 317.1827
816.1808, 316.8221
816.6629, 316.3483
817.1450, 316.2631
817.6271, 316.5921
818.1093, 317.0448
818.5914, 317.4849
819.0735, 317.7649
819.5556, 317.5190
820.0377, 316.6038
820.5198, 316.0437
821.0020, 315.8768
821.4841, 315.9883
821.9662, 316.6760
822.4483, 317.3797
822.9304, 317.3554
823.4125, 316.6317
823.8947, 316.1880
824.3768, 316.5460
824.8589, 316.8333
825.3410, 316.6638
825.8231, 316.2348
826.3052, 315.5399
826.7874, 314.7863
827.2695, 314.5953
827.7516, 315.3960
828.2337, 316.5195
828.7158, 316.9880
829.1979, 316.9575
829.6801, 317.1277
830.1622, 317.5603
830.6443, 317.7928
831.1264, 317.5443
831.6085, 317.1200
832.0906, 317.0270
832.5728, 317.3122
833.0549, 317.5705
833.5370, 317.7169
834.0191, 317.9538
834.5012, 318.5150
834.9833, 319.0256
835.4655, 319.1408
835.9476, 318.9113
836.4297, 318.6569
836.9118, 318.3244
837.3939, 318.2280
837.8760, 318.7411
838.3582, 319.4512
838.8403, 319.9029
839.3224, 320.0934
839.8045, 320.1959
840.2866, 320.2918
840.7687, 320.3830
841.2509, 320.4022
841.7330, 320.4009
842.2151, 320.6911
842.6972, 321.2825
843.1793, 322.0937
843.6614, 323.1848
844.1436, 324.1976
844.6257, 324.6172
845.1078, 324.4670
845.5899, 324.8447
846.0720, 326.2798
846.5541, 327.4613
847.0363, 328.3603
847.5184, 328.8988
848.0005, 328.5986
848.4826, 327.9798
848.9647, 328.2575
849.4468, 329.9310
849.9290, 331.6454
850.4111, 332.6693
850.8932, 333.3871
851.3753, 333.9998
851.8574, 334.6787
852.3395, 335.8213
852.8217, 337.4980
853.3038, 339.2530
853.7859, 340.5856
854.2680, 341.6771
854.7501, 343.0950
855.2322, 344.8424
855.7144, 346.5284
856.1965, 347.9993
856.6786, 349.7362
857.1607, 352.2073
857.6428, 355.1177
858.1249, 357.4914
858.6071, 358.6709
859.0892, 360.7325
859.5713, 364.0563
860.0534, 367.7837
860.5355, 371.4172
861.0176, 375.4166
861.4998, 380.4886
861.9819, 386.6711
862.4640, 392.9906
862.9461, 398.5264
863.4282, 404.7235
863.9103, 412.4595
864.3925, 421.5177
864.8746, 431.4899
865.3567, 442.4286
865.8388, 454.4401
866.3209, 467.5539
866.8030, 482.0175
867.2852, 498.1800
867.7673, 515.9274
868.2494, 535.0984
868.7315, 555.6793
869.2136, 576.6380
869.6957, 597.6480
870.1779, 618.7789
870.6600, 639.7997
871.1421, 660.7373
871.6242, 682.6348
872.1063, 704.2354
872.5884, 729.0182
873.0705, 757.8812
873.5526, 789.6415
874.0347, 823.2865
874.5168, 859.2426
874.9990, 899.0914
875.4811, 942.4760
875.9632, 990.8773
876.4453, 1044.732
876.9274, 1103.549
877.4095, 1167.236
877.8917, 1235.527
878.3738, 1309.417
878.8559, 1388.283
879.3380, 1468.526
879.8201, 1550.697
880.3022, 1628.609
880.7844, 1697.090
881.2665, 1753.033
881.7486, 1786.196
882.2307, 1794.742
882.7128, 1774.904
883.1949, 1723.287
883.6771, 1645.753
884.1592, 1552.658
884.6413, 1441.843
885.1234, 1329.240
885.6055, 1211.258
886.0876, 1099.906
886.5698, 997.6379
887.0519, 905.0976
887.5340, 822.0585
888.0161, 748.7812
888.4982, 684.8685
888.9803, 632.2601
889.4625, 586.3713
889.9446, 547.1038
890.4267, 513.4008
890.9088, 485.5568
891.3909, 462.5530
891.8730, 443.2805
892.3552, 427.3645
892.8373, 413.2476
893.3194, 400.1854
893.8015, 388.1723
894.2836, 377.0592
894.7657, 367.0686
895.2479, 359.0758
895.7300, 353.0881
896.2121, 347.8441
896.6942, 342.4751
897.1763, 337.1906
897.6584, 332.3942
898.1406, 328.0934
898.6227, 324.1891
899.1048, 320.6779
899.5869, 317.6579
900.0690, 315.2414
900.5511, 313.1067
901.0333, 310.7506
901.5154, 308.1502
901.9975, 305.8379
902.4796, 303.8498
902.9617, 302.0703
903.4438, 300.6159
903.9260, 299.2311
904.4081, 297.6709
904.8902, 296.0581
905.3723, 294.7767
905.8544, 294.0620
906.3365, 293.1354
906.8187, 291.5225
907.3008, 289.9526
907.7829, 288.8932
908.2650, 288.1445
908.7471, 287.4419
909.2292, 286.7189
909.7114, 285.9662
910.1935, 285.1917
910.6756, 284.3691
911.1577, 283.3115
911.6398, 282.2471
912.1219, 281.7940
912.6041, 281.8251
913.0862, 281.4126
913.5683, 280.1175
914.0504, 278.6827
914.5325, 278.2155
915.0146, 278.4994
915.4968, 278.2056
915.9789, 277.3149
916.4610, 276.4581
916.9431, 275.8005
917.4252, 275.1427
917.9073, 274.2849
918.3895, 273.3172
918.8716, 272.5433
919.3537, 271.8695
919.8358, 271.6397
920.3179, 272.3315
920.8000, 272.7734
921.2822, 272.3112
921.7643, 271.4867
922.2464, 270.8418
922.7285, 270.3814
923.2106, 269.9747
923.6927, 269.6784
924.1749, 269.3298
924.6570, 268.7852
925.1391, 268.2606
925.6212, 267.8840
926.1033, 267.6765
926.5854, 267.7111
927.0676, 268.0203
927.5497, 268.2273
928.0318, 267.9861
928.5139, 267.6144
928.9960, 267.4915
929.4781, 267.4605
929.9603, 267.1572
930.4424, 266.5691
930.9245, 266.0063
931.4066, 265.6654
931.8887, 265.4530
932.3708, 265.1902
932.8530, 264.9283
933.3351, 265.0008
933.8172, 265.3874
934.2993, 265.4221
934.7814, 264.8316
935.2635, 264.0759
935.7457, 263.6549
936.2278, 263.5083
936.7099, 263.2549
937.1920, 262.8082
937.6741, 262.6867
938.1563, 263.2022
938.6384, 263.4616
939.1205, 262.7819
939.6026, 261.7037
940.0847, 261.2624
940.5668, 261.6549
941.0490, 261.5260
941.5311, 260.1155
942.0132, 259.2454
942.4953, 259.7523
942.9774, 260.4700
943.4595, 260.5706
943.9417, 260.1886
944.4238, 259.7624
944.9059, 259.3492
945.3880, 259.0008
945.8701, 258.6570
946.3522, 258.4644
946.8344, 258.6227
947.3165, 258.9375
947.7986, 259.2401
948.2807, 259.4397
948.7628, 259.3312
949.2449, 258.6841
949.7271, 258.0065
950.2092, 257.7550
950.6913, 257.8006
951.1734, 258.0316
951.6555, 258.3693
952.1376, 258.7181
952.6198, 259.0152
953.1019, 258.9734
953.5840, 258.1664
954.0661, 257.0137
954.5482, 256.6569
955.0303, 256.9469
955.5124, 256.8351
955.9945, 256.1738
956.4766, 255.5778
956.9587, 255.3804
957.4409, 255.3916
957.9230, 255.3052
958.4051, 255.1240
958.8872, 255.1019
959.3693, 255.3103
959.8514, 255.3565
960.3336, 255.1077
960.8157, 254.7852
961.2978, 254.5266
961.7799, 254.3346
962.2620, 254.2206
962.7441, 254.2027
963.2263, 254.2123
963.7084, 254.4709
964.1905, 254.4540
964.6726, 253.7904
965.1547, 252.9948
965.6368, 252.4411
966.1190, 252.1338
966.6011, 252.0308
967.0832, 252.1795
967.5653, 252.4224
968.0474, 252.9592
968.5295, 253.3299
969.0117, 253.1702
969.4938, 252.7408
969.9759, 252.4154
970.4580, 252.2180
970.9401, 251.8678
971.4222, 251.0202
971.9044, 250.3521
972.3865, 250.3985
972.8686, 250.7555
973.3507, 251.1220
973.8328, 251.4044
974.3149, 251.5351
974.7971, 251.4850
975.2792, 251.1866
975.7613, 250.3575
976.2434, 249.5051
976.7255, 249.3245
977.2076, 249.6340
977.6898, 250.1528
978.1719, 250.7776
978.6540, 251.3215
979.1361, 251.6980
979.6182, 251.8367
980.1003, 251.5218
980.5825, 250.9454
981.0646, 250.8352
981.5467, 251.1217
982.0288, 251.1343
982.5109, 250.7432
982.9930, 250.7224
983.4752, 251.6658
983.9573, 252.8484
984.4394, 252.7076
984.9215, 251.2294
985.4036, 250.7635
985.8857, 251.5376
986.3679, 251.9007
986.8500, 251.2421
987.3321, 250.6767
987.8142, 251.2214
988.2963, 252.4469
988.7784, 252.9500
989.2606, 252.3889
989.7427, 252.3101
990.2248, 252.8416
990.7069, 253.6225
991.1890, 254.7084
991.6711, 255.8201
992.1533, 256.6784
992.6354, 257.3241
993.1175, 257.9970
993.5996, 258.8884
994.0817, 259.4622
994.5638, 259.4887
995.0460, 259.4679
995.5281, 259.4814
996.0102, 259.6193
996.4923, 260.2443
996.9744, 261.1947
997.4565, 261.2945
997.9387, 259.6808
998.4208, 258.2735
998.9029, 257.6629
999.3850, 257.2912
999.8671, 256.8535
1000.349, 256.4186
1000.831, 256.1920
1001.313, 256.1563
1001.796, 255.9289
1002.278, 255.0149
1002.760, 254.3892
1003.242, 254.8448
1003.724, 255.6014
1004.206, 255.7979
1004.688, 255.7671
1005.170, 256.4018
1005.653, 257.8413
1006.135, 259.1332
1006.617, 259.4466
1007.099, 259.6823
1007.581, 260.8379
1008.063, 262.3477
1008.545, 263.5867
1009.027, 264.4133
1009.509, 264.6526
1009.992, 264.2746
1010.474, 263.6876
1010.956, 263.3903
1011.438, 262.9400
1011.920, 261.5389
1012.402, 259.4987
1012.884, 257.3935
1013.366, 255.3740
1013.849, 253.6691
1014.331, 252.3683
1014.813, 251.2880
1015.295, 250.2141
1015.777, 249.2092
1016.259, 248.5005
1016.741, 248.0122
1017.223, 247.3280
1017.705, 246.4248
1018.188, 245.7839
1018.670, 245.6658
1019.152, 245.6916
1019.634, 245.2814
1020.116, 244.5811
1020.598, 244.4157
1021.080, 244.7536
1021.562, 244.6036
1022.044, 243.7550
1022.527, 243.2117
1023.009, 243.6006
1023.491, 244.3739
1023.973, 244.6786
1024.455, 244.5311
1024.937, 244.1708
1025.419, 243.5772
1025.901, 242.9285
1026.384, 242.2092
1026.866, 241.6748
1027.348, 241.5492
1027.830, 241.5522
1028.312, 241.0849
1028.794, 240.0973
1029.276, 239.9181
1029.758, 240.8348
1030.240, 241.5572
1030.723, 241.8431
1031.205, 241.8791
1031.687, 241.6734
1032.169, 241.4209
1032.651, 241.5471
1033.133, 242.1140
1033.615, 242.5249
1034.097, 242.7392
1034.579, 242.8773
1035.062, 242.9432
1035.544, 242.9593
1036.026, 242.9272
1036.508, 242.8614
1036.990, 242.8238
1037.472, 242.8683
1037.954, 242.6170
1038.436, 241.6465
1038.919, 241.0715
1039.401, 241.5387
1039.883, 241.9592
1040.365, 241.3538
1040.847, 240.3001
1041.329, 240.1392
1041.811, 241.1589
1042.293, 241.5472
1042.776, 240.6035
1043.258, 239.9702
1043.740, 240.2413
1044.222, 240.6231
1044.704, 240.5867
1045.186, 240.3042
1045.668, 240.1688
1046.150, 240.2619
1046.632, 240.0952
1047.115, 239.1145
1047.597, 238.5622
1048.079, 239.2049
1048.561, 239.9206
1049.043, 239.9379
1049.525, 239.4729
1050.007, 238.9200
1050.489, 238.2985
1050.971, 237.9139
1051.454, 237.9923
1051.936, 238.0890
1052.418, 238.1308
1052.900, 238.0880
1053.382, 237.9127
1053.864, 237.6508
1054.346, 237.3392
1054.828, 236.9775
1055.311, 236.7969
1055.793, 237.3111
1056.275, 237.4035
1056.757, 236.1585
1057.239, 234.8726
1057.721, 234.5208
1058.203, 234.8261
1058.685, 235.2420
1059.167, 235.6765
1059.650, 236.1535
1060.132, 236.9774
1060.614, 237.4455
1061.096, 237.1094
1061.578, 236.4977
1062.060, 235.8324
1062.542, 235.2559
1063.024, 234.9468
1063.506, 234.9247
1063.989, 235.0530
1064.471, 235.6023
1064.953, 235.8359
1065.435, 235.0040
1065.917, 234.1826
1066.399, 234.3774
1066.881, 235.0484
1067.363, 235.2564
1067.846, 234.9121
1068.328, 234.6677
1068.810, 234.8480
1069.292, 235.0291
1069.774, 235.0500
1070.256, 234.9748
1070.738, 234.8511
1071.220, 234.6652
1071.703, 234.2878
1072.185, 233.7853
1072.667, 233.5832
1073.149, 233.9998
1073.631, 234.3613
1074.113, 234.2059
1074.595, 234.0374
1075.077, 234.4494
1075.559, 234.9286
1076.042, 234.6426
1076.524, 233.6917
1077.006, 232.9911
1077.488, 232.9155
1077.970, 232.9098
1078.452, 232.6854
1078.934, 232.4769
1079.416, 232.2795
1079.898, 232.3027
1080.380, 233.1031
1080.863, 234.3469
1081.345, 234.8591
1081.827, 234.1970
1082.309, 233.1949
1082.791, 231.8663
1083.273, 230.7236
1083.755, 230.0889
1084.237, 229.7984
1084.720, 229.7644
1085.202, 229.8911
1085.684, 230.0072
1086.166, 230.0628
1086.648, 230.1504
1087.130, 230.3479
1087.612, 230.5365
1088.094, 230.7225
1088.577, 230.8137
1089.059, 230.7579
1089.541, 230.5313
1090.023, 229.9919
1090.505, 229.1070
1090.987, 228.5620
1091.469, 228.8084
1091.951, 229.1864
1092.433, 229.5986
1092.916, 229.8582
1093.398, 229.7856
1093.880, 229.4731
1094.362, 228.9818
1094.844, 228.3631
1095.326, 228.0266
1095.808, 228.4738
1096.290, 228.6735
1096.772, 228.0094
1097.255, 227.2941
1097.737, 226.9582
1098.219, 226.9347
1098.701, 227.2449
1099.183, 227.7829
1099.665, 227.9729
1100.147, 227.4024
1100.629, 227.0605
1101.112, 227.4565
1101.594, 227.8339
1102.076, 227.7751
1102.558, 227.5435
1103.040, 227.4074
1103.522, 227.3620
1104.004, 227.2797
1104.486, 227.0581
1104.969, 227.0666
1105.451, 227.6844
1105.933, 228.1328
1106.415, 227.9868
1106.897, 227.7092
1107.379, 227.7219
1107.861, 227.8876
1108.343, 227.8307
1108.825, 227.4878
1109.307, 227.1291
1109.790, 226.7593
1110.272, 226.4006
1110.754, 225.9717
1111.236, 225.6485
1111.718, 225.6312
1112.200, 225.7427
1112.682, 225.6371
1113.164, 225.2890
1113.647, 225.2365
1114.129, 226.0940
1114.611, 226.2022
1115.093, 224.3910
1115.575, 223.2892
1116.057, 224.7160
1116.539, 226.7492
1117.021, 227.0622
1117.504, 225.9233
1117.986, 225.3184
1118.468, 225.3963
1118.950, 225.6883
1119.432, 226.4404
1119.914, 226.8953
1120.396, 226.7492
1120.878, 226.3171
1121.360, 225.7404
1121.843, 225.1760
1122.325, 225.1546
1122.807, 225.8435
1123.289, 226.0175
1123.771, 225.4908
1124.253, 225.0750
1124.735, 224.9230
1125.217, 225.0038
1125.699, 225.3847
1126.182, 225.8002
1126.664, 225.7744
1127.146, 225.3310
1127.628, 224.8062
1128.110, 224.1257
1128.592, 224.1995
1129.074, 225.2871
1129.556, 225.9613
1130.039, 225.4904
1130.521, 224.8471
1131.003, 225.1851
1131.485, 226.1753
1131.967, 226.7318
1132.449, 226.8559
1132.931, 226.3448
1133.413, 225.2239
1133.896, 224.9508
1134.378, 225.9682
1134.860, 227.0260
1135.342, 227.1363
1135.824, 226.8059
1136.306, 227.0122
1136.788, 227.5579
1137.270, 227.6181
1137.752, 227.2896
1138.234, 227.0639
1138.717, 227.0388
1139.199, 227.1794
1139.681, 227.4689
1140.163, 227.7637
1140.645, 227.9699
1141.127, 228.0145
1141.609, 227.6826
1142.091, 227.1215
1142.574, 226.5244
1143.056, 226.0207
1143.538, 225.9756
1144.020, 226.4462
1144.502, 226.8884
1144.984, 226.8272
1145.466, 226.8006
1145.948, 227.6550
1146.431, 228.6407
1146.913, 228.5603
1147.395, 227.9995
1147.877, 228.2383
1148.359, 229.2701
1148.841, 229.9883
1149.323, 229.8535
1149.805, 229.8260
1150.287, 230.6143
1150.770, 231.6099
1151.252, 232.5092
1151.734, 233.2722
1152.216, 233.8071
1152.698, 234.2023
1153.180, 234.6401
1153.662, 235.1599
1154.144, 235.7342
1154.626, 236.2547
1155.109, 236.9764
1155.591, 238.0924
1156.073, 239.3157
1156.555, 240.4444
1157.037, 241.5962
1157.519, 243.0194
1158.001, 244.6641
1158.483, 246.0749
1158.966, 246.9432
1159.448, 248.1717
1159.930, 250.1290
1160.412, 252.0247
1160.894, 253.3899
1161.376, 254.9296
1161.858, 257.2419
1162.340, 260.0458
1162.822, 262.7700
1163.305, 265.4364
1163.787, 267.7989
1164.269, 269.6263
1164.751, 271.8364
1165.233, 274.6306
1165.715, 277.6135
1166.197, 280.7920
1166.679, 283.5913
1167.161, 285.2876
1167.644, 286.0939
1168.126, 286.9623
1168.608, 287.9138
1169.090, 288.4115
1169.572, 288.4542
1170.054, 287.0240
1170.536, 283.8288
1171.018, 280.0091
1171.500, 276.3150
1171.983, 272.6565
1172.465, 268.7964
1172.947, 264.8829
1173.429, 261.5002
1173.911, 258.4786
1174.393, 255.0004
1174.875, 251.1315
1175.357, 247.8005
1175.840, 245.3084
1176.322, 242.9883
1176.804, 240.2254
1177.286, 237.4596
1177.768, 235.0982
1178.250, 233.1851
1178.732, 231.9438
1179.214, 231.1338
1179.697, 230.3171
1180.179, 229.4248
1180.661, 228.5905
1181.143, 227.8553
1181.625, 227.2878
1182.107, 227.2379
1182.589, 227.0016
1183.071, 225.6914
1183.553, 224.3591
1184.036, 224.2333
1184.518, 224.7584
1185.000, 224.7386
1185.482, 224.0325
1185.964, 223.4625
1186.446, 223.4004
1186.928, 223.1867
1187.410, 222.4722
1187.892, 221.8869
1188.375, 221.8464
1188.857, 221.9260
1189.339, 221.7551
1189.821, 221.3875
1190.303, 220.9231
1190.785, 220.2577
1191.267, 220.1600
1191.749, 220.9057
1192.232, 221.4265
1192.714, 221.4767
1193.196, 221.5123
1193.678, 221.7675
1194.160, 222.0970
1194.642, 222.3423
1195.124, 222.4870
1195.606, 222.4485
1196.089, 222.2321
1196.571, 222.0259
1197.053, 221.8294
1197.535, 221.3749
1198.017, 220.6188
1198.499, 220.0207
1198.981, 219.8778
1199.463, 219.8670
1199.945, 219.4932
1200.427, 219.0055
1200.910, 218.9297
1201.392, 219.1190
1201.874, 219.2904
1202.356, 219.4087
1202.838, 219.5178
1203.320, 219.6142
1203.802, 219.5614
1204.284, 219.1786
1204.767, 218.9329
1205.249, 219.5899
1205.731, 220.0897
1206.213, 219.1324
1206.695, 217.8151
1207.177, 217.5540
1207.659, 218.1029
1208.141, 218.4631
1208.624, 218.4306
1209.106, 218.3778
1209.588, 218.5042
1210.070, 218.4521
1210.552, 217.7924
1211.034, 217.3582
1211.516, 217.8274
1211.998, 218.4927
1212.480, 218.6364
1212.963, 218.3874
1213.445, 218.2392
1213.927, 218.2192
1214.409, 218.1205
1214.891, 217.8636
1215.373, 217.8972
1215.855, 218.4018
1216.337, 218.7056
1216.819, 218.4170
1217.302, 217.9749
1217.784, 217.9510
1218.266, 218.1426
1218.748, 217.8527
1219.230, 217.2026
1219.712, 216.7803
1220.194, 216.5910
1220.676, 216.4921
1221.159, 216.4326
1221.641, 216.3143
1222.123, 216.0776
1222.605, 215.9211
1223.087, 216.1175
1223.569, 216.4227
1224.051, 216.6507
1224.533, 216.7417
1225.016, 216.5168
1225.498, 216.1316
1225.980, 215.8363
1226.462, 215.7008
1226.944, 215.7657
1227.426, 216.0403
1227.908, 216.5260
1228.390, 217.6479
1228.872, 218.4160
1229.354, 218.3033
1229.837, 217.7829
1230.319, 216.7852
1230.801, 215.8733
1231.283, 216.2946
1231.765, 217.9754
1232.247, 218.1684
1232.729, 216.0686
1233.211, 214.9910
1233.694, 215.2726
1234.176, 215.9747
1234.658, 216.9781
1235.140, 217.5756
1235.622, 217.1930
1236.104, 216.3787
1236.586, 216.0814
1237.068, 216.1530
1237.551, 215.8568
1238.033, 215.3555
1238.515, 215.5934
1238.997, 216.4110
1239.479, 216.4668
1239.961, 215.5052
1240.443, 214.7783
1240.925, 215.1208
1241.407, 215.7366
1241.890, 216.0824
1242.372, 216.0999
1242.854, 215.4488
1243.336, 214.6629
1243.818, 214.3982
1244.300, 214.5283
1244.782, 214.5906
1245.264, 214.5398
1245.746, 214.8886
1246.229, 216.2317
1246.711, 217.1243
1247.193, 217.3579
1247.675, 217.0441
1248.157, 215.7580
1248.639, 214.5046
1249.121, 214.0213
1249.603, 213.9783
1250.085, 213.7144
1250.568, 213.2825
1251.050, 213.7966
1251.532, 215.4216
1252.014, 216.0185
1252.496, 215.3818
1252.978, 215.0820
1253.460, 215.5885
1253.942, 216.0955
1254.425, 216.0459
1254.907, 215.7374
1255.389, 215.4852
1255.871, 215.3321
1256.353, 215.4454
1256.835, 215.6726
1257.317, 215.6789
1257.799, 215.5596
1258.281, 215.6103
1258.764, 215.8825
1259.246, 216.2809
1259.728, 216.8818
1260.210, 217.1544
1260.692, 216.5305
1261.174, 215.9456
1261.656, 215.7353
1262.138, 215.8423
1262.620, 216.4272
1263.103, 217.1709
1263.585, 217.5850
1264.067, 217.6944
1264.549, 217.7082
1265.031, 217.6066
1265.513, 217.4494
1265.995, 217.2006
1266.477, 217.0469
1266.960, 217.0271
1267.442, 217.1409
1267.924, 217.4028
1268.406, 217.6631
1268.888, 217.7254
1269.370, 217.6978
1269.852, 217.8970
1270.334, 218.1796
1270.817, 218.1371
1271.299, 217.8687
1271.781, 217.6145
1272.263, 217.4758
1272.745, 217.6738
1273.227, 218.2950
1273.709, 218.6952
1274.191, 218.2623
1274.673, 217.8354
1275.156, 217.8401
1275.638, 217.9821
1276.120, 218.2322
1276.602, 218.3781
1277.084, 217.9077
1277.566, 217.1885
1278.048, 217.5472
1278.530, 219.2143
1279.012, 219.7529
1279.495, 218.6833
1279.977, 218.2256
1280.459, 218.7244
1280.941, 219.3379
1281.423, 219.7901
1281.905, 219.9984
1282.387, 219.8820
1282.869, 219.5931
1283.352, 219.2383
1283.834, 218.9645
1284.316, 219.0718
1284.798, 219.5712
##END=



