##NAMES=Scholzite
##RRUFFID=R050238
##IDEAL CHEMISTRY=CaZn^2+^_2_(PO_4_)_2_&#183;2H_2_O
##LOCALITY=near Blinman, South Australia, Australia
##OWNER=RRUFF
##SOURCE=Marcus Origlieri
##DESCRIPTION=Colorless bladed crystals
##STATUS=The identification of this mineral has been confirmed by X-ray diffraction and chemical analysis
##URL=rruff.info/R050238
##MEASURED CHEMISTRY=Ca_1.00_Zn_2.00_(P_1.00_O_4_)_2_Â·2H_2_O
92.35352, 125.9228
92.83563, 125.9408
93.31775, 126.0538
93.79987, 127.4055
94.28198, 127.7729
94.76410, 127.4749
95.24622, 126.8087
95.72833, 125.9631
96.21045, 124.9598
96.69257, 123.7248
97.17468, 122.6472
97.65680, 122.2649
98.13892, 121.9675
98.62103, 121.2190
99.10315, 119.6275
99.58527, 117.3533
100.0674, 115.3964
100.5495, 113.8542
101.0316, 112.5423
101.5137, 111.3708
101.9958, 110.3641
102.4780, 109.6209
102.9601, 109.2516
103.4422, 109.2875
103.9243, 108.8877
104.4064, 107.7351
104.8885, 106.5450
105.3707, 105.7810
105.8528, 105.3972
106.3349, 104.8581
106.8170, 103.5113
107.2991, 101.2111
107.7813, 99.17976
108.2634, 97.63793
108.7455, 96.33883
109.2276, 94.91308
109.7097, 93.20577
110.1918, 91.59882
110.6740, 90.54944
111.1561, 89.98669
111.6382, 89.59781
112.1203, 89.25003
112.6024, 88.94341
113.0845, 88.69118
113.5666, 88.49819
114.0488, 88.36793
114.5309, 88.38503
115.0130, 88.54726
115.4951, 88.61836
115.9772, 88.23876
116.4593, 87.17396
116.9415, 86.32325
117.4236, 85.97147
117.9057, 85.75615
118.3878, 85.33923
118.8699, 84.60452
119.3520, 83.43043
119.8342, 83.98103
120.3163, 84.33850
120.7984, 84.51324
121.2805, 83.95798
121.7626, 84.34537
122.2447, 84.35498
122.7269, 84.34913
123.2090, 84.86920
123.6911, 84.42011
124.1732, 84.93184
124.6553, 85.06002
125.1374, 85.36375
125.6196, 85.28738
126.1017, 85.32841
126.5838, 85.74966
127.0659, 85.96037
127.5480, 85.84023
128.0302, 85.77729
128.5123, 85.82390
128.9944, 85.94217
129.4765, 86.12776
129.9586, 86.44676
130.4407, 87.16785
130.9229, 88.07785
131.4050, 88.73047
131.8871, 88.80972
132.3692, 88.47904
132.8513, 88.24692
133.3334, 88.08592
133.8155, 88.10303
134.2977, 88.36777
134.7798, 88.83250
135.2619, 89.37428
135.7440, 89.90490
136.2261, 90.42398
136.7082, 90.96107
137.1904, 91.46712
137.6725, 92.03548
138.1546, 92.77957
138.6367, 93.66277
139.1188, 94.51324
139.6009, 95.12025
140.0831, 95.43604
140.5652, 95.58534
141.0473, 95.27276
141.5294, 95.01140
142.0115, 95.21017
142.4936, 95.95475
142.9758, 96.98864
143.4579, 97.88028
143.9400, 98.64436
144.4221, 99.20567
144.9042, 99.35259
145.3863, 99.34731
145.8685, 99.57068
146.3506, 100.1990
146.8327, 100.9955
147.3148, 101.3949
147.7969, 101.2797
148.2790, 101.1973
148.7612, 101.4506
149.2433, 101.9356
149.7254, 102.2578
150.2075, 102.1350
150.6896, 101.8684
151.1717, 101.9821
151.6539, 102.6290
152.1360, 103.2983
152.6181, 103.5326
153.1002, 103.3030
153.5823, 102.9720
154.0644, 102.5469
154.5466, 102.1470
155.0287, 101.9257
155.5108, 101.9747
155.9929, 102.0646
156.4750, 101.8115
156.9571, 101.1687
157.4393, 100.2445
157.9214, 98.76208
158.4035, 97.17759
158.8856, 95.96906
159.3677, 95.38116
159.8498, 95.27019
160.3320, 95.11381
160.8141, 94.94193
161.2962, 94.67314
161.7783, 94.30198
162.2604, 93.82857
162.7425, 93.26784
163.2247, 92.63376
163.7068, 91.91490
164.1889, 90.98191
164.6710, 89.59942
165.1531, 88.26789
165.6352, 87.15480
166.1174, 86.20523
166.5995, 85.29611
167.0816, 84.33343
167.5637, 83.32084
168.0458, 82.30583
168.5279, 81.19474
169.0101, 80.16481
169.4922, 79.35136
169.9743, 78.74155
170.4564, 78.17603
170.9385, 77.53311
171.4206, 76.81824
171.9028, 76.12116
172.3849, 75.43168
172.8670, 74.77245
173.3491, 74.17762
173.8312, 73.65589
174.3133, 73.15029
174.7955, 72.55518
175.2776, 71.93100
175.7597, 71.43884
176.2418, 71.12768
176.7239, 70.98157
177.2060, 71.03716
177.6882, 71.44917
178.1703, 71.73310
178.6524, 71.48074
179.1345, 70.88559
179.6166, 70.33817
180.0987, 70.06721
180.5809, 70.03193
181.0630, 70.00130
181.5451, 70.01918
182.0272, 69.97929
182.5093, 69.81834
182.9914, 69.56745
183.4736, 69.29964
183.9557, 69.08537
184.4378, 68.92920
184.9199, 68.68581
185.4020, 68.15422
185.8841, 67.71078
186.3663, 67.55618
186.8484, 67.61704
187.3305, 67.66745
187.8126, 67.49020
188.2947, 67.04282
188.7768, 66.62029
189.2590, 66.09107
189.7411, 65.69701
190.2232, 65.59609
190.7053, 65.76209
191.1874, 66.04467
191.6695, 66.30394
192.1517, 66.56342
192.6338, 66.66670
193.1159, 66.58229
193.5980, 66.39316
194.0801, 66.07072
194.5622, 65.64492
195.0444, 65.28680
195.5265, 65.21263
196.0086, 65.53464
196.4907, 65.70871
196.9728, 65.56153
197.4549, 65.36425
197.9371, 65.37675
198.4192, 65.64610
198.9013, 66.01227
199.3834, 66.26517
199.8655, 66.40141
200.3476, 66.71688
200.8298, 67.52698
201.3119, 68.45421
201.7940, 68.92021
202.2761, 68.76087
202.7582, 68.43474
203.2403, 68.41476
203.7225, 68.64012
204.2046, 68.92165
204.6867, 69.21782
205.1688, 69.52259
205.6509, 69.80381
206.1330, 70.00856
206.6152, 70.29406
207.0973, 70.87670
207.5794, 71.66528
208.0615, 72.33167
208.5436, 72.60709
209.0257, 72.58074
209.5079, 72.68655
209.9900, 73.01287
210.4721, 73.39762
210.9542, 73.71715
211.4363, 74.00346
211.9184, 74.35296
212.4006, 74.85753
212.8827, 75.50890
213.3648, 76.13207
213.8469, 76.64985
214.3290, 77.21992
214.8111, 77.95748
215.2933, 78.80795
215.7754, 79.62937
216.2575, 80.30070
216.7396, 80.81341
217.2217, 81.32210
217.7038, 81.82868
218.1859, 82.33105
218.6681, 82.85262
219.1502, 83.37556
219.6323, 83.85278
220.1144, 84.21847
220.5965, 84.44508
221.0786, 84.87216
221.5608, 85.91615
222.0429, 86.76725
222.5250, 86.96632
223.0071, 86.67226
223.4892, 86.40474
223.9713, 86.64454
224.4535, 87.48200
224.9356, 87.96716
225.4177, 87.94890
225.8998, 87.79726
226.3819, 87.59904
226.8640, 87.39297
227.3462, 87.23164
227.8283, 87.16604
228.3104, 87.20613
228.7925, 87.21706
229.2746, 87.08115
229.7567, 87.02398
230.2389, 87.23575
230.7210, 87.66322
231.2031, 88.05319
231.6852, 88.19411
232.1673, 88.08178
232.6494, 88.03889
233.1316, 88.19303
233.6137, 88.30254
234.0958, 88.16286
234.5779, 87.81057
235.0600, 87.51295
235.5421, 87.51074
236.0243, 87.75040
236.5064, 87.73137
236.9885, 87.26817
237.4706, 86.70616
237.9527, 86.28392
238.4348, 85.99136
238.9170, 85.65369
239.3991, 85.12011
239.8812, 84.45539
240.3633, 83.91316
240.8454, 83.61910
241.3275, 83.33923
241.8097, 82.84340
242.2918, 82.13845
242.7739, 81.48702
243.2560, 81.03442
243.7381, 80.73276
244.2202, 80.47395
244.7024, 80.24087
245.1845, 80.05989
245.6666, 79.95710
246.1487, 79.93359
246.6308, 79.96653
247.1129, 80.10537
247.5951, 80.26685
248.0772, 80.34114
248.5593, 80.29090
249.0414, 80.21061
249.5235, 80.15577
250.0056, 80.11841
250.4878, 80.22508
250.9699, 80.69381
251.4520, 81.22739
251.9341, 81.53748
252.4162, 81.55953
252.8983, 81.50811
253.3805, 81.54655
253.8626, 81.65685
254.3447, 82.02219
254.8268, 83.07033
255.3089, 84.14564
255.7910, 84.74971
256.2732, 84.81642
256.7553, 84.74156
257.2374, 84.96226
257.7195, 85.52891
258.2016, 86.02834
258.6837, 86.22091
259.1659, 86.45609
259.6480, 86.96127
260.1301, 87.73642
260.6122, 88.57497
261.0943, 89.30821
261.5764, 89.94691
262.0586, 90.38799
262.5407, 90.18510
263.0228, 90.13342
263.5049, 90.74326
263.9870, 91.91553
264.4691, 93.08745
264.9513, 93.64738
265.4334, 93.47755
265.9155, 93.64844
266.3976, 94.54760
266.8797, 95.46849
267.3618, 96.17868
267.8440, 96.69177
268.3261, 97.12852
268.8082, 97.60451
269.2903, 98.12785
269.7724, 98.47091
270.2545, 98.42992
270.7367, 98.39128
271.2188, 98.47727
271.7009, 98.65007
272.1830, 98.80888
272.6651, 98.87974
273.1472, 98.86765
273.6294, 98.86118
274.1115, 98.91998
274.5936, 98.92049
275.0757, 98.79631
275.5578, 98.60078
276.0399, 98.42648
276.5221, 98.33459
277.0042, 98.30201
277.4863, 98.19290
277.9684, 97.99590
278.4505, 97.72102
278.9326, 97.22399
279.4148, 96.68589
279.8969, 96.37989
280.3790, 96.44775
280.8611, 96.74363
281.3432, 96.79144
281.8253, 96.23953
282.3075, 95.85018
282.7896, 95.83688
283.2717, 95.93449
283.7538, 95.85049
284.2359, 95.47554
284.7180, 94.91679
285.2002, 94.39978
285.6823, 93.89348
286.1644, 93.48619
286.6465, 93.38390
287.1286, 93.26450
287.6107, 92.77325
288.0929, 91.83779
288.5750, 90.75380
289.0571, 89.96442
289.5392, 89.67020
290.0213, 89.24545
290.5034, 88.55298
290.9856, 87.83724
291.4677, 87.29166
291.9498, 86.93582
292.4319, 86.64479
292.9140, 86.27795
293.3961, 85.79813
293.8783, 85.41345
294.3604, 85.24480
294.8425, 85.05761
295.3246, 84.68511
295.8067, 84.14847
296.2888, 83.60524
296.7710, 83.19648
297.2531, 82.93430
297.7352, 82.59419
298.2173, 82.03310
298.6994, 81.54910
299.1815, 81.30920
299.6637, 81.25967
300.1458, 81.23483
300.6279, 81.12365
301.1100, 80.94376
301.5921, 80.84450
302.0742, 80.99353
302.5564, 81.02181
303.0385, 80.68135
303.5206, 80.16633
304.0027, 79.84811
304.4848, 79.92628
304.9669, 80.25517
305.4491, 80.39421
305.9312, 80.23792
306.4133, 80.04996
306.8954, 79.85885
307.3775, 79.65734
307.8596, 79.43967
308.3418, 79.20471
308.8239, 78.94461
309.3060, 78.64501
309.7881, 78.28423
310.2702, 77.92565
310.7523, 77.51870
311.2345, 77.14245
311.7166, 76.89867
312.1987, 76.80046
312.6808, 76.74388
313.1629, 76.61450
313.6451, 76.40031
314.1272, 76.13448
314.6093, 75.78132
315.0914, 75.40783
315.5735, 75.03141
316.0556, 74.66666
316.5378, 74.36715
317.0199, 74.20018
317.5020, 74.16966
317.9841, 73.95379
318.4662, 73.31358
318.9483, 72.75291
319.4305, 72.60855
319.9126, 72.74261
320.3947, 72.72868
320.8768, 72.27567
321.3589, 71.51049
321.8410, 71.11378
322.3232, 71.50443
322.8053, 71.70091
323.2874, 71.27699
323.7695, 70.55384
324.2516, 70.05664
324.7337, 70.01212
325.2159, 70.21745
325.6980, 70.22301
326.1801, 69.84711
326.6622, 69.58791
327.1443, 69.65006
327.6264, 69.76012
328.1086, 69.58389
328.5907, 69.05325
329.0728, 68.43750
329.5549, 68.09435
330.0370, 68.15522
330.5191, 68.07199
331.0013, 67.75607
331.4834, 67.37144
331.9655, 66.99551
332.4476, 66.65016
332.9297, 66.36315
333.4118, 66.16451
333.8940, 66.06003
334.3761, 65.93731
334.8582, 65.82119
335.3403, 65.66667
335.8224, 65.46639
336.3045, 65.21374
336.7867, 64.87082
337.2688, 64.40119
337.7509, 63.85587
338.2330, 63.48925
338.7151, 63.50868
339.1972, 63.44636
339.6793, 63.18620
340.1614, 62.82182
340.6436, 62.46960
341.1257, 62.17038
341.6078, 61.90155
342.0899, 61.61153
342.5720, 61.20252
343.0541, 60.95698
343.5363, 61.01337
344.0184, 61.13350
344.5005, 61.12653
344.9826, 60.96637
345.4647, 60.75102
345.9468, 60.58812
346.4290, 60.48906
346.9111, 60.38610
347.3932, 60.26008
347.8753, 60.14854
348.3574, 60.11596
348.8395, 60.11817
349.3217, 60.02572
349.8038, 59.72654
350.2859, 59.25210
350.7680, 58.96758
351.2501, 59.05128
351.7322, 59.12707
352.2144, 59.18288
352.6965, 59.17804
353.1786, 59.03540
353.6607, 58.72030
354.1428, 58.32704
354.6249, 58.07587
355.1071, 58.03677
355.5892, 58.04424
356.0713, 58.14183
356.5534, 58.24613
357.0355, 58.30431
357.5176, 58.30143
357.9998, 58.23788
358.4819, 58.08995
358.9640, 57.80136
359.4461, 57.66824
359.9282, 57.84669
360.4103, 58.02551
360.8925, 58.07635
361.3746, 58.01512
361.8567, 57.90869
362.3388, 57.78960
362.8209, 57.67033
363.3030, 57.67533
363.7852, 57.94621
364.2673, 58.16364
364.7494, 58.24837
365.2315, 58.24493
365.7136, 58.18711
366.1957, 58.08528
366.6779, 57.99219
367.1600, 58.02853
367.6421, 58.25093
368.1242, 58.46124
368.6063, 58.66188
369.0884, 58.82001
369.5706, 58.87784
370.0527, 58.84319
370.5348, 58.81773
371.0169, 58.94865
371.4990, 59.25600
371.9811, 59.41063
372.4633, 59.19740
372.9454, 59.05120
373.4275, 59.22154
373.9096, 59.61190
374.3917, 59.97756
374.8738, 60.15369
375.3560, 60.20779
375.8381, 60.34519
376.3202, 60.58820
376.8023, 60.86635
377.2844, 61.20518
377.7665, 61.53943
378.2487, 61.78111
378.7308, 61.89138
379.2129, 61.97288
379.6950, 62.11469
380.1771, 62.31353
380.6592, 62.66021
381.1414, 63.29858
381.6235, 63.98917
382.1056, 64.49290
382.5877, 64.81752
383.0698, 65.19377
383.5519, 65.81168
384.0341, 66.59611
384.5162, 67.30936
384.9983, 67.91637
385.4804, 68.49620
385.9625, 69.05911
386.4446, 69.63905
386.9268, 70.30946
387.4089, 71.04273
387.8910, 71.91361
388.3731, 73.06387
388.8552, 74.48105
389.3373, 75.88364
389.8195, 77.15039
390.3016, 78.31367
390.7837, 79.44918
391.2658, 80.53247
391.7479, 81.65292
392.2300, 82.91310
392.7122, 84.23194
393.1943, 85.42941
393.6764, 86.45669
394.1585, 87.38023
394.6406, 88.25861
395.1227, 89.08787
395.6049, 89.97092
396.0870, 91.03442
396.5691, 92.07260
397.0512, 92.83382
397.5333, 93.35017
398.0154, 93.95286
398.4976, 94.91631
398.9797, 96.14503
399.4618, 97.06478
399.9439, 97.45455
400.4260, 97.85001
400.9081, 98.44474
401.3903, 99.14097
401.8724, 99.78914
402.3545, 100.3356
402.8366, 100.8001
403.3187, 101.2212
403.8008, 101.6731
404.2830, 101.8783
404.7651, 101.6049
405.2472, 101.2729
405.7293, 101.2669
406.2114, 101.5316
406.6935, 101.6854
407.1757, 101.4098
407.6578, 100.7138
408.1399, 99.85522
408.6220, 98.65152
409.1041, 97.49297
409.5862, 96.57388
410.0684, 95.71120
410.5505, 94.67670
411.0326, 93.37704
411.5147, 91.81114
411.9968, 89.92393
412.4789, 87.52798
412.9611, 85.23791
413.4432, 83.09345
413.9253, 81.02782
414.4074, 78.97628
414.8895, 76.94756
415.3716, 75.03670
415.8538, 73.34103
416.3359, 71.84985
416.8180, 70.37109
417.3001, 68.80801
417.7822, 67.41070
418.2643, 66.30885
418.7465, 65.38883
419.2286, 64.52071
419.7107, 63.67099
420.1928, 62.78300
420.6749, 61.67678
421.1570, 60.28339
421.6392, 59.18287
422.1213, 58.72977
422.6034, 58.45984
423.0855, 58.00853
423.5676, 57.37033
424.0497, 56.76926
424.5319, 56.42151
425.0140, 56.21382
425.4961, 55.78722
425.9782, 55.04332
426.4603, 54.34642
426.9424, 54.04781
427.4246, 53.97419
427.9067, 53.77638
428.3888, 53.29317
428.8709, 52.79924
429.3530, 52.57063
429.8351, 52.54284
430.3173, 52.37850
430.7994, 51.88396
431.2815, 51.32504
431.7636, 51.22178
432.2457, 51.62970
432.7278, 51.93587
433.2100, 52.03444
433.6921, 51.94624
434.1742, 51.58311
434.6563, 50.97604
435.1384, 50.46268
435.6205, 50.33828
436.1027, 50.57709
436.5848, 50.70918
437.0669, 50.71354
437.5490, 50.65719
438.0311, 50.53058
438.5132, 50.36535
438.9954, 50.19051
439.4775, 50.01836
439.9596, 49.88374
440.4417, 49.86129
440.9238, 50.05741
441.4059, 50.11330
441.8881, 49.91935
442.3702, 49.70144
442.8523, 49.61516
443.3344, 49.62806
443.8165, 49.58366
444.2986, 49.34267
444.7808, 48.96352
445.2629, 48.83228
445.7450, 49.18573
446.2271, 49.43395
446.7092, 49.43464
447.1913, 49.30701
447.6735, 49.11723
448.1556, 48.89434
448.6377, 48.74160
449.1198, 48.86618
449.6019, 49.29828
450.0840, 49.45018
450.5662, 49.04889
451.0483, 48.63239
451.5304, 48.50677
452.0125, 48.59499
452.4946, 48.70276
452.9767, 48.75941
453.4589, 48.77519
453.9410, 48.77904
454.4231, 48.77575
454.9052, 48.68501
455.3873, 48.38430
455.8694, 48.05212
456.3516, 47.94740
456.8337, 48.10724
457.3158, 48.27149
457.7979, 48.33088
458.2800, 48.31041
458.7621, 48.23577
459.2443, 48.10728
459.7264, 47.97394
460.2085, 47.86002
460.6906, 47.77556
461.1727, 47.76873
461.6548, 47.89799
462.1370, 48.04192
462.6191, 48.20866
463.1012, 48.34201
463.5833, 48.28853
464.0654, 47.98205
464.5475, 47.61190
465.0297, 47.50567
465.5118, 47.81409
465.9939, 48.02107
466.4760, 48.08847
466.9581, 48.09592
467.4402, 48.07896
467.9224, 48.04324
468.4045, 47.97307
468.8866, 47.84616
469.3687, 47.69723
469.8508, 47.70220
470.3329, 48.07951
470.8151, 48.25334
471.2972, 48.02047
471.7793, 47.66299
472.2614, 47.35894
472.7435, 47.16503
473.2256, 47.11966
473.7078, 47.35163
474.1899, 47.85064
474.6720, 48.11499
475.1541, 48.00856
475.6362, 47.87324
476.1183, 47.89016
476.6005, 47.98214
477.0826, 48.01953
477.5647, 47.92984
478.0468, 47.84685
478.5289, 47.99489
479.0110, 48.33295
479.4932, 48.45059
479.9753, 48.16282
480.4574, 47.73812
480.9395, 47.44037
481.4216, 47.25950
481.9037, 47.22451
482.3859, 47.45207
482.8680, 47.75363
483.3501, 47.98460
483.8322, 48.13208
484.3143, 48.17034
484.7964, 48.06356
485.2786, 47.86631
485.7607, 47.74163
486.2428, 47.69233
486.7249, 47.70199
487.2070, 47.79266
487.6891, 47.92717
488.1713, 48.10947
488.6534, 48.31664
489.1355, 48.44915
489.6176, 48.05455
490.0997, 48.53679
490.5818, 48.82592
491.0640, 48.93233
491.5461, 48.30872
492.0282, 48.62777
492.5103, 48.56905
492.9924, 48.49484
493.4745, 48.94656
493.9567, 48.42914
494.4388, 48.87253
494.9209, 48.93238
495.4030, 49.16776
495.8851, 49.02304
496.3672, 48.99572
496.8494, 49.34863
497.3315, 49.49101
497.8136, 49.30252
498.2957, 49.54907
498.7778, 49.01836
499.2599, 49.16970
499.7421, 49.61532
500.2242, 49.44595
500.7063, 49.69944
501.1884, 49.79189
501.6705, 49.15243
502.1526, 49.78582
502.6348, 49.86876
503.1169, 49.38647
503.5990, 49.97625
504.0811, 49.57189
504.5632, 49.52237
505.0453, 49.73990
505.5274, 49.67905
506.0096, 50.05711
506.4917, 50.01233
506.9738, 49.92977
507.4559, 50.01208
507.9380, 49.62721
508.4201, 50.10905
508.9023, 49.99887
509.3844, 50.18296
509.8665, 50.43375
510.3486, 50.17380
510.8307, 50.45456
511.3128, 49.89680
511.7950, 50.44637
512.2771, 50.61447
512.7592, 50.73865
513.2413, 50.82635
513.7234, 50.85387
514.2056, 50.82854
514.6877, 50.84071
515.1698, 51.00520
515.6519, 51.30159
516.1340, 51.57391
516.6161, 51.87269
517.0983, 52.03148
517.5804, 51.77473
518.0625, 51.36992
518.5446, 51.21014
519.0267, 51.41436
519.5089, 51.77256
519.9910, 52.22817
520.4731, 52.71802
520.9552, 53.06519
521.4373, 53.22715
521.9194, 53.26387
522.4016, 53.17059
522.8837, 52.94770
523.3658, 52.99736
523.8479, 53.47988
524.3300, 54.06104
524.8121, 54.60031
525.2943, 55.13036
525.7764, 55.71571
526.2585, 56.37650
526.7406, 57.12226
527.2227, 57.96730
527.7048, 58.94429
528.1870, 59.89977
528.6691, 60.82187
529.1512, 61.73314
529.6333, 62.51123
530.1154, 63.30723
530.5975, 64.37957
531.0797, 65.86034
531.5618, 67.60325
532.0439, 69.34122
532.5260, 71.03765
533.0081, 73.03822
533.4902, 75.59174
533.9724, 78.26086
534.4545, 80.73817
534.9366, 83.06582
535.4187, 85.40478
535.9008, 87.97478
536.3829, 90.47692
536.8651, 92.52229
537.3472, 94.17167
537.8293, 95.70595
538.3114, 97.21150
538.7935, 98.68877
539.2756, 100.0904
539.7578, 101.3833
540.2399, 102.8384
540.7220, 104.6835
541.2041, 106.5237
541.6862, 108.0199
542.1683, 109.2804
542.6505, 110.6719
543.1326, 112.4085
543.6147, 114.2648
544.0968, 115.6513
544.5789, 116.1842
545.0610, 117.0299
545.5432, 118.5331
546.0253, 120.0377
546.5074, 121.1835
546.9895, 122.0109
547.4716, 122.7523
547.9537, 123.5873
548.4359, 124.3381
548.9180, 124.5889
549.4001, 124.2994
549.8822, 123.8200
550.3643, 123.4372
550.8464, 122.6762
551.3286, 121.1767
551.8107, 118.9585
552.2928, 116.1720
552.7749, 112.6478
553.2570, 108.7504
553.7391, 104.9136
554.2213, 101.0945
554.7034, 96.88072
555.1855, 91.93855
555.6676, 86.78726
556.1497, 82.44910
556.6318, 79.23860
557.1140, 76.23108
557.5961, 73.31477
558.0782, 70.66250
558.5603, 68.47881
559.0424, 66.65682
559.5245, 64.92892
560.0067, 63.12725
560.4888, 61.37074
560.9709, 59.97564
561.4530, 59.05336
561.9351, 58.19369
562.4172, 57.36022
562.8994, 56.57851
563.3815, 55.86415
563.8636, 55.21622
564.3457, 54.63918
564.8278, 54.14823
565.3099, 53.71387
565.7921, 53.26668
566.2742, 52.81300
566.7563, 52.53386
567.2384, 52.58791
567.7205, 52.67443
568.2026, 52.30622
568.6848, 51.49154
569.1669, 50.88712
569.6490, 50.73657
570.1311, 50.69509
570.6132, 50.48177
571.0953, 50.18951
571.5775, 50.11165
572.0596, 50.37958
572.5417, 50.76543
573.0238, 50.85433
573.5059, 50.50299
573.9880, 50.29366
574.4702, 50.32896
574.9523, 50.39166
575.4344, 50.39075
575.9165, 50.35842
576.3986, 50.36769
576.8807, 50.45431
577.3629, 50.56043
577.8450, 50.60130
578.3271, 50.57772
578.8092, 50.53727
579.2913, 50.42794
579.7734, 50.40486
580.2556, 50.64787
580.7377, 51.06884
581.2198, 51.47467
581.7019, 51.94729
582.1840, 52.24169
582.6661, 52.00950
583.1483, 51.52962
583.6304, 51.38349
584.1125, 51.71421
584.5946, 52.22521
585.0767, 52.63178
585.5588, 52.93208
586.0409, 53.14691
586.5230, 53.25493
587.0051, 53.31168
587.4872, 53.25312
587.9694, 53.18955
588.4515, 53.25888
588.9336, 53.47944
589.4157, 53.73207
589.8978, 53.90369
590.3799, 53.99906
590.8621, 54.07201
591.3442, 54.13835
591.8263, 54.14227
592.3084, 53.55673
592.7905, 53.98620
593.2726, 54.22256
593.7548, 54.27620
594.2369, 53.59983
594.7190, 53.86612
595.2011, 53.75463
595.6832, 53.62766
596.1653, 54.02662
596.6475, 53.45642
597.1296, 53.84705
597.6117, 53.85413
598.0938, 54.03675
598.5759, 53.83926
599.0580, 53.75918
599.5402, 54.05933
600.0223, 53.30276
600.5044, 52.98878
600.9865, 52.84142
601.4686, 52.79457
601.9507, 52.82459
602.4329, 52.87751
602.9150, 52.83576
603.3971, 52.68925
603.8792, 52.51147
604.3613, 52.30750
604.8434, 52.08095
605.3256, 51.85824
605.8077, 51.62043
606.2898, 51.29760
606.7719, 50.74704
607.2540, 50.24365
607.7361, 50.01780
608.2183, 50.00781
608.7004, 50.10770
609.1825, 50.29509
609.6646, 50.42984
610.1467, 50.35378
610.6288, 50.05887
611.1110, 49.74353
611.5931, 49.33013
612.0752, 48.99279
612.5573, 48.82985
613.0394, 48.73114
613.5215, 48.52716
614.0037, 48.21484
614.4858, 48.01806
614.9679, 48.25697
615.4500, 48.80266
615.9321, 48.86193
616.4142, 48.27449
616.8964, 47.73981
617.3785, 47.54005
617.8606, 47.52166
618.3427, 47.51688
618.8248, 47.52331
619.3069, 47.50214
619.7891, 47.35638
620.2712, 47.23595
620.7533, 47.38108
621.2354, 47.71045
621.7175, 47.84888
622.1996, 47.60428
622.6818, 47.20556
623.1639, 47.09296
623.6460, 47.40492
624.1281, 47.60366
624.6102, 47.67767
625.0923, 47.66369
625.5745, 47.50112
626.0566, 47.28197
626.5387, 47.14046
627.0208, 47.12581
627.5029, 47.18751
627.9850, 47.30180
628.4672, 47.45359
628.9493, 47.54560
629.4314, 47.57598
629.9135, 47.52074
630.3956, 47.31606
630.8777, 47.02443
631.3599, 46.81562
631.8420, 46.68439
632.3241, 46.64843
632.8062, 46.79973
633.2883, 46.99241
633.7704, 47.07882
634.2526, 47.05711
634.7347, 46.99903
635.2168, 46.94790
635.6989, 46.90101
636.1810, 46.85038
636.6631, 46.79502
637.1453, 46.73896
637.6274, 46.69735
638.1095, 46.64068
638.5916, 46.50444
639.0737, 46.34507
639.5558, 46.30370
640.0380, 46.47688
640.5201, 46.68861
641.0022, 46.76178
641.4843, 46.72446
641.9664, 46.66582
642.4485, 46.59945
642.9307, 46.53896
643.4128, 46.48793
643.8949, 46.45112
644.3770, 46.47518
644.8591, 46.55333
645.3412, 46.69162
645.8234, 46.95679
646.3055, 47.23658
646.7876, 47.41180
647.2697, 47.49488
647.7518, 47.59826
648.2339, 47.81544
648.7161, 48.07915
649.1982, 48.17858
649.6803, 48.06819
650.1624, 48.09611
650.6445, 48.44471
651.1266, 48.81928
651.6088, 48.92090
652.0909, 48.82253
652.5730, 48.81469
653.0551, 49.10850
653.5372, 49.34577
654.0193, 49.17141
654.5015, 48.83933
654.9836, 48.84771
655.4657, 49.27676
655.9478, 49.75055
656.4299, 49.91006
656.9120, 49.79132
657.3942, 49.74889
657.8763, 49.79614
658.3584, 49.90220
658.8405, 50.16379
659.3226, 50.39555
659.8047, 50.41875
660.2869, 50.26825
660.7690, 50.14716
661.2511, 50.17274
661.7332, 50.27506
662.2153, 50.44239
662.6974, 50.63082
663.1796, 50.54774
663.6617, 50.06875
664.1438, 49.50752
664.6259, 49.20850
665.1080, 49.17662
665.5901, 48.99221
666.0723, 48.47437
666.5544, 48.05008
667.0365, 47.94052
667.5186, 47.89733
668.0007, 47.65297
668.4828, 47.19411
668.9650, 46.69916
669.4471, 46.29710
669.9292, 45.96745
670.4113, 45.65020
670.8934, 45.33978
671.3755, 45.09057
671.8577, 44.93633
672.3398, 44.82573
672.8219, 44.73483
673.3040, 44.65313
673.7861, 44.51043
674.2682, 44.19155
674.7504, 43.92545
675.2325, 43.86550
675.7146, 43.91203
676.1967, 43.92991
676.6788, 43.88958
677.1609, 43.83329
677.6431, 43.81081
678.1252, 43.79652
678.6073, 43.60862
679.0894, 43.10490
679.5715, 42.78316
680.0536, 42.90443
680.5358, 42.76233
681.0179, 43.15283
681.5000, 43.35478
681.9821, 43.37847
682.4642, 42.68115
682.9464, 42.92162
683.4285, 42.79040
683.9106, 42.64677
684.3927, 43.02768
684.8748, 42.45041
685.3569, 42.82895
685.8391, 42.83007
686.3212, 43.00822
686.8033, 42.81238
687.2854, 42.73591
687.7675, 43.03947
688.2496, 43.13720
688.7318, 42.90976
689.2139, 43.11669
689.6960, 42.55576
690.1781, 42.67418
690.6602, 43.08738
691.1423, 42.89365
691.6245, 43.12223
692.1066, 43.19405
692.5887, 42.54298
693.0708, 42.82368
693.5529, 42.84563
694.0350, 43.03836
694.5172, 43.34617
694.9993, 43.42253
695.4814, 42.93129
695.9635, 42.68010
696.4456, 42.87914
696.9277, 43.19449
697.4099, 43.47442
697.8920, 43.66167
698.3741, 43.66349
698.8562, 43.39405
699.3383, 43.07676
699.8204, 43.09325
700.3026, 43.38401
700.7847, 43.48005
701.2668, 43.28320
701.7489, 43.03840
702.2310, 42.88391
702.7131, 42.82152
703.1953, 42.87006
703.6774, 43.12948
704.1595, 43.29221
704.6416, 43.29223
705.1237, 43.20425
705.6058, 43.04726
706.0880, 42.85168
706.5701, 42.64043
707.0522, 42.42188
707.5343, 42.27652
708.0164, 42.37651
708.4985, 42.69935
708.9807, 42.89775
709.4628, 42.92764
709.9449, 42.91198
710.4270, 42.92501
710.9091, 42.92989
711.3912, 42.82359
711.8734, 42.53996
712.3555, 42.40276
712.8376, 42.59541
713.3197, 42.83965
713.8018, 42.96078
714.2839, 42.98526
714.7661, 42.97427
715.2482, 42.95517
715.7303, 42.96935
716.2124, 43.11438
716.6945, 43.37089
717.1766, 43.42518
717.6588, 43.22561
718.1409, 42.98206
718.6230, 42.67865
719.1051, 42.45539
719.5872, 42.57809
720.0693, 43.06333
720.5515, 43.32192
721.0336, 43.07158
721.5157, 42.72899
721.9978, 42.46086
722.4799, 42.29620
722.9620, 42.32417
723.4442, 42.53326
723.9263, 42.69736
724.4084, 42.56902
724.8905, 42.22675
725.3726, 42.09713
725.8547, 42.24291
726.3369, 42.34732
726.8190, 42.33055
727.3011, 42.24617
727.7832, 42.09028
728.2653, 41.89492
728.7474, 41.82619
729.2296, 42.07563
729.7117, 42.26221
730.1938, 42.12935
730.6759, 41.88858
731.1580, 41.81422
731.6401, 41.91526
732.1223, 42.01645
732.6044, 41.99884
733.0865, 41.89465
733.5686, 41.76643
734.0507, 41.60236
734.5328, 41.50101
735.0150, 41.49702
735.4971, 41.51936
735.9792, 41.54566
736.4613, 41.55959
736.9434, 41.50684
737.4255, 41.30974
737.9077, 41.23802
738.3898, 41.51618
738.8719, 41.84930
739.3540, 42.00647
739.8361, 41.98650
740.3182, 41.83622
740.8004, 41.57722
741.2825, 41.29113
741.7646, 41.06617
742.2467, 40.90134
742.7288, 40.93788
743.2109, 41.26505
743.6931, 41.54006
744.1752, 41.60224
744.6573, 41.54873
745.1394, 41.51402
745.6215, 41.49988
746.1036, 41.47705
746.5858, 41.48247
747.0679, 41.43306
747.5500, 41.24044
748.0321, 40.98021
748.5142, 40.71676
748.9963, 40.49105
749.4785, 40.41622
749.9606, 40.63026
750.4427, 41.03512
750.9248, 41.32054
751.4069, 41.48938
751.8890, 41.48444
752.3712, 41.19344
752.8533, 40.90009
753.3354, 40.89125
753.8175, 41.11279
754.2996, 41.23354
754.7817, 41.25896
755.2639, 41.16693
755.7460, 40.74804
756.2281, 40.37028
756.7102, 40.44735
757.1923, 40.85527
757.6744, 41.15173
758.1566, 41.11199
758.6387, 40.91795
759.1208, 40.84363
759.6029, 40.86147
760.0850, 40.71489
760.5671, 40.33527
761.0493, 40.09826
761.5314, 40.25186
762.0135, 40.60698
762.4956, 40.80689
762.9777, 40.82631
763.4598, 40.76872
763.9420, 40.53762
764.4241, 40.34039
764.9062, 40.24966
765.3883, 40.25159
765.8704, 40.36020
766.3525, 40.55615
766.8347, 40.72047
767.3168, 40.74342
767.7989, 40.68707
768.2810, 40.69827
768.7631, 40.75560
769.2452, 40.64497
769.7274, 40.27773
770.2095, 39.95951
770.6916, 40.01532
771.1737, 40.38177
771.6558, 40.52508
772.1379, 40.20092
772.6201, 40.01374
773.1022, 40.06867
773.5843, 40.19693
774.0664, 40.34166
774.5485, 40.47178
775.0306, 40.53310
775.5128, 40.49521
775.9949, 40.44551
776.4770, 40.44808
776.9591, 40.48959
777.4412, 40.58093
777.9233, 40.70240
778.4055, 40.72557
778.8876, 40.58344
779.3697, 40.38671
779.8518, 40.31161
780.3339, 40.37325
780.8160, 40.42427
781.2982, 40.47552
781.7803, 40.49733
782.2624, 40.54464
782.7445, 40.51404
783.2266, 40.19456
783.7087, 39.64411
784.1909, 39.36250
784.6730, 39.87115
785.1551, 40.32146
785.6372, 39.94188
786.1193, 39.25807
786.6014, 39.09034
787.0836, 39.49957
787.5657, 40.03073
788.0478, 40.38854
788.5299, 40.59211
789.0120, 40.68821
789.4941, 40.68006
789.9763, 40.48296
790.4584, 39.95481
790.9405, 39.56228
791.4226, 39.66637
791.9047, 40.03572
792.3868, 40.19501
792.8690, 40.11368
793.3511, 39.96526
793.8332, 39.65372
794.3153, 39.41030
794.7974, 39.34859
795.2795, 39.43734
795.7617, 39.69872
796.2438, 40.09163
796.7259, 40.37376
797.2080, 40.29415
797.6901, 40.01782
798.1722, 39.85896
798.6544, 39.81233
799.1365, 39.84554
799.6186, 39.95990
800.1007, 40.09666
800.5828, 40.21375
801.0649, 40.30815
801.5471, 40.36424
802.0292, 40.37990
802.5113, 40.35828
802.9934, 40.28266
803.4755, 40.19012
803.9576, 40.08514
804.4398, 39.98004
804.9219, 39.88108
805.4040, 39.78530
805.8861, 39.75740
806.3682, 39.87450
806.8503, 40.05352
807.3325, 40.27400
807.8146, 40.46928
808.2967, 40.40971
808.7788, 40.04084
809.2609, 39.65620
809.7430, 39.56189
810.2252, 39.71916
810.7073, 39.91470
811.1894, 40.19216
811.6715, 40.32548
812.1536, 40.22098
812.6357, 40.03156
813.1179, 39.82081
813.6000, 39.62035
814.0821, 39.52203
814.5642, 39.51175
815.0463, 39.64185
815.5284, 40.17830
816.0106, 40.62404
816.4927, 40.49603
816.9748, 40.04052
817.4569, 39.76674
817.9390, 39.84006
818.4211, 40.03313
818.9033, 40.20461
819.3854, 40.30906
819.8675, 40.15076
820.3496, 39.76769
820.8317, 39.60860
821.3138, 39.83792
821.7960, 40.09110
822.2781, 39.97738
822.7602, 39.55529
823.2423, 39.34802
823.7244, 39.50912
824.2065, 39.60449
824.6887, 39.49653
825.1708, 39.41609
825.6529, 39.53850
826.1350, 39.76066
826.6171, 39.86879
827.0992, 39.79831
827.5814, 39.72443
828.0635, 39.72995
828.5456, 39.77303
829.0277, 39.83155
829.5098, 39.89251
829.9919, 39.92651
830.4741, 39.92836
830.9562, 39.93824
831.4383, 40.00715
831.9204, 40.10593
832.4025, 40.14877
832.8846, 40.13773
833.3668, 39.98339
833.8489, 39.59953
834.3310, 39.27929
834.8131, 39.29204
835.2952, 39.54279
835.7773, 39.65172
836.2595, 39.52982
836.7416, 39.41956
837.2237, 39.30463
837.7058, 39.22178
838.1879, 39.18743
838.6700, 39.19657
839.1522, 39.24964
839.6343, 39.34467
840.1164, 39.44558
840.5985, 39.56059
841.0806, 39.64622
841.5627, 39.63025
842.0449, 39.55480
842.5270, 39.51494
843.0091, 39.52909
843.4912, 39.56941
843.9733, 39.62452
844.4554, 39.65874
844.9376, 39.54358
845.4197, 39.25356
845.9018, 39.10542
846.3839, 39.17731
846.8660, 39.24712
847.3481, 39.16617
847.8303, 39.03521
848.3124, 39.07073
848.7945, 39.33474
849.2766, 38.84096
849.7587, 39.55244
850.2408, 39.94208
850.7230, 40.02716
851.2051, 38.89557
851.6872, 39.33508
852.1693, 39.14495
852.6514, 38.92901
853.1335, 39.58965
853.6157, 38.63501
854.0978, 39.28174
854.5799, 39.28923
855.0620, 39.58929
855.5441, 39.25583
856.0262, 39.11805
856.5084, 39.61398
856.9905, 39.75901
857.4726, 39.35263
857.9547, 39.67128
858.4368, 38.69452
858.9189, 38.85451
859.4011, 39.50494
859.8832, 39.13041
860.3653, 39.46064
860.8474, 39.52246
861.3295, 38.36445
861.8116, 39.32786
862.2938, 39.37381
862.7759, 38.47776
863.2580, 39.36847
863.7401, 38.60229
864.2222, 38.42751
864.7043, 38.69781
865.1865, 38.50414
865.6686, 39.04197
866.1507, 38.87509
866.6328, 38.64525
867.1149, 38.69018
867.5970, 37.95649
868.0792, 38.66729
868.5613, 38.39139
869.0434, 38.60596
869.5255, 38.93170
870.0076, 38.40619
870.4897, 38.78189
870.9719, 37.76002
871.4540, 37.90755
871.9361, 37.92915
872.4182, 38.69820
872.9003, 37.68315
873.3824, 37.79819
873.8646, 38.39439
874.3467, 38.31733
874.8288, 38.52176
875.3109, 37.89285
875.7930, 38.04679
876.2751, 37.98496
876.7573, 38.66879
877.2394, 38.76395
877.7215, 38.14918
878.2036, 37.53741
878.6857, 37.92370
879.1678, 38.02125
879.6500, 38.11455
880.1321, 38.08473
880.6142, 37.99249
881.0963, 37.85608
881.5784, 37.72292
882.0605, 37.71428
882.5427, 37.86199
883.0248, 38.03041
883.5069, 38.08115
883.9890, 38.04705
884.4711, 38.00230
884.9532, 37.95087
885.4354, 37.99072
885.9175, 38.15961
886.3996, 38.27306
886.8817, 38.18626
887.3638, 37.95635
887.8459, 37.73100
888.3281, 37.45351
888.8102, 37.35641
889.2923, 37.54416
889.7744, 37.76577
890.2565, 37.98919
890.7386, 38.16651
891.2208, 38.23060
891.7029, 38.18823
892.1850, 38.14622
892.6671, 38.13709
893.1492, 38.11863
893.6313, 38.05647
894.1135, 37.99442
894.5956, 37.94532
895.0777, 37.93520
895.5598, 38.01675
896.0419, 38.21040
896.5240, 38.45697
897.0062, 38.80583
897.4883, 39.11401
897.9704, 39.08202
898.4525, 38.79960
898.9346, 38.55419
899.4167, 38.42989
899.8989, 38.46203
900.3810, 38.69875
900.8631, 39.06177
901.3452, 39.30467
901.8273, 39.40392
902.3094, 39.69704
902.7916, 40.25312
903.2737, 40.86023
903.7558, 41.46450
904.2379, 42.00821
904.7200, 42.39127
905.2021, 42.59599
905.6843, 42.81643
906.1664, 42.96564
906.6485, 43.25454
907.1306, 43.72583
907.6127, 44.33393
908.0948, 45.13525
908.5770, 46.03410
909.0591, 46.83512
909.5412, 47.50686
910.0233, 48.01660
910.5054, 48.11139
910.9875, 48.26583
911.4697, 48.89867
911.9518, 49.83088
912.4339, 50.78164
912.9160, 51.67513
913.3981, 52.54742
913.8802, 53.44161
914.3624, 54.27239
914.8445, 54.91323
915.3265, 55.39278
915.8087, 55.74673
916.2908, 56.00172
916.7729, 56.34222
917.2550, 56.86041
917.7371, 57.40521
918.2192, 57.75879
918.7014, 57.94124
919.1835, 58.22361
919.6656, 58.67060
920.1477, 58.85185
920.6298, 58.58059
921.1119, 58.25790
921.5941, 58.23610
922.0762, 58.36286
922.5583, 58.17223
923.0404, 57.54365
923.5225, 56.89628
924.0046, 56.23615
924.4868, 55.55068
924.9689, 54.74705
925.4510, 53.98028
925.9331, 53.52343
926.4152, 53.29347
926.8973, 52.75095
927.3795, 51.46587
927.8616, 50.33011
928.3437, 49.95473
928.8258, 49.70414
929.3079, 48.93930
929.7900, 47.88738
930.2722, 47.06396
930.7543, 46.61946
931.2364, 46.32312
931.7185, 46.07138
932.2006, 45.79547
932.6827, 45.37709
933.1649, 44.86280
933.6470, 44.32655
934.1291, 43.80000
934.6112, 43.41715
935.0933, 43.26471
935.5754, 43.14301
936.0576, 42.64629
936.5397, 41.83940
937.0218, 41.41732
937.5039, 41.40157
937.9860, 41.43829
938.4681, 41.44215
938.9503, 41.41602
939.4324, 41.37372
939.9145, 41.29501
940.3966, 41.08599
940.8787, 40.67368
941.3608, 40.31923
941.8430, 39.93248
942.3251, 39.75510
942.8072, 40.09648
943.2893, 40.54433
943.7714, 40.57690
944.2535, 40.21754
944.7357, 39.91227
945.2178, 39.66092
945.6999, 39.51326
946.1820, 39.53823
946.6641, 39.61265
947.1462, 39.74305
947.6284, 39.83210
948.1105, 39.66209
948.5926, 39.19216
949.0747, 38.85142
949.5568, 38.96145
950.0389, 39.15742
950.5211, 39.16112
951.0032, 39.09567
951.4853, 39.13760
951.9674, 39.28151
952.4495, 39.42663
952.9316, 39.52662
953.4138, 39.59254
953.8959, 39.63478
954.3780, 39.65104
954.8601, 39.59859
955.3422, 39.51381
955.8243, 39.56436
956.3065, 39.77436
956.7886, 39.93074
957.2707, 39.85502
957.7528, 39.70113
958.2349, 39.83425
958.7170, 40.23512
959.1992, 40.53862
959.6813, 40.72404
960.1634, 40.84737
960.6455, 40.91253
961.1276, 40.98417
961.6097, 41.13072
962.0919, 41.34633
962.5740, 41.59165
963.0561, 41.89395
963.5382, 42.13508
964.0203, 42.24272
964.5024, 42.40313
964.9846, 42.71922
965.4667, 43.12685
965.9488, 43.54835
966.4309, 43.98600
966.9130, 44.39167
967.3951, 44.71897
967.8773, 45.07881
968.3594, 45.45729
968.8415, 45.90343
969.3236, 46.50838
969.8057, 47.18098
970.2878, 47.72454
970.7700, 48.08820
971.2521, 48.62487
971.7342, 49.57719
972.2163, 50.57742
972.6984, 51.37360
973.1805, 52.16602
973.6627, 53.09872
974.1448, 54.23158
974.6269, 55.68317
975.1090, 57.52224
975.5911, 59.38284
976.0732, 60.88568
976.5554, 62.37646
977.0375, 64.23613
977.5196, 66.35085
978.0017, 68.51736
978.4838, 70.67773
978.9659, 72.79587
979.4481, 74.79887
979.9302, 77.07861
980.4123, 80.35378
980.8944, 84.23665
981.3765, 87.65313
981.8586, 90.74646
982.3408, 94.27400
982.8229, 98.43174
983.3050, 102.9281
983.7871, 107.5074
984.2692, 112.2356
984.7513, 117.3149
985.2335, 122.7058
985.7156, 127.7915
986.1977, 132.5441
986.6798, 137.2290
987.1619, 141.9269
987.6440, 146.7044
988.1262, 151.6570
988.6083, 156.7193
989.0904, 161.6236
989.5725, 166.2963
990.0546, 171.0792
990.5367, 176.2297
991.0189, 180.8408
991.5010, 184.3710
991.9831, 187.4510
992.4652, 191.0065
992.9473, 194.9808
993.4294, 198.1684
993.9116, 200.3175
994.3937, 202.1437
994.8758, 203.9673
995.3579, 205.1452
995.8400, 205.1521
996.3221, 204.4697
996.8043, 203.8501
997.2864, 203.3289
997.7685, 201.9689
998.2506, 199.3732
998.7327, 196.3687
999.2148, 193.2820
999.6970, 189.6906
1000.179, 185.2287
1000.661, 180.1181
1001.143, 174.7463
1001.625, 169.1926
1002.108, 163.1761
1002.590, 156.3467
1003.072, 149.3977
1003.554, 142.6595
1004.036, 136.0071
1004.518, 129.1788
1005.000, 122.3596
1005.482, 115.8927
1005.964, 109.8903
1006.447, 104.1059
1006.929, 98.27895
1007.411, 92.74995
1007.893, 87.70947
1008.375, 83.14816
1008.857, 79.06633
1009.339, 75.43932
1009.821, 72.20383
1010.304, 69.31847
1010.786, 66.68961
1011.268, 64.25690
1011.750, 61.99178
1012.232, 59.74917
1012.714, 57.66865
1013.196, 56.07972
1013.678, 54.96113
1014.160, 54.01245
1014.643, 53.08504
1015.125, 52.24794
1015.607, 51.60908
1016.089, 51.09795
1016.571, 50.55078
1017.053, 49.99117
1017.535, 49.52008
1018.017, 49.14147
1018.500, 48.72725
1018.982, 48.19595
1019.464, 47.73037
1019.946, 47.72041
1020.428, 47.98826
1020.910, 47.63038
1021.392, 46.72990
1021.874, 46.22251
1022.356, 46.28918
1022.839, 46.19497
1023.321, 45.44322
1023.803, 44.45723
1024.285, 44.00801
1024.767, 44.04340
1025.249, 43.86325
1025.731, 43.45526
1026.213, 43.05192
1026.696, 42.71290
1027.178, 42.30513
1027.660, 41.71728
1028.142, 41.05711
1028.624, 40.54225
1029.106, 40.17805
1029.588, 39.79874
1030.070, 39.38128
1030.552, 39.04649
1031.035, 38.83174
1031.517, 38.67482
1031.999, 38.53411
1032.481, 38.42159
1032.963, 38.36751
1033.445, 38.37797
1033.927, 38.39221
1034.409, 38.39837
1034.891, 38.44750
1035.374, 38.60311
1035.856, 38.70618
1036.338, 38.61395
1036.820, 38.41758
1037.302, 38.32154
1037.784, 38.34064
1038.266, 38.38096
1038.748, 38.48076
1039.231, 38.53403
1039.713, 38.54606
1040.195, 38.46984
1040.677, 38.14080
1041.159, 37.75470
1041.641, 37.79876
1042.123, 38.44286
1042.605, 38.71346
1043.088, 38.25610
1043.570, 37.93025
1044.052, 37.95300
1044.534, 38.06337
1045.016, 38.13320
1045.498, 38.16499
1045.980, 38.14373
1046.462, 38.04258
1046.944, 38.06533
1047.427, 38.35508
1047.909, 38.58931
1048.391, 38.65321
1048.873, 38.68983
1049.355, 38.80297
1049.837, 38.94952
1050.319, 39.02362
1050.801, 39.00274
1051.283, 39.08401
1051.766, 39.44036
1052.248, 39.70403
1052.730, 39.58726
1053.212, 39.54250
1053.694, 39.98123
1054.176, 40.65736
1054.658, 41.16033
1055.140, 41.44149
1055.623, 41.56066
1056.105, 41.34273
1056.587, 41.22815
1057.069, 41.49707
1057.551, 41.76476
1058.033, 41.63195
1058.515, 41.38054
1058.997, 41.53893
1059.479, 42.14968
1059.962, 42.63683
1060.444, 42.73118
1060.926, 42.81548
1061.408, 42.95591
1061.890, 43.19184
1062.372, 43.67992
1062.854, 44.21190
1063.336, 44.41301
1063.818, 44.28800
1064.301, 44.33308
1064.783, 44.85509
1065.265, 45.32696
1065.747, 45.42427
1066.229, 45.53544
1066.711, 46.07899
1067.193, 46.72782
1067.675, 46.89705
1068.158, 46.63815
1068.640, 46.68970
1069.122, 47.48530
1069.604, 48.21053
1070.086, 48.53876
1070.568, 48.65636
1071.050, 48.51386
1071.532, 48.34699
1072.015, 48.45920
1072.497, 48.83612
1072.979, 49.25402
1073.461, 49.67041
1073.943, 50.02399
1074.425, 50.14120
1074.907, 50.34815
1075.389, 51.01134
1075.871, 51.77668
1076.354, 52.21938
1076.836, 52.36172
1077.318, 52.42843
1077.800, 52.45135
1078.282, 52.60020
1078.764, 53.03749
1079.246, 53.52555
1079.728, 53.97459
1080.210, 54.35889
1080.693, 54.59571
1081.175, 54.76495
1081.657, 55.13772
1082.139, 55.82257
1082.621, 56.20720
1083.103, 55.72392
1083.585, 55.23133
1084.067, 55.29093
1084.549, 55.48171
1085.032, 55.35110
1085.514, 55.03661
1085.996, 54.91610
1086.478, 55.06593
1086.960, 55.19606
1087.442, 55.39492
1087.924, 55.26807
1088.406, 54.25719
1088.889, 53.19948
1089.371, 52.91645
1089.853, 53.01028
1090.335, 52.71505
1090.817, 51.94650
1091.299, 51.23436
1091.781, 50.82357
1092.263, 50.40773
1092.745, 49.84927
1093.228, 49.25768
1093.710, 48.73527
1094.192, 48.21273
1094.674, 47.56116
1095.156, 46.80656
1095.638, 46.15215
1096.120, 45.69838
1096.602, 45.24329
1097.084, 44.57074
1097.567, 44.05193
1098.049, 44.12263
1098.531, 44.28495
1099.013, 43.93771
1099.495, 43.20105
1099.977, 42.61473
1100.459, 42.30478
1100.941, 42.10135
1101.424, 42.01314
1101.906, 41.94971
1102.388, 41.83176
1102.870, 41.75958
1103.352, 41.86868
1103.834, 42.07457
1104.316, 42.19973
1104.798, 42.22063
1105.281, 42.15219
1105.763, 41.85070
1106.245, 41.66669
1106.727, 41.70631
1107.209, 41.88171
1107.691, 42.28769
1108.173, 42.71256
1108.655, 42.80302
1109.137, 42.54723
1109.620, 42.37304
1110.102, 42.44269
1110.584, 42.43071
1111.066, 42.20253
1111.548, 41.99669
1112.030, 41.94838
1112.512, 41.95646
1112.994, 41.94474
1113.476, 41.89523
1113.959, 41.71763
1114.441, 41.32835
1114.923, 40.98071
1115.405, 40.74771
1115.887, 40.46291
1116.369, 40.09652
1116.851, 39.64595
1117.333, 39.02390
1117.816, 38.34057
1118.298, 37.92711
1118.780, 37.88565
1119.262, 37.59912
1119.744, 36.79641
1120.226, 36.28771
1120.708, 36.40997
1121.190, 36.53416
1121.672, 36.29810
1122.155, 35.84100
1122.637, 35.33224
1123.119, 34.77901
1123.601, 34.51337
1124.083, 34.68237
1124.565, 34.67519
1125.047, 34.35112
1125.529, 34.08749
1126.011, 34.06567
1126.494, 34.11989
1126.976, 34.08585
1127.458, 33.96754
1127.940, 33.73986
1128.422, 33.34142
1128.904, 33.28609
1129.386, 33.66809
1129.868, 33.91041
1130.351, 33.83326
1130.833, 33.66588
1131.315, 33.58510
1131.797, 33.10575
1132.279, 33.46143
1132.761, 33.62723
1133.243, 33.61346
1133.725, 32.87290
1134.208, 33.07802
1134.690, 32.90873
1135.172, 32.72712
1135.654, 33.07464
1136.136, 32.45621
1136.618, 32.80178
1137.100, 32.76701
1137.582, 32.91095
1138.064, 32.67799
1138.547, 32.56553
1139.029, 32.83657
1139.511, 32.90029
1139.993, 32.63633
1140.475, 32.81059
1140.957, 32.21079
1141.439, 32.29623
1141.921, 32.67913
1142.403, 32.45024
1142.886, 32.64737
1143.368, 32.68668
1143.850, 31.99729
1144.332, 32.58393
1144.814, 32.62329
1145.296, 32.10064
1145.778, 32.65324
1146.260, 32.21489
1146.743, 32.13461
1147.225, 32.32454
1147.707, 32.23928
1148.189, 32.59611
1148.671, 32.53331
1149.153, 32.43591
1149.635, 33.02165
1150.117, 33.34593
1150.599, 32.91385
1151.082, 32.51389
1151.564, 32.83860
1152.046, 33.37029
1152.528, 33.74655
1153.010, 33.93602
1153.492, 33.86499
1153.974, 33.60519
1154.456, 33.38652
1154.938, 33.25471
1155.421, 33.29768
1155.903, 33.68687
1156.385, 34.08835
1156.867, 34.33541
1157.349, 34.52948
1157.831, 34.78724
1158.313, 35.04926
1158.795, 35.18237
1159.278, 35.17142
1159.760, 35.16628
1160.242, 35.22341
1160.724, 35.23689
1161.206, 35.08631
1161.688, 35.01641
1162.170, 35.18951
1162.652, 35.45208
1163.135, 35.67853
1163.617, 35.85989
1164.099, 35.95045
1164.581, 35.89798
1165.063, 35.93705
1165.545, 36.10485
1166.027, 36.28602
1166.509, 36.48991
1166.991, 36.62901
1167.474, 36.64899
1167.956, 36.56978
1168.438, 36.40436
1168.920, 36.16817
1169.402, 36.05629
1169.884, 36.09855
1170.366, 35.94380
1170.848, 35.53585
1171.330, 35.19563
1171.813, 35.04307
1172.295, 34.94234
1172.777, 34.77459
1173.259, 34.57233
1173.741, 34.42178
1174.223, 34.30006
1174.705, 34.05592
1175.187, 33.71928
1175.670, 33.49145
1176.152, 33.38869
1176.634, 33.24105
1177.116, 32.96588
1177.598, 32.64631
1178.080, 32.31466
1178.562, 32.06004
1179.044, 32.09318
1179.526, 32.25705
1180.009, 32.29943
1180.491, 32.21676
1180.973, 32.01717
1181.455, 31.74422
1181.937, 31.60059
1182.419, 31.73545
1182.901, 31.80991
1183.383, 31.46235
1183.865, 31.08361
1184.348, 31.00512
1184.830, 31.05936
1185.312, 31.04545
1185.794, 30.99123
1186.276, 31.03420
1186.758, 31.19950
1187.240, 31.29500
1187.722, 31.18730
1188.205, 31.11477
1188.687, 31.12786
1189.169, 31.20548
1189.651, 31.46818
1190.133, 31.68890
1190.615, 31.54022
1191.097, 31.12634
1191.579, 30.93304
1192.062, 31.04218
1192.544, 31.06336
1193.026, 30.88959
1193.508, 30.88086
1193.990, 31.21719
1194.472, 31.46669
1194.954, 31.36770
1195.436, 31.10884
1195.918, 30.93794
1196.401, 30.84015
1196.883, 30.72062
1197.365, 30.57459
1197.847, 30.53513
1198.329, 30.61056
1198.811, 30.80729
1199.293, 31.12882
1199.775, 31.26086
1200.257, 30.97493
1200.740, 30.55276
1201.222, 30.37144
1201.704, 30.39327
1202.186, 30.60229
1202.668, 30.90958
1203.150, 30.57810
1203.632, 31.00474
1204.114, 31.23829
1204.597, 31.28907
1205.079, 30.60987
1205.561, 30.87333
1206.043, 30.75902
1206.525, 30.62922
1207.007, 31.02536
1207.489, 30.45233
1207.971, 30.84013
1208.453, 30.84439
1208.936, 31.02415
1209.418, 30.82384
1209.900, 30.74092
1210.382, 31.03825
1210.864, 31.12502
1211.346, 30.88095
1211.828, 31.07191
1212.310, 30.48561
1212.792, 30.58136
1213.275, 30.97135
1213.757, 30.74639
1214.239, 30.94429
1214.721, 30.77404
1215.203, 30.75135
1215.685, 30.69758
1216.167, 30.56599
1216.649, 30.55911
1217.132, 30.77273
1217.614, 30.89805
1218.096, 30.74769
1218.578, 30.56687
1219.060, 30.67356
1219.542, 30.92536
1220.024, 30.77194
1220.506, 30.28994
1220.989, 30.23866
1221.471, 30.58410
1221.953, 30.85010
1222.435, 30.93108
1222.917, 30.86182
1223.399, 30.66006
1223.881, 30.10352
1224.363, 30.55333
1224.845, 30.81004
1225.328, 30.88404
1225.810, 30.22801
1226.292, 30.51464
1226.774, 30.42349
1227.256, 30.31685
1227.738, 30.73616
1228.220, 30.18631
1228.702, 30.59727
1229.184, 30.62469
1229.667, 30.82767
1230.149, 30.65052
1230.631, 30.59078
1231.113, 30.91126
1231.595, 31.02121
1232.077, 30.80031
1232.559, 31.01443
1233.041, 30.45129
1233.524, 30.57023
1234.006, 30.98342
1234.488, 30.78162
1234.970, 31.00269
1235.452, 31.06271
1235.934, 30.39083
1236.416, 30.99179
1236.898, 31.04229
1237.380, 30.52759
1237.863, 31.08496
1238.345, 30.64817
1238.827, 30.56623
1239.309, 30.56739
1239.791, 30.52020
1240.273, 30.62861
1240.755, 30.65611
1241.237, 30.56899
1241.719, 30.58511
1242.202, 30.82839
1242.684, 31.10856
1243.166, 31.30269
1243.648, 31.35841
1244.130, 31.08386
1244.612, 30.74296
1245.094, 30.73475
1245.576, 30.88444
1246.059, 30.80395
1246.541, 30.48987
1247.023, 30.24062
1247.505, 30.13080
1247.987, 30.14075
1248.469, 30.39144
1248.951, 30.58481
1249.433, 30.64698
1249.916, 30.59518
1250.398, 30.35515
1250.880, 30.08428
1251.362, 29.96302
1251.844, 29.98396
1252.326, 30.13636
1252.808, 30.49050
1253.290, 30.54265
1253.772, 30.22766
1254.255, 30.13382
1254.737, 30.39443
1255.219, 30.68150
1255.701, 30.82898
1256.183, 30.83989
1256.665, 30.68309
1257.147, 30.46509
1257.629, 30.33874
1258.111, 30.33798
1258.594, 30.68484
1259.076, 31.16785
1259.558, 31.22421
1260.040, 30.89432
1260.522, 30.67624
1261.004, 30.74831
1261.486, 30.90109
1261.968, 31.12110
1262.451, 31.24349
1262.933, 31.12819
1263.415, 30.95491
1263.897, 30.76477
1264.379, 30.64115
1264.861, 30.73110
1265.343, 30.94971
1265.825, 31.00902
1266.307, 30.88498
1266.790, 30.77725
1267.272, 30.63259
1267.754, 30.70337
1268.236, 31.11088
1268.718, 31.32607
1269.200, 31.12685
1269.682, 30.85506
1270.164, 30.79520
1270.646, 30.84542
1271.129, 30.81849
1271.611, 30.75119
1272.093, 30.78260
1272.575, 30.87069
1273.057, 30.86016
1273.539, 30.78983
1274.021, 30.86505
1274.503, 31.10668
1274.986, 31.29059
1275.468, 31.29745
1275.950, 31.23965
1276.432, 31.09557
1276.914, 31.02698
1277.396, 31.22321
1277.878, 31.44913
1278.360, 31.52128
1278.843, 31.47942
1279.325, 31.38938
1279.807, 31.25754
1280.289, 31.09826
1280.771, 30.87625
1281.253, 30.72810
1281.735, 30.61435
1282.217, 30.76746
1282.699, 31.31363
1283.182, 31.70196
1283.664, 31.65652
1284.146, 31.38979
1284.628, 31.08340
1285.110, 30.83611
1285.592, 30.82612
1286.074, 31.05741
##END=



