##NAMES=Scottyite
##RRUFFID=R141116
##IDEAL CHEMISTRY=BaCu^2+^_2_Si_2_O_7_
##LOCALITY=Wessels mine, Kalahari manganese field, Northern Cape Province, South Africa
##OWNER=RRUFF
##SOURCE=Jaco and Tania Janse van Nieuwenhuizen
##DESCRIPTION=Dark blue granular or blocky crystals associated with light-blue platy lavinskyite (R141115) and blue wesselsite.
##STATUS=The identification of this mineral is confirmed by single-crystal X-ray diffraction and chemical analysis.
##URL=rruff.info/R141116
##MEASURED CHEMISTRY=Ba_1.01_Sr_0.02_Cu_2.03_Na_0.01_Si_1.97_O_7_; (Scottyite is light grey material in image, associated with dark grey R141115 lavinskyite)
9.059570e+001, 5.959286e+002
9.107782e+001, 5.980302e+002
9.155994e+001, 5.988066e+002
9.204205e+001, 5.974152e+002
9.252417e+001, 5.952632e+002
9.300629e+001, 5.928719e+002
9.348840e+001, 5.873509e+002
9.397052e+001, 5.751448e+002
9.445264e+001, 5.553887e+002
9.493475e+001, 5.352507e+002
9.541687e+001, 5.169337e+002
9.589898e+001, 5.014236e+002
9.638110e+001, 4.874084e+002
9.686321e+001, 4.735659e+002
9.734533e+001, 4.589696e+002
9.782745e+001, 4.433278e+002
9.830956e+001, 4.300198e+002
9.879168e+001, 4.193066e+002
9.927380e+001, 4.097899e+002
9.975591e+001, 4.013308e+002
1.002380e+002, 3.936610e+002
1.007201e+002, 3.863112e+002
1.012023e+002, 3.789676e+002
1.016844e+002, 3.716989e+002
1.021665e+002, 3.647780e+002
1.026486e+002, 3.579932e+002
1.031307e+002, 3.515684e+002
1.036128e+002, 3.457216e+002
1.040950e+002, 3.403950e+002
1.045771e+002, 3.356170e+002
1.050592e+002, 3.314438e+002
1.055413e+002, 3.276935e+002
1.060234e+002, 3.242188e+002
1.065055e+002, 3.208587e+002
1.069877e+002, 3.176758e+002
1.074698e+002, 3.150720e+002
1.079519e+002, 3.140421e+002
1.084340e+002, 3.122715e+002
1.089161e+002, 3.086612e+002
1.093982e+002, 3.035557e+002
1.098804e+002, 2.978761e+002
1.103625e+002, 2.922284e+002
1.108446e+002, 2.864742e+002
1.113267e+002, 2.816155e+002
1.118088e+002, 2.780164e+002
1.122909e+002, 2.749004e+002
1.127731e+002, 2.719547e+002
1.132552e+002, 2.691275e+002
1.137373e+002, 2.665072e+002
1.142194e+002, 2.642663e+002
1.147015e+002, 2.626579e+002
1.151836e+002, 2.609766e+002
1.156658e+002, 2.591077e+002
1.161479e+002, 2.572134e+002
1.166300e+002, 2.555674e+002
1.171121e+002, 2.542882e+002
1.175942e+002, 2.530393e+002
1.180763e+002, 2.508729e+002
1.185584e+002, 2.471814e+002
1.190406e+002, 2.440076e+002
1.195227e+002, 2.421338e+002
1.200048e+002, 2.412629e+002
1.204869e+002, 2.405452e+002
1.209690e+002, 2.395174e+002
1.214511e+002, 2.385500e+002
1.219333e+002, 2.382441e+002
1.224154e+002, 2.387115e+002
1.228975e+002, 2.396355e+002
1.233796e+002, 2.413127e+002
1.238617e+002, 2.439968e+002
1.243438e+002, 2.453067e+002
1.248260e+002, 2.435151e+002
1.253081e+002, 2.399141e+002
1.257902e+002, 2.351587e+002
1.262723e+002, 2.291170e+002
1.267544e+002, 2.225279e+002
1.272365e+002, 2.171063e+002
1.277187e+002, 2.131142e+002
1.282008e+002, 2.100025e+002
1.286829e+002, 2.076306e+002
1.291650e+002, 2.058355e+002
1.296471e+002, 2.044483e+002
1.301292e+002, 2.033926e+002
1.306114e+002, 2.026525e+002
1.310935e+002, 2.019935e+002
1.315756e+002, 2.021826e+002
1.320577e+002, 2.017023e+002
1.325398e+002, 1.996755e+002
1.330219e+002, 1.965689e+002
1.335041e+002, 1.935433e+002
1.339862e+002, 1.916457e+002
1.344683e+002, 1.911180e+002
1.349504e+002, 1.901287e+002
1.354325e+002, 1.884102e+002
1.359146e+002, 1.865413e+002
1.363968e+002, 1.846990e+002
1.368789e+002, 1.829594e+002
1.373610e+002, 1.815252e+002
1.378431e+002, 1.807040e+002
1.383252e+002, 1.806333e+002
1.388073e+002, 1.805712e+002
1.392895e+002, 1.803904e+002
1.397716e+002, 1.802314e+002
1.402537e+002, 1.803274e+002
1.407358e+002, 1.807860e+002
1.412179e+002, 1.812762e+002
1.417000e+002, 1.813691e+002
1.421821e+002, 1.811138e+002
1.426643e+002, 1.806785e+002
1.431464e+002, 1.802504e+002
1.436285e+002, 1.797256e+002
1.441106e+002, 1.786491e+002
1.445927e+002, 1.765262e+002
1.450748e+002, 1.742630e+002
1.455570e+002, 1.726980e+002
1.460391e+002, 1.718408e+002
1.465212e+002, 1.711321e+002
1.470033e+002, 1.700337e+002
1.474854e+002, 1.684796e+002
1.479675e+002, 1.671674e+002
1.484497e+002, 1.659767e+002
1.489318e+002, 1.652455e+002
1.494139e+002, 1.654235e+002
1.498960e+002, 1.665538e+002
1.503781e+002, 1.679914e+002
1.508602e+002, 1.687103e+002
1.513424e+002, 1.682305e+002
1.518245e+002, 1.680831e+002
1.523066e+002, 1.682648e+002
1.527887e+002, 1.688369e+002
1.532708e+002, 1.699804e+002
1.537529e+002, 1.717365e+002
1.542351e+002, 1.738323e+002
1.547172e+002, 1.755812e+002
1.551993e+002, 1.766053e+002
1.556814e+002, 1.776915e+002
1.561635e+002, 1.790860e+002
1.566456e+002, 1.805050e+002
1.571278e+002, 1.815257e+002
1.576099e+002, 1.819142e+002
1.580920e+002, 1.818740e+002
1.585741e+002, 1.822844e+002
1.590562e+002, 1.832202e+002
1.595383e+002, 1.844351e+002
1.600205e+002, 1.862287e+002
1.605026e+002, 1.882908e+002
1.609847e+002, 1.899767e+002
1.614668e+002, 1.909836e+002
1.619489e+002, 1.912216e+002
1.624310e+002, 1.906293e+002
1.629131e+002, 1.894901e+002
1.633953e+002, 1.873885e+002
1.638774e+002, 1.838018e+002
1.643595e+002, 1.788292e+002
1.648416e+002, 1.734604e+002
1.653237e+002, 1.680061e+002
1.658058e+002, 1.626494e+002
1.662880e+002, 1.577457e+002
1.667701e+002, 1.533196e+002
1.672522e+002, 1.493466e+002
1.677343e+002, 1.458040e+002
1.682164e+002, 1.426841e+002
1.686985e+002, 1.400634e+002
1.691807e+002, 1.381641e+002
1.696628e+002, 1.367586e+002
1.701449e+002, 1.356584e+002
1.706270e+002, 1.349039e+002
1.711091e+002, 1.343548e+002
1.715912e+002, 1.336665e+002
1.720734e+002, 1.327040e+002
1.725555e+002, 1.318576e+002
1.730376e+002, 1.315379e+002
1.735197e+002, 1.313635e+002
1.740018e+002, 1.307722e+002
1.744839e+002, 1.293875e+002
1.749661e+002, 1.273257e+002
1.754482e+002, 1.252829e+002
1.759303e+002, 1.230796e+002
1.764124e+002, 1.211243e+002
1.768945e+002, 1.196584e+002
1.773766e+002, 1.185054e+002
1.778588e+002, 1.173793e+002
1.783409e+002, 1.160668e+002
1.788230e+002, 1.145635e+002
1.793051e+002, 1.130707e+002
1.797872e+002, 1.115342e+002
1.802693e+002, 1.100576e+002
1.807515e+002, 1.086573e+002
1.812336e+002, 1.073426e+002
1.817157e+002, 1.061195e+002
1.821978e+002, 1.049662e+002
1.826799e+002, 1.038503e+002
1.831620e+002, 1.032064e+002
1.836441e+002, 1.032538e+002
1.841263e+002, 1.034577e+002
1.846084e+002, 1.036912e+002
1.850905e+002, 1.038829e+002
1.855726e+002, 1.038743e+002
1.860547e+002, 1.034886e+002
1.865368e+002, 1.026586e+002
1.870190e+002, 1.019136e+002
1.875011e+002, 1.012102e+002
1.879832e+002, 1.006215e+002
1.884653e+002, 1.002219e+002
1.889474e+002, 1.000172e+002
1.894296e+002, 9.992863e+001
1.899117e+002, 9.994021e+001
1.903938e+002, 1.000428e+002
1.908759e+002, 9.999984e+001
1.913580e+002, 9.964760e+001
1.918401e+002, 9.920127e+001
1.923223e+002, 9.894884e+001
1.928044e+002, 9.896291e+001
1.932865e+002, 9.895621e+001
1.937686e+002, 9.872210e+001
1.942507e+002, 9.827325e+001
1.947328e+002, 9.749447e+001
1.952150e+002, 9.591116e+001
1.956971e+002, 9.403963e+001
1.961792e+002, 9.298144e+001
1.966613e+002, 9.308852e+001
1.971434e+002, 9.344607e+001
1.976255e+002, 9.337776e+001
1.981077e+002, 9.300833e+001
1.985898e+002, 9.264150e+001
1.990719e+002, 9.252626e+001
1.995540e+002, 9.256478e+001
2.000361e+002, 9.231931e+001
2.005182e+002, 9.162461e+001
2.010004e+002, 9.084079e+001
2.014825e+002, 9.002231e+001
2.019646e+002, 8.926025e+001
2.024467e+002, 8.878846e+001
2.029288e+002, 8.895364e+001
2.034109e+002, 8.969519e+001
2.038930e+002, 8.994203e+001
2.043752e+002, 8.921876e+001
2.048573e+002, 8.845589e+001
2.053394e+002, 8.793449e+001
2.058215e+002, 8.765684e+001
2.063036e+002, 8.757353e+001
2.067857e+002, 8.772546e+001
2.072679e+002, 8.814201e+001
2.077500e+002, 8.821789e+001
2.082321e+002, 8.762513e+001
2.087142e+002, 8.696896e+001
2.091963e+002, 8.628200e+001
2.096784e+002, 8.566943e+001
2.101606e+002, 8.534358e+001
2.106427e+002, 8.557509e+001
2.111248e+002, 8.648795e+001
2.116069e+002, 8.682462e+001
2.120890e+002, 8.597665e+001
2.125711e+002, 8.517551e+001
2.130533e+002, 8.499454e+001
2.135354e+002, 8.533575e+001
2.140175e+002, 8.571629e+001
2.144996e+002, 8.567700e+001
2.149817e+002, 8.512465e+001
2.154638e+002, 8.480687e+001
2.159460e+002, 8.496033e+001
2.164281e+002, 8.508444e+001
2.169102e+002, 8.490189e+001
2.173923e+002, 8.443644e+001
2.178744e+002, 8.388619e+001
2.183565e+002, 8.340721e+001
2.188387e+002, 8.299844e+001
2.193208e+002, 8.280266e+001
2.198029e+002, 8.312705e+001
2.202850e+002, 8.339054e+001
2.207671e+002, 8.316363e+001
2.212492e+002, 8.247135e+001
2.217314e+002, 8.171285e+001
2.222135e+002, 8.123326e+001
2.226956e+002, 8.105717e+001
2.231777e+002, 8.079185e+001
2.236598e+002, 8.046099e+001
2.241419e+002, 8.002672e+001
2.246240e+002, 7.927891e+001
2.251062e+002, 7.824625e+001
2.255883e+002, 7.751696e+001
2.260704e+002, 7.771838e+001
2.265525e+002, 7.873954e+001
2.270346e+002, 7.947762e+001
2.275167e+002, 7.989379e+001
2.279989e+002, 7.998255e+001
2.284810e+002, 7.955570e+001
2.289631e+002, 7.858669e+001
2.294452e+002, 7.771915e+001
2.299273e+002, 7.749450e+001
2.304094e+002, 7.774697e+001
2.308916e+002, 7.800793e+001
2.313737e+002, 7.849242e+001
2.318558e+002, 7.879238e+001
2.323379e+002, 7.822791e+001
2.328200e+002, 7.665122e+001
2.333021e+002, 7.524760e+001
2.337843e+002, 7.493065e+001
2.342664e+002, 7.525542e+001
2.347485e+002, 7.560244e+001
2.352306e+002, 7.583945e+001
2.357127e+002, 7.601470e+001
2.361948e+002, 7.623973e+001
2.366770e+002, 7.656921e+001
2.371591e+002, 7.672132e+001
2.376412e+002, 7.643394e+001
2.381233e+002, 7.592333e+001
2.386054e+002, 7.538472e+001
2.390875e+002, 7.484000e+001
2.395697e+002, 7.434760e+001
2.400518e+002, 7.401847e+001
2.405339e+002, 7.388850e+001
2.410160e+002, 7.380629e+001
2.414981e+002, 7.365156e+001
2.419802e+002, 7.353790e+001
2.424624e+002, 7.365557e+001
2.429445e+002, 7.414034e+001
2.434266e+002, 7.465700e+001
2.439087e+002, 7.451658e+001
2.443908e+002, 7.336710e+001
2.448729e+002, 7.252792e+001
2.453550e+002, 7.265318e+001
2.458372e+002, 7.306927e+001
2.463193e+002, 7.315646e+001
2.468014e+002, 7.268809e+001
2.472835e+002, 7.204176e+001
2.477656e+002, 7.196008e+001
2.482477e+002, 7.286361e+001
2.487299e+002, 7.330771e+001
2.492120e+002, 7.267696e+001
2.496941e+002, 7.176398e+001
2.501762e+002, 7.121239e+001
2.506583e+002, 7.120985e+001
2.511404e+002, 7.140833e+001
2.516226e+002, 7.120841e+001
2.521047e+002, 7.042240e+001
2.525868e+002, 6.965059e+001
2.530689e+002, 6.877844e+001
2.535510e+002, 6.804386e+001
2.540331e+002, 6.762182e+001
2.545153e+002, 6.755439e+001
2.549974e+002, 6.774636e+001
2.554795e+002, 6.814742e+001
2.559616e+002, 6.915883e+001
2.564437e+002, 6.945647e+001
2.569258e+002, 6.855585e+001
2.574080e+002, 6.741383e+001
2.578901e+002, 6.657008e+001
2.583722e+002, 6.616171e+001
2.588543e+002, 6.607085e+001
2.593364e+002, 6.617614e+001
2.598185e+002, 6.661952e+001
2.603007e+002, 6.689641e+001
2.607828e+002, 6.702694e+001
2.612649e+002, 6.701887e+001
2.617470e+002, 6.675444e+001
2.622291e+002, 6.629094e+001
2.627112e+002, 6.591914e+001
2.631934e+002, 6.602961e+001
2.636755e+002, 6.690641e+001
2.641576e+002, 6.719765e+001
2.646397e+002, 6.669613e+001
2.651218e+002, 6.591112e+001
2.656039e+002, 6.485752e+001
2.660861e+002, 6.370148e+001
2.665682e+002, 6.290401e+001
2.670503e+002, 6.300901e+001
2.675324e+002, 6.426289e+001
2.680145e+002, 6.480556e+001
2.684966e+002, 6.426375e+001
2.689788e+002, 6.351118e+001
2.694609e+002, 6.284994e+001
2.699430e+002, 6.234145e+001
2.704251e+002, 6.202187e+001
2.709072e+002, 6.195966e+001
2.713893e+002, 6.217276e+001
2.718715e+002, 6.209961e+001
2.723536e+002, 6.140250e+001
2.728357e+002, 6.081300e+001
2.733178e+002, 6.077201e+001
2.737999e+002, 6.111794e+001
2.742820e+002, 6.136438e+001
2.747642e+002, 6.116338e+001
2.752463e+002, 6.056207e+001
2.757284e+002, 6.014928e+001
2.762105e+002, 6.029803e+001
2.766926e+002, 6.019208e+001
2.771747e+002, 5.922669e+001
2.776568e+002, 5.778816e+001
2.781389e+002, 5.676633e+001
2.786211e+002, 5.668090e+001
2.791032e+002, 5.732124e+001
2.795853e+002, 5.780639e+001
2.800674e+002, 5.827065e+001
2.805495e+002, 5.846992e+001
2.810316e+002, 5.811979e+001
2.815138e+002, 5.748913e+001
2.819959e+002, 5.704706e+001
2.824780e+002, 5.699605e+001
2.829601e+002, 5.724297e+001
2.834422e+002, 5.760081e+001
2.839243e+002, 5.829063e+001
2.844065e+002, 5.867864e+001
2.848886e+002, 5.839403e+001
2.853707e+002, 5.779274e+001
2.858528e+002, 5.738342e+001
2.863349e+002, 5.733253e+001
2.868170e+002, 5.751806e+001
2.872992e+002, 5.777764e+001
2.877813e+002, 5.816061e+001
2.882634e+002, 5.844367e+001
2.887455e+002, 5.857580e+001
2.892276e+002, 5.859404e+001
2.897097e+002, 5.848930e+001
2.901919e+002, 5.825216e+001
2.906740e+002, 5.804267e+001
2.911561e+002, 5.809429e+001
2.916382e+002, 5.845339e+001
2.921203e+002, 5.870691e+001
2.926024e+002, 5.866326e+001
2.930846e+002, 5.858162e+001
2.935667e+002, 5.869778e+001
2.940488e+002, 5.904380e+001
2.945309e+002, 5.956380e+001
2.950130e+002, 6.026626e+001
2.954951e+002, 6.115119e+001
2.959773e+002, 6.189692e+001
2.964594e+002, 6.229823e+001
2.969415e+002, 6.269666e+001
2.974236e+002, 6.340880e+001
2.979057e+002, 6.441868e+001
2.983878e+002, 6.541305e+001
2.988700e+002, 6.609354e+001
2.993521e+002, 6.657185e+001
2.998342e+002, 6.748338e+001
3.003163e+002, 6.916905e+001
3.007984e+002, 7.095780e+001
3.012805e+002, 7.247264e+001
3.017627e+002, 7.375601e+001
3.022448e+002, 7.504180e+001
3.027269e+002, 7.645541e+001
3.032090e+002, 7.796159e+001
3.036911e+002, 7.944676e+001
3.041732e+002, 8.086278e+001
3.046554e+002, 8.234486e+001
3.051375e+002, 8.445766e+001
3.056196e+002, 8.672164e+001
3.061017e+002, 8.774810e+001
3.065838e+002, 8.678923e+001
3.070659e+002, 8.476469e+001
3.075481e+002, 8.345559e+001
3.080302e+002, 8.300091e+001
3.085123e+002, 8.249928e+001
3.089944e+002, 8.148938e+001
3.094765e+002, 8.028066e+001
3.099586e+002, 7.938464e+001
3.104408e+002, 7.892329e+001
3.109229e+002, 7.883733e+001
3.114050e+002, 7.912468e+001
3.118871e+002, 7.977065e+001
3.123692e+002, 8.061128e+001
3.128513e+002, 8.167554e+001
3.133335e+002, 8.289017e+001
3.138156e+002, 8.416736e+001
3.142977e+002, 8.548947e+001
3.147798e+002, 8.694895e+001
3.152619e+002, 8.884614e+001
3.157440e+002, 9.109715e+001
3.162262e+002, 9.258134e+001
3.167083e+002, 9.306255e+001
3.171904e+002, 9.284428e+001
3.176725e+002, 9.211812e+001
3.181546e+002, 9.089951e+001
3.186367e+002, 8.920203e+001
3.191188e+002, 8.685894e+001
3.196010e+002, 8.404276e+001
3.200831e+002, 8.159844e+001
3.205652e+002, 7.997946e+001
3.210473e+002, 7.826032e+001
3.215294e+002, 7.569438e+001
3.220115e+002, 7.254839e+001
3.224937e+002, 6.974588e+001
3.229758e+002, 6.778786e+001
3.234579e+002, 6.637847e+001
3.239400e+002, 6.474940e+001
3.244221e+002, 6.258523e+001
3.249042e+002, 6.087463e+001
3.253864e+002, 6.030643e+001
3.258685e+002, 6.037856e+001
3.263506e+002, 6.011904e+001
3.268327e+002, 5.919507e+001
3.273148e+002, 5.796195e+001
3.277969e+002, 5.694683e+001
3.282791e+002, 5.616919e+001
3.287612e+002, 5.542902e+001
3.292433e+002, 5.458899e+001
3.297254e+002, 5.381796e+001
3.302075e+002, 5.335641e+001
3.306896e+002, 5.324584e+001
3.311718e+002, 5.325952e+001
3.316539e+002, 5.319340e+001
3.321360e+002, 5.303910e+001
3.326181e+002, 5.284949e+001
3.331002e+002, 5.254079e+001
3.335823e+002, 5.226300e+001
3.340645e+002, 5.215609e+001
3.345466e+002, 5.220550e+001
3.350287e+002, 5.226295e+001
3.355108e+002, 5.222668e+001
3.359929e+002, 5.210842e+001
3.364750e+002, 5.201170e+001
3.369572e+002, 5.222150e+001
3.374393e+002, 5.215786e+001
3.379214e+002, 5.123029e+001
3.384035e+002, 4.982838e+001
3.388856e+002, 4.892745e+001
3.393677e+002, 4.902676e+001
3.398499e+002, 4.978522e+001
3.403320e+002, 5.031150e+001
3.408141e+002, 5.055263e+001
3.412962e+002, 5.070252e+001
3.417783e+002, 5.085096e+001
3.422604e+002, 5.090892e+001
3.427426e+002, 5.066730e+001
3.432247e+002, 5.006635e+001
3.437068e+002, 4.943603e+001
3.441889e+002, 4.926391e+001
3.446710e+002, 4.979698e+001
3.451531e+002, 5.009118e+001
3.456353e+002, 5.002289e+001
3.461174e+002, 4.979512e+001
3.465995e+002, 4.947759e+001
3.470816e+002, 4.911908e+001
3.475637e+002, 4.887044e+001
3.480458e+002, 4.889705e+001
3.485280e+002, 4.921917e+001
3.490101e+002, 4.937706e+001
3.494922e+002, 4.915286e+001
3.499743e+002, 4.901134e+001
3.504564e+002, 4.917915e+001
3.509385e+002, 4.958718e+001
3.514207e+002, 5.009016e+001
3.519028e+002, 5.062477e+001
3.523849e+002, 5.113867e+001
3.528670e+002, 5.139989e+001
3.533491e+002, 5.119073e+001
3.538312e+002, 5.100065e+001
3.543134e+002, 5.068248e+001
3.547955e+002, 5.049395e+001
3.552776e+002, 5.086882e+001
3.557597e+002, 5.193666e+001
3.562418e+002, 5.321599e+001
3.567239e+002, 5.385555e+001
3.572061e+002, 5.322454e+001
3.576882e+002, 5.325551e+001
3.581703e+002, 5.453814e+001
3.586524e+002, 5.597741e+001
3.591345e+002, 5.688059e+001
3.596166e+002, 5.716877e+001
3.600987e+002, 5.706703e+001
3.605808e+002, 5.672212e+001
3.610630e+002, 5.605565e+001
3.615451e+002, 5.592591e+001
3.620272e+002, 5.712620e+001
3.625093e+002, 5.800624e+001
3.629914e+002, 5.799702e+001
3.634735e+002, 5.725992e+001
3.639557e+002, 5.611650e+001
3.644378e+002, 5.472891e+001
3.649199e+002, 5.318416e+001
3.654020e+002, 5.184409e+001
3.658841e+002, 5.066240e+001
3.663662e+002, 4.979368e+001
3.668484e+002, 4.951536e+001
3.673305e+002, 4.941103e+001
3.678126e+002, 4.899236e+001
3.682947e+002, 4.813054e+001
3.687768e+002, 4.720869e+001
3.692589e+002, 4.689385e+001
3.697411e+002, 4.752797e+001
3.702232e+002, 4.783775e+001
3.707053e+002, 4.755901e+001
3.711874e+002, 4.715514e+001
3.716695e+002, 4.680670e+001
3.721516e+002, 4.655188e+001
3.726338e+002, 4.638795e+001
3.731159e+002, 4.637465e+001
3.735980e+002, 4.650025e+001
3.740801e+002, 4.633838e+001
3.745622e+002, 4.560818e+001
3.750443e+002, 4.492328e+001
3.755265e+002, 4.445285e+001
3.760086e+002, 4.416272e+001
3.764907e+002, 4.398253e+001
3.769728e+002, 4.386351e+001
3.774549e+002, 4.386610e+001
3.779370e+002, 4.424797e+001
3.784192e+002, 4.531417e+001
3.789013e+002, 4.588179e+001
3.793834e+002, 4.510271e+001
3.798655e+002, 4.402276e+001
3.803476e+002, 4.344053e+001
3.808297e+002, 4.351376e+001
3.813119e+002, 4.385265e+001
3.817940e+002, 4.421232e+001
3.822761e+002, 4.458649e+001
3.827582e+002, 4.453564e+001
3.832403e+002, 4.364385e+001
3.837224e+002, 4.273592e+001
3.842046e+002, 4.232267e+001
3.846867e+002, 4.234872e+001
3.851688e+002, 4.258418e+001
3.856509e+002, 4.300659e+001
3.861330e+002, 4.353631e+001
3.866151e+002, 4.404649e+001
3.870973e+002, 4.459019e+001
3.875794e+002, 4.491332e+001
3.880615e+002, 4.469454e+001
3.885436e+002, 4.420414e+001
3.890257e+002, 4.380490e+001
3.895078e+002, 4.356506e+001
3.899900e+002, 4.342811e+001
3.904721e+002, 4.340258e+001
3.909542e+002, 4.346648e+001
3.914363e+002, 4.341328e+001
3.919184e+002, 4.305416e+001
3.924005e+002, 4.270607e+001
3.928827e+002, 4.295428e+001
3.933648e+002, 4.387561e+001
3.938469e+002, 4.439989e+001
3.943290e+002, 4.362296e+001
3.948111e+002, 4.234512e+001
3.952932e+002, 4.194090e+001
3.957754e+002, 4.266063e+001
3.962575e+002, 4.363402e+001
3.967396e+002, 4.420294e+001
3.972217e+002, 4.435107e+001
3.977038e+002, 4.423035e+001
3.981859e+002, 4.357524e+001
3.986681e+002, 4.288982e+001
3.991501e+002, 4.246404e+001
3.996323e+002, 4.228152e+001
4.001144e+002, 4.228723e+001
4.005965e+002, 4.250103e+001
4.010786e+002, 4.280927e+001
4.015607e+002, 4.286535e+001
4.020428e+002, 4.256156e+001
4.025250e+002, 4.224084e+001
4.030071e+002, 4.183011e+001
4.034892e+002, 4.149245e+001
4.039713e+002, 4.149386e+001
4.044534e+002, 4.187322e+001
4.049355e+002, 4.232975e+001
4.054177e+002, 4.250460e+001
4.058998e+002, 4.232439e+001
4.063819e+002, 4.220759e+001
4.068640e+002, 4.218309e+001
4.073461e+002, 4.218591e+001
4.078282e+002, 4.216488e+001
4.083104e+002, 4.214361e+001
4.087925e+002, 4.220055e+001
4.092746e+002, 4.239697e+001
4.097567e+002, 4.268267e+001
4.102388e+002, 4.282756e+001
4.107209e+002, 4.268925e+001
4.112031e+002, 4.258660e+001
4.116852e+002, 4.263725e+001
