##NAMES=Shortite
##RRUFFID=R050248
##IDEAL CHEMISTRY=Na_2_Ca_2_(CO_3_)_3_
##LOCALITY=Stauffer mine, Green River, Wyoming, USA
##OWNER=RRUFF
##SOURCE=Marcus Origlieri
##DESCRIPTION=Colorless wedge-shaped single crystal
##STATUS=The identification of this mineral has been confirmed by X-ray diffraction and chemical analysis
##URL=rruff.info/R050248
##MEASURED CHEMISTRY=Na_2.00_Ca_2.00_(CO_3_)_3_ ; CO2 not measured but estimated by difference and stoichiometry.
93.74609, 21.69589
94.22821, 21.05206
94.71033, 21.39471
95.19244, 22.54612
95.67456, 23.78834
96.15668, 24.64014
96.63879, 25.29889
97.12091, 26.54664
97.60303, 28.48787
98.08514, 30.78579
98.56726, 32.82171
99.04938, 34.58300
99.53149, 36.58826
100.0136, 39.17826
100.4957, 42.35241
100.9778, 45.56106
101.4600, 48.70839
101.9421, 51.88786
102.4242, 55.18410
102.9063, 58.50012
103.3884, 62.24355
103.8705, 66.74100
104.3527, 72.34081
104.8348, 77.81441
105.3169, 83.05097
105.7990, 88.04343
106.2811, 93.22252
106.7632, 98.34385
107.2454, 103.8484
107.7275, 110.0463
108.2096, 117.4471
108.6917, 124.9448
109.1738, 132.1579
109.6559, 138.9314
110.1381, 146.8559
110.6202, 155.8407
111.1023, 166.0853
111.5844, 177.7983
112.0665, 191.5600
112.5486, 206.3990
113.0308, 222.2892
113.5129, 239.6628
113.9950, 257.1651
114.4771, 274.6862
114.9592, 292.1481
115.4413, 309.6985
115.9235, 325.5225
116.4056, 342.7196
116.8877, 362.2476
117.3698, 384.0978
117.8519, 409.3232
118.3340, 439.7414
118.8162, 473.9953
119.2983, 508.6029
119.7804, 544.2303
120.2625, 579.0352
120.7446, 611.3762
121.2267, 641.3173
121.7089, 668.5716
122.1910, 691.4793
122.6731, 710.9121
123.1552, 730.7689
123.6373, 753.3610
124.1194, 777.6508
124.6016, 802.6767
125.0837, 826.2584
125.5658, 851.4113
126.0479, 880.0574
126.5300, 912.3102
127.0121, 950.0600
127.4943, 993.0485
127.9764, 1042.414
128.4585, 1102.015
128.9406, 1171.629
129.4227, 1252.306
129.9048, 1349.594
130.3869, 1464.809
130.8691, 1583.622
131.3512, 1702.338
131.8333, 1816.650
132.3154, 1901.209
132.7975, 1937.468
133.2796, 1932.438
133.7618, 1908.199
134.2439, 1854.865
134.7260, 1792.643
135.2081, 1759.137
135.6902, 1757.519
136.1723, 1788.625
136.6545, 1857.017
137.1366, 1961.776
137.6187, 2088.893
138.1008, 2252.043
138.5829, 2419.913
139.0650, 2542.721
139.5472, 2630.370
140.0293, 2642.659
140.5114, 2544.872
140.9935, 2315.800
141.4756, 2077.783
141.9577, 1824.440
142.4399, 1567.320
142.9220, 1354.775
143.4041, 1188.929
143.8862, 1057.717
144.3683, 953.7233
144.8504, 883.1339
145.3326, 825.8389
145.8147, 782.1046
146.2968, 750.6490
146.7789, 727.3849
147.2610, 714.1933
147.7431, 706.8195
148.2253, 702.0820
148.7074, 698.6807
149.1895, 699.7454
149.6716, 706.0157
150.1537, 717.4540
150.6358, 731.5339
151.1180, 748.1205
151.6001, 767.3173
152.0822, 789.0008
152.5643, 814.4016
153.0464, 840.9311
153.5285, 869.7941
154.0107, 901.6646
154.4928, 928.1168
154.9749, 952.4532
155.4570, 970.0051
155.9391, 976.2857
156.4212, 969.0629
156.9034, 952.4453
157.3855, 925.5076
157.8676, 886.7443
158.3497, 847.4788
158.8318, 806.5257
159.3139, 766.8195
159.7961, 731.8467
160.2782, 701.9916
160.7603, 677.3322
161.2424, 658.1278
161.7245, 644.7136
162.2066, 635.3411
162.6888, 629.9052
163.1709, 628.0266
163.6530, 629.1061
164.1351, 633.2253
164.6172, 639.9861
165.0993, 649.4211
165.5815, 662.0244
166.0636, 675.8571
166.5457, 689.8311
167.0278, 704.4105
167.5099, 720.5695
167.9921, 740.3578
168.4742, 761.0203
168.9563, 781.0284
169.4384, 801.4389
169.9205, 818.2266
170.4026, 830.1048
170.8848, 836.6150
171.3669, 836.1660
171.8490, 825.7666
172.3311, 808.8890
172.8132, 788.5281
173.2953, 763.6171
173.7775, 738.3032
174.2596, 714.4675
174.7417, 692.6381
175.2238, 675.3015
175.7059, 664.7446
176.1880, 659.5876
176.6702, 657.9182
177.1523, 658.9212
177.6344, 663.8046
178.1165, 673.3585
178.5986, 687.7641
179.0807, 707.6262
179.5629, 734.3184
180.0450, 766.9495
180.5271, 803.7117
181.0092, 846.2519
181.4913, 890.9544
181.9734, 935.2112
182.4556, 978.4806
182.9377, 1013.404
183.4198, 1034.689
183.9019, 1043.399
184.3840, 1041.764
184.8661, 1027.690
185.3483, 1005.945
185.8304, 982.6205
186.3125, 957.7951
186.7946, 936.7892
187.2767, 924.3659
187.7588, 919.7278
188.2409, 919.9311
188.7231, 924.5871
189.2052, 933.3234
189.6873, 945.8440
190.1694, 962.4100
190.6515, 980.7420
191.1336, 998.8698
191.6158, 1016.871
192.0979, 1035.326
192.5800, 1054.035
193.0621, 1073.511
193.5442, 1095.170
194.0263, 1118.943
194.5085, 1146.603
194.9906, 1178.798
195.4727, 1215.513
195.9548, 1259.679
196.4369, 1313.187
196.9190, 1374.655
197.4012, 1441.232
197.8833, 1515.787
198.3654, 1583.635
198.8475, 1629.447
199.3296, 1653.665
199.8117, 1654.458
200.2939, 1624.807
200.7760, 1569.365
201.2581, 1520.062
201.7402, 1476.490
202.2223, 1440.964
202.7044, 1417.682
203.1866, 1407.993
203.6687, 1401.921
204.1508, 1399.059
204.6329, 1398.738
205.1150, 1390.144
205.5971, 1372.161
206.0793, 1348.356
206.5614, 1322.461
207.0435, 1294.814
207.5256, 1264.558
208.0077, 1231.240
208.4898, 1194.885
208.9720, 1156.850
209.4541, 1116.511
209.9362, 1075.551
210.4183, 1036.102
210.9004, 999.0544
211.3825, 961.1536
211.8647, 920.6828
212.3468, 877.5640
212.8289, 836.8939
213.3110, 798.5167
213.7931, 762.6730
214.2752, 730.1522
214.7574, 700.8209
215.2395, 674.3975
215.7216, 650.6144
216.2037, 629.6816
216.6858, 611.2186
217.1679, 595.7096
217.6501, 581.9930
218.1322, 568.8268
218.6143, 555.7864
219.0964, 544.0632
219.5785, 534.3115
220.0606, 526.4929
220.5428, 519.1342
221.0249, 512.0139
221.5070, 505.6698
221.9891, 500.9667
222.4712, 498.4306
222.9533, 496.2470
223.4355, 494.1020
223.9176, 491.9705
224.3997, 489.7820
224.8818, 487.3231
225.3639, 485.0231
225.8460, 483.2804
226.3282, 482.0809
226.8103, 481.5375
227.2924, 481.8708
227.7745, 483.1469
228.2566, 483.9987
228.7387, 483.9599
229.2209, 483.9868
229.7030, 485.0931
230.1851, 487.5623
230.6672, 490.5859
231.1493, 494.0804
231.6314, 498.0555
232.1136, 502.1705
232.5957, 506.3752
233.0778, 510.7670
233.5599, 515.2759
234.0420, 519.3790
234.5241, 524.5984
235.0063, 531.2458
235.4884, 539.2623
235.9705, 548.3044
236.4526, 558.8985
236.9347, 570.0918
237.4168, 581.0007
237.8990, 591.1539
238.3811, 601.9075
238.8632, 613.5994
239.3453, 626.2635
239.8274, 638.4067
240.3095, 649.1522
240.7917, 660.4446
241.2738, 674.1102
241.7559, 691.4078
242.2380, 708.3881
242.7201, 723.5887
243.2022, 737.3591
243.6844, 754.4542
244.1665, 775.8163
244.6486, 799.5428
245.1307, 824.0901
245.6128, 848.7111
246.0949, 875.6981
246.5771, 905.3149
247.0592, 937.5507
247.5413, 972.3967
248.0234, 1009.550
248.5055, 1049.348
248.9876, 1091.740
249.4697, 1138.122
249.9519, 1184.602
250.4340, 1230.977
250.9161, 1277.160
251.3982, 1322.872
251.8803, 1367.662
252.3624, 1412.016
252.8446, 1455.607
253.3267, 1498.588
253.8088, 1541.297
254.2909, 1585.353
254.7730, 1629.316
255.2551, 1665.871
255.7373, 1692.392
256.2194, 1715.747
256.7015, 1739.437
257.1836, 1764.570
257.6657, 1787.252
258.1479, 1806.052
258.6300, 1822.548
259.1121, 1841.453
259.5942, 1861.139
260.0763, 1886.382
260.5584, 1919.225
261.0406, 1957.931
261.5227, 2008.650
262.0048, 2072.723
262.4869, 2148.122
262.9690, 2232.122
263.4511, 2324.253
263.9333, 2424.988
264.4154, 2536.657
264.8975, 2665.177
265.3796, 2786.743
265.8617, 2907.415
266.3438, 3016.899
266.8260, 3102.430
267.3081, 3169.511
267.7902, 3195.878
268.2723, 3171.352
268.7544, 3093.579
269.2365, 2977.563
269.7187, 2816.597
270.2008, 2626.350
270.6829, 2428.333
271.1650, 2218.440
271.6471, 2016.600
272.1292, 1831.084
272.6114, 1661.542
273.0935, 1511.788
273.5756, 1383.863
274.0577, 1274.457
274.5398, 1179.457
275.0219, 1100.373
275.5041, 1031.065
275.9862, 970.8269
276.4683, 919.3407
276.9504, 872.7167
277.4325, 831.1119
277.9146, 793.9459
278.3968, 760.8788
278.8788, 732.1245
279.3610, 706.4586
279.8431, 684.0949
280.3252, 664.8580
280.8073, 646.8390
281.2894, 630.0237
281.7715, 614.4899
282.2537, 600.4857
282.7358, 588.0294
283.2179, 576.2383
283.7000, 564.9167
284.1821, 554.1199
284.6642, 544.1516
285.1464, 534.9340
285.6285, 526.7394
286.1106, 520.0613
286.5927, 514.8068
287.0748, 509.7423
287.5569, 504.8009
288.0391, 499.7975
288.5212, 494.0727
289.0033, 487.5844
289.4854, 481.7549
289.9675, 477.9318
290.4496, 475.7401
290.9318, 473.0753
291.4139, 469.6797
291.8960, 465.8515
292.3781, 461.8282
292.8602, 457.6427
293.3423, 454.0463
293.8245, 451.8480
294.3066, 450.5648
294.7887, 448.5213
295.2708, 445.5231
295.7529, 442.3235
296.2350, 439.9493
296.7172, 438.2548
297.1993, 436.5098
297.6814, 434.0589
298.1635, 431.3599
298.6456, 429.4901
299.1277, 428.4835
299.6099, 427.8416
300.0920, 427.1729
300.5741, 426.4876
301.0562, 425.8621
301.5383, 425.7511
302.0204, 425.4711
302.5026, 423.6081
302.9847, 420.2222
303.4668, 417.0889
303.9489, 415.9683
304.4310, 416.0323
304.9131, 415.7176
305.3953, 414.1722
305.8774, 412.4898
306.3595, 412.0486
306.8416, 412.6351
307.3237, 413.1270
307.8058, 412.8250
308.2880, 411.9890
308.7701, 410.8846
309.2522, 409.4188
309.7343, 407.9807
310.2164, 406.7425
310.6985, 405.7504
311.1807, 405.1682
311.6628, 405.6059
312.1449, 406.2042
312.6270, 406.1330
313.1091, 405.1088
313.5912, 403.9865
314.0734, 403.1430
314.5555, 402.5412
315.0376, 402.1088
315.5197, 402.3124
316.0018, 402.2952
316.4839, 401.3150
316.9661, 399.1560
317.4482, 397.2725
317.9303, 396.3466
318.4124, 396.0212
318.8945, 395.8715
319.3766, 396.0678
319.8588, 396.1514
320.3409, 395.9611
320.8230, 395.4979
321.3051, 394.8344
321.7872, 393.7179
322.2693, 392.5655
322.7515, 391.7057
323.2336, 391.3979
323.7157, 391.1888
324.1978, 390.9893
324.6799, 390.8100
325.1620, 390.7086
325.6442, 390.5444
326.1263, 390.5579
326.6084, 390.9070
327.0905, 392.5351
327.5726, 393.2062
328.0547, 392.0817
328.5369, 389.8611
329.0190, 388.3595
329.5011, 387.7416
329.9832, 387.7202
330.4653, 388.3792
330.9474, 390.3341
331.4296, 391.3841
331.9117, 391.1449
332.3938, 390.1771
332.8759, 389.2642
333.3580, 388.4170
333.8401, 387.6004
334.3223, 386.7701
334.8044, 385.8966
335.2865, 385.3261
335.7686, 385.2043
336.2507, 385.2232
336.7328, 384.9793
337.2150, 384.1088
337.6971, 383.9871
338.1792, 385.1370
338.6613, 387.2707
339.1434, 388.6983
339.6255, 389.3896
340.1077, 389.4361
340.5898, 388.5383
341.0719, 386.4413
341.5540, 385.4142
342.0361, 385.7804
342.5182, 387.2337
343.0004, 389.6483
343.4825, 393.2990
343.9646, 395.7491
344.4467, 394.8260
344.9288, 390.8806
345.4109, 388.6056
345.8931, 388.3901
346.3752, 389.1758
346.8573, 389.8181
347.3394, 390.2910
347.8215, 390.1559
348.3036, 388.8253
348.7858, 386.8192
349.2679, 385.6195
349.7500, 385.2444
350.2321, 385.3640
350.7142, 386.1614
351.1964, 387.2641
351.6785, 387.5280
352.1606, 386.2695
352.6427, 384.3969
353.1248, 382.8871
353.6069, 381.7668
354.0891, 381.3002
354.5712, 382.3524
355.0533, 383.9550
355.5354, 384.5680
356.0175, 383.5201
356.4996, 382.4494
356.9818, 382.6069
357.4639, 383.8265
357.9460, 385.7104
358.4281, 388.7837
358.9102, 391.9854
359.3923, 394.9031
359.8745, 397.6711
360.3566, 398.4665
360.8387, 394.4218
361.3208, 388.3383
361.8029, 383.6973
362.2850, 382.3527
362.7672, 382.1049
363.2493, 382.3785
363.7314, 383.0830
364.2135, 383.5193
364.6956, 383.5961
365.1777, 383.2285
365.6599, 382.3266
366.1420, 379.6801
366.6241, 377.9603
367.1062, 378.2756
367.5883, 379.9623
368.0704, 381.0728
368.5526, 381.0310
369.0347, 380.6774
369.5168, 380.3172
369.9989, 379.9811
370.4810, 379.5830
370.9631, 378.8588
371.4453, 378.1832
371.9274, 378.1199
372.4095, 379.3780
372.8916, 380.1861
373.3737, 379.9127
373.8558, 378.4982
374.3380, 378.0240
374.8201, 379.0345
375.3022, 380.2474
375.7843, 380.4578
376.2664, 379.2187
376.7485, 378.5431
377.2307, 378.9383
377.7128, 379.9633
378.1949, 379.9969
378.6770, 378.7820
379.1591, 377.6166
379.6412, 377.2465
380.1234, 377.6714
380.6055, 378.4635
381.0876, 379.7901
381.5697, 380.9990
382.0518, 380.8158
382.5339, 379.3393
383.0161, 378.2393
383.4982, 378.4261
383.9803, 379.4535
384.4624, 380.0665
384.9445, 380.2627
385.4266, 380.1853
385.9088, 379.7323
386.3909, 379.1014
386.8730, 378.8509
387.3551, 379.3368
387.8372, 379.9414
388.3193, 379.7953
388.8015, 379.0634
389.2836, 378.4117
389.7657, 378.4261
390.2478, 378.6497
390.7299, 378.5084
391.2120, 377.8259
391.6942, 377.2474
392.1763, 377.4378
392.6584, 377.9886
393.1405, 378.2550
393.6226, 377.5898
394.1047, 376.9003
394.5869, 376.7028
395.0690, 376.9986
395.5511, 377.3251
396.0332, 377.5399
396.5153, 377.7027
396.9974, 377.8594
397.4796, 378.0471
397.9617, 378.1969
398.4438, 378.3339
398.9259, 378.4323
399.4080, 378.4087
399.8901, 378.0135
400.3723, 377.7120
400.8544, 377.6872
401.3365, 378.0248
401.8186, 378.3995
402.3007, 378.9783
402.7828, 379.4896
403.2649, 379.5733
403.7470, 379.0085
404.2292, 378.4167
404.7113, 377.8625
405.1934, 377.3634
405.6755, 377.1795
406.1576, 377.3807
406.6397, 377.7490
407.1219, 378.2226
407.6040, 378.8553
408.0861, 379.0962
408.5682, 378.7435
409.0503, 378.1982
409.5324, 378.4014
410.0146, 379.3824
410.4967, 380.0873
410.9788, 379.7233
411.4609, 378.6067
411.9430, 378.0869
412.4251, 378.1919
412.9073, 378.6200
413.3894, 379.2807
413.8715, 380.0374
414.3536, 380.4515
414.8357, 380.1699
415.3178, 379.7423
415.8000, 380.0377
416.2821, 380.8871
416.7642, 381.4990
417.2463, 381.3082
417.7284, 380.6596
418.2105, 379.8550
418.6927, 378.8808
419.1748, 377.9908
419.6569, 377.2840
420.1390, 376.7711
420.6211, 376.4806
421.1032, 376.6395
421.5854, 376.8285
422.0675, 376.6137
422.5496, 376.0384
423.0317, 376.2237
423.5138, 378.9354
423.9959, 381.5617
424.4781, 382.3992
424.9602, 379.1197
425.4423, 376.7581
425.9244, 376.1127
426.4065, 376.5583
426.8886, 376.6985
427.3708, 376.1843
427.8529, 375.7946
428.3350, 375.7560
428.8171, 376.0882
429.2992, 376.6966
429.7813, 377.8119
430.2635, 378.8990
430.7456, 379.3457
431.2277, 378.9488
431.7098, 378.7528
432.1919, 378.9513
432.6740, 379.4543
433.1562, 380.0992
433.6383, 380.9302
434.1204, 381.4879
434.6025, 381.3812
435.0846, 380.7083
435.5667, 380.0637
436.0489, 379.4637
436.5310, 378.8998
437.0131, 378.2819
437.4952, 377.6759
437.9773, 377.3242
438.4594, 377.3890
438.9416, 377.7042
439.4237, 378.0586
439.9058, 378.4678
440.3879, 378.9948
440.8700, 380.0799
441.3521, 381.1285
441.8343, 381.4141
442.3164, 380.5871
442.7985, 379.6687
443.2806, 379.0992
443.7627, 378.8530
444.2448, 378.8765
444.7270, 379.4919
445.2091, 380.0539
445.6912, 380.3355
446.1733, 380.3220
446.6554, 380.0781
447.1375, 378.8692
447.6197, 377.9209
448.1018, 378.0185
448.5839, 380.8794
449.0660, 382.5408
449.5481, 382.4345
450.0302, 381.2564
450.5124, 380.4838
450.9945, 380.3552
451.4766, 380.2167
451.9587, 379.7631
452.4408, 378.9554
452.9229, 378.8773
453.4051, 379.8453
453.8872, 380.8028
454.3693, 380.4523
454.8514, 378.6893
455.3335, 378.0047
455.8156, 379.1004
456.2978, 381.0020
456.7799, 381.7352
457.2620, 381.3690
457.7441, 380.7562
458.2262, 380.0672
458.7083, 379.5095
459.1905, 379.7900
459.6726, 380.9742
460.1547, 381.9205
460.6368, 381.1352
461.1189, 379.5489
461.6010, 378.7210
462.0832, 379.5478
462.5653, 380.6508
463.0474, 380.9907
463.5295, 380.7935
464.0116, 380.6829
464.4937, 381.0627
464.9759, 381.5175
465.4580, 381.6826
465.9401, 381.3855
466.4222, 381.6100
466.9043, 383.6505
467.3864, 385.8252
467.8686, 386.5498
468.3507, 384.2383
468.8328, 382.1289
469.3149, 380.1299
469.7970, 378.5130
470.2791, 378.4867
470.7613, 381.3520
471.2434, 383.8378
471.7255, 384.3779
472.2076, 382.5515
472.6897, 381.4583
473.1718, 381.1946
473.6540, 381.4319
474.1361, 381.9081
474.6182, 382.6377
475.1003, 383.1998
475.5824, 383.4376
476.0645, 383.5117
476.5467, 383.8547
477.0288, 384.4379
477.5109, 384.9057
477.9930, 384.9499
478.4751, 384.7422
478.9572, 384.6642
479.4394, 384.7607
479.9215, 384.7372
480.4036, 384.2299
480.8857, 383.4656
481.3678, 382.7726
481.8499, 382.1241
482.3321, 381.7426
482.8142, 382.0463
483.2963, 382.7863
483.7784, 383.1737
484.2605, 382.5289
484.7426, 381.7726
485.2248, 381.3371
485.7069, 381.2979
486.1890, 381.4781
486.6711, 382.1417
487.1532, 382.8737
487.6353, 383.2933
488.1175, 383.2623
488.5996, 383.1195
489.0817, 382.8371
489.5638, 382.4688
490.0459, 382.1746
490.5280, 381.9301
491.0102, 381.7975
491.4923, 381.7346
491.9744, 381.7338
492.4565, 382.2992
492.9386, 383.5706
493.4207, 384.8214
493.9029, 385.1185
494.3850, 384.6122
494.8671, 384.2729
495.3492, 384.3145
495.8313, 384.6034
496.3134, 385.0775
496.7956, 385.6660
497.2777, 386.1038
497.7598, 386.3187
498.2419, 386.2742
498.7240, 385.7957
499.2061, 384.8827
499.6883, 384.0985
500.1704, 383.8395
500.6525, 383.8422
501.1346, 383.8500
501.6167, 383.6577
502.0988, 383.6862
502.5810, 384.4123
503.0631, 385.4110
503.5452, 385.7902
504.0273, 384.6364
504.5094, 383.6407
504.9915, 383.2014
505.4737, 383.3204
505.9558, 383.7212
506.4379, 384.6212
506.9200, 385.4902
507.4021, 385.9758
507.8842, 386.0591
508.3664, 385.8031
508.8485, 385.0797
509.3306, 384.2568
509.8127, 383.9898
510.2948, 384.2753
510.7769, 384.6621
511.2591, 385.1047
511.7412, 385.4879
512.2233, 385.5078
512.7054, 385.1848
513.1875, 384.6762
513.6696, 383.7213
514.1517, 382.7875
514.6339, 382.6599
515.1160, 383.5982
515.5981, 384.5811
516.0802, 384.8496
516.5623, 384.7511
517.0444, 384.7518
517.5266, 385.2718
518.0087, 385.6333
518.4908, 385.5992
518.9729, 385.1984
519.4550, 384.5882
519.9371, 382.8281
520.4193, 381.7555
520.9014, 382.4008
521.3835, 385.5157
521.8656, 387.0401
522.3477, 386.2281
522.8298, 384.6526
523.3120, 383.7784
523.7941, 383.7088
524.2762, 383.9966
524.7583, 384.7287
525.2404, 385.6290
525.7225, 386.0683
526.2047, 386.0545
526.6868, 385.7861
527.1689, 385.1743
527.6510, 384.4113
528.1331, 383.9194
528.6152, 383.6987
529.0974, 383.8423
529.5795, 384.8215
530.0616, 386.0770
530.5437, 386.7761
531.0258, 386.6435
531.5079, 386.2937
531.9901, 385.9489
532.4722, 385.6681
532.9543, 385.5458
533.4364, 385.8911
533.9185, 386.1095
534.4006, 385.8093
534.8828, 385.0819
535.3649, 384.8198
535.8470, 385.5552
536.3291, 386.3255
536.8112, 386.7345
537.2933, 386.6996
537.7755, 386.5671
538.2576, 386.1901
538.7397, 385.9155
539.2218, 386.2487
539.7039, 387.2638
540.1860, 388.0802
540.6682, 388.5622
541.1503, 388.7134
541.6324, 388.3904
542.1145, 387.6468
542.5966, 386.9919
543.0787, 386.5713
543.5609, 386.4552
544.0430, 387.0078
544.5251, 388.1773
545.0072, 389.0668
545.4893, 388.9453
545.9714, 388.2592
546.4536, 387.3515
546.9357, 386.0293
547.4178, 385.1927
547.8999, 385.4495
548.3820, 386.3416
548.8641, 387.2372
549.3463, 388.4027
549.8284, 389.1175
550.3105, 388.9724
550.7926, 388.1746
551.2747, 387.8355
551.7568, 388.1607
552.2390, 388.6003
552.7211, 389.0213
553.2032, 389.4682
553.6853, 389.2108
554.1674, 388.0466
554.6495, 386.8079
555.1317, 386.4063
555.6138, 386.7473
556.0959, 387.0844
556.5780, 387.3047
557.0601, 387.4502
557.5422, 387.6600
558.0244, 387.8573
558.5065, 387.8091
558.9886, 386.9766
559.4707, 386.1734
559.9528, 386.2201
560.4349, 386.9923
560.9171, 387.7139
561.3992, 388.1666
561.8813, 388.3517
562.3634, 388.0915
562.8455, 386.9771
563.3276, 386.6661
563.8098, 388.2281
564.2919, 390.1667
564.7740, 391.1637
565.2561, 390.8165
565.7382, 390.2523
566.2203, 389.3524
566.7025, 388.4286
567.1846, 388.4506
567.6667, 389.5777
568.1488, 390.5162
568.6309, 390.7293
569.1130, 390.3682
569.5952, 389.8068
570.0773, 389.0511
570.5594, 388.5089
571.0415, 388.6184
571.5236, 389.0931
572.0057, 389.5095
572.4879, 389.8386
572.9700, 389.9846
573.4521, 389.7128
573.9342, 389.2777
574.4163, 388.9901
574.8984, 389.1034
575.3806, 389.1849
575.8627, 388.8505
576.3448, 388.3745
576.8269, 388.5372
577.3090, 390.5342
577.7911, 391.8287
578.2733, 391.4258
578.7554, 389.3798
579.2375, 388.4393
579.7196, 388.8862
580.2017, 389.7577
580.6838, 390.4054
581.1660, 390.8315
581.6481, 391.6847
582.1302, 393.1732
582.6123, 394.2920
583.0944, 393.3434
583.5765, 391.0246
584.0587, 389.2992
584.5408, 388.7733
585.0229, 388.9790
585.5050, 389.9327
585.9871, 391.2780
586.4692, 392.1306
586.9514, 391.5794
587.4335, 390.9252
587.9156, 390.8623
588.3977, 391.3877
588.8798, 391.9113
589.3619, 392.4160
589.8441, 392.8048
590.3262, 392.9878
590.8083, 392.8275
591.2904, 392.9751
591.7725, 393.7311
592.2546, 394.3738
592.7368, 393.9356
593.2189, 392.2574
593.7010, 391.0602
594.1831, 390.6252
594.6652, 390.7494
595.1473, 391.2990
595.6295, 392.1690
596.1116, 392.8103
596.5937, 392.8056
597.0758, 392.5712
597.5579, 392.7053
598.0400, 393.1160
598.5222, 393.3343
599.0043, 392.9848
599.4864, 392.4505
599.9685, 391.9257
600.4506, 391.4081
600.9327, 391.1127
601.4149, 390.8080
601.8970, 390.9384
602.3791, 391.9010
602.8612, 394.7306
603.3433, 396.4059
603.8254, 396.4635
604.3076, 395.6763
604.7897, 395.2908
605.2718, 395.3802
605.7539, 395.2367
606.2360, 394.5547
606.7181, 393.6415
607.2003, 393.2153
607.6824, 393.2421
608.1645, 393.5092
608.6466, 394.0934
609.1287, 394.7445
609.6108, 395.1885
610.0930, 395.4115
610.5751, 395.3448
611.0572, 394.5287
611.5393, 393.6812
612.0214, 393.4353
612.5035, 394.1629
612.9857, 394.7024
613.4678, 394.7493
613.9499, 394.5522
614.4320, 394.3688
614.9141, 394.2072
615.3962, 394.0216
615.8784, 393.7097
616.3605, 393.4434
616.8426, 393.6504
617.3247, 394.3613
617.8068, 395.2091
618.2889, 396.2444
618.7711, 397.1960
619.2532, 397.0759
619.7353, 396.0261
620.2174, 395.2694
620.6995, 396.2072
621.1816, 397.5390
621.6638, 397.3945
622.1459, 395.6299
622.6280, 394.5104
623.1101, 396.0530
623.5922, 398.2062
624.0743, 399.3391
624.5565, 398.7588
625.0386, 397.9824
625.5207, 396.7829
626.0028, 395.6882
626.4849, 395.4461
626.9670, 396.6701
627.4492, 397.0795
627.9313, 396.0474
628.4134, 394.2762
628.8955, 393.4034
629.3776, 393.4381
629.8597, 393.8566
630.3419, 394.7227
630.8240, 395.6744
631.3061, 395.8095
631.7882, 395.2638
632.2703, 394.9117
632.7524, 395.6032
633.2346, 396.5424
633.7167, 396.9741
634.1988, 396.7816
634.6809, 396.6886
635.1630, 397.0024
635.6451, 397.4714
636.1273, 397.9489
636.6094, 398.7291
637.0915, 398.8932
637.5736, 398.1097
638.0557, 397.0060
638.5378, 396.3385
639.0200, 396.1292
639.5021, 396.2480
639.9842, 396.7770
640.4663, 397.4718
640.9484, 397.8506
641.4305, 397.9521
641.9127, 398.0216
642.3948, 398.0984
642.8769, 398.2553
643.3590, 398.6481
643.8411, 399.2255
644.3232, 399.7475
644.8054, 400.0143
645.2875, 400.2517
645.7696, 400.6414
646.2517, 401.2176
646.7338, 401.6425
647.2159, 401.6949
647.6981, 401.7160
648.1802, 401.9663
648.6623, 402.7621
649.1444, 402.6187
649.6265, 401.0902
650.1086, 399.5082
650.5908, 399.7148
651.0729, 401.5719
651.5550, 402.9696
652.0371, 403.4738
652.5192, 403.5406
653.0013, 403.7116
653.4835, 403.9254
653.9656, 404.0341
654.4477, 403.8872
654.9298, 403.7117
655.4119, 403.7332
655.8940, 403.8551
656.3762, 403.7774
656.8583, 403.0727
657.3404, 402.5033
657.8225, 402.3889
658.3046, 402.7024
658.7867, 402.8990
659.2689, 402.8456
659.7510, 402.9279
660.2331, 403.5621
660.7152, 404.7484
661.1973, 404.8597
661.6794, 403.7641
662.1616, 402.5648
662.6437, 402.3096
663.1258, 402.7163
663.6079, 403.1678
664.0900, 403.5720
664.5721, 404.0145
665.0543, 404.5597
665.5364, 405.1897
666.0185, 405.8839
666.5006, 406.6980
666.9827, 407.4937
667.4648, 408.3713
667.9470, 409.1734
668.4291, 409.6034
668.9112, 409.4766
669.3933, 409.2793
669.8754, 408.9642
670.3575, 408.6940
670.8397, 409.2025
671.3218, 410.5512
671.8039, 411.6355
672.2860, 411.8506
672.7681, 411.4793
673.2502, 410.8092
673.7324, 409.9623
674.2145, 409.8256
674.6966, 412.0094
675.1787, 414.4657
675.6608, 415.0199
676.1429, 413.3398
676.6251, 412.6198
677.1072, 414.6264
677.5893, 417.3724
678.0714, 419.4604
678.5535, 420.3217
679.0356, 422.0383
679.5178, 424.6693
679.9999, 428.0645
680.4820, 432.1854
680.9641, 437.1008
681.4462, 441.8047
681.9283, 446.2851
682.4105, 450.2548
682.8926, 453.1271
683.3747, 455.1524
683.8568, 456.8208
684.3389, 458.0123
684.8210, 459.3932
685.3032, 461.5441
685.7853, 464.2566
686.2674, 467.0840
686.7495, 468.9994
687.2316, 472.0155
687.7137, 476.6348
688.1959, 482.8092
688.6780, 490.4176
689.1601, 499.0863
689.6422, 510.2816
690.1243, 525.1526
690.6064, 543.2349
691.0886, 560.5057
691.5707, 577.0115
692.0528, 593.1663
692.5349, 608.2428
693.0170, 623.8619
693.4991, 643.1973
693.9813, 666.3078
694.4634, 691.0674
694.9455, 722.6551
695.4276, 750.8113
695.9097, 769.6409
696.3918, 782.5751
696.8740, 772.4620
697.3561, 720.5896
697.8382, 656.7786
698.3203, 602.5098
698.8024, 557.5781
699.2845, 523.3875
699.7667, 501.5118
700.2488, 487.9955
700.7309, 478.9812
701.2130, 474.0885
701.6951, 470.9378
702.1772, 468.8969
702.6594, 468.4984
703.1415, 470.4700
703.6236, 474.5204
704.1057, 480.0958
704.5878, 487.2321
705.0699, 495.5859
705.5521, 505.8626
706.0342, 517.3738
706.5163, 527.7090
706.9984, 535.3364
707.4805, 543.9166
707.9626, 554.2745
708.4448, 566.3257
708.9269, 579.9225
709.4090, 595.0771
709.8911, 610.8417
710.3732, 632.0656
710.8553, 652.3118
711.3374, 652.1609
711.8195, 633.1132
712.3016, 607.9852
712.7838, 577.7724
713.2659, 550.3865
713.7480, 531.7918
714.2301, 522.5383
714.7122, 521.0648
715.1943, 529.8539
715.6765, 543.9865
716.1586, 561.5967
716.6407, 585.7146
717.1228, 601.5765
717.6049, 607.6596
718.0870, 608.9421
718.5692, 608.4464
719.0513, 606.5689
719.5334, 607.8848
720.0155, 613.3060
720.4976, 619.2203
720.9797, 622.2000
721.4619, 623.0618
721.9440, 622.7221
722.4261, 619.9719
722.9082, 619.4271
723.3903, 620.3796
723.8724, 625.7963
724.3546, 639.6223
724.8367, 660.7701
725.3188, 693.3008
725.8009, 742.6141
726.2830, 800.4935
726.7651, 851.6671
727.2473, 896.5583
727.7294, 936.6010
728.2115, 969.9349
728.6936, 1001.998
729.1757, 1041.421
729.6578, 1087.635
730.1400, 1137.664
730.6221, 1223.410
731.1042, 1283.406
731.5863, 1273.032
732.0684, 1201.053
732.5505, 1096.858
733.0327, 922.8751
733.5148, 766.7071
733.9969, 653.6344
734.4790, 581.2701
734.9611, 529.0441
735.4432, 499.8061
735.9254, 481.0607
736.4075, 469.1877
736.8896, 462.8673
737.3717, 457.2160
737.8538, 452.2889
738.3359, 448.1929
738.8181, 445.1379
739.3002, 442.8825
739.7823, 441.3426
740.2644, 440.4927
740.7465, 439.7629
741.2286, 438.9457
741.7108, 438.1712
742.1929, 437.4385
742.6750, 436.6600
743.1571, 436.4554
743.6392, 437.1170
744.1213, 437.7582
744.6035, 437.5745
745.0856, 436.6332
745.5677, 435.9901
746.0498, 435.6968
746.5319, 435.7620
747.0140, 436.7740
747.4962, 437.9438
747.9783, 437.9528
748.4604, 436.3601
748.9425, 434.7181
749.4246, 433.4917
749.9067, 432.7456
750.3889, 432.5858
750.8710, 433.7369
751.3531, 434.1478
751.8352, 433.4589
752.3173, 432.4870
752.7994, 432.1974
753.2816, 432.5992
753.7637, 433.2299
754.2458, 434.1477
754.7279, 434.8399
755.2100, 434.3276
755.6921, 433.1715
756.1743, 432.5094
756.6564, 432.8884
757.1385, 433.4502
757.6206, 433.8449
758.1027, 434.1093
758.5848, 434.2875
759.0670, 434.2341
759.5491, 434.3258
760.0312, 434.6666
760.5133, 435.1245
760.9954, 435.4185
761.4775, 435.5342
761.9597, 435.7765
762.4418, 436.2678
762.9239, 436.8448
763.4060, 437.3185
763.8881, 437.6568
764.3702, 437.7790
764.8524, 437.1934
765.3345, 436.8348
765.8166, 437.5333
766.2987, 438.8376
766.7808, 439.5918
767.2629, 439.1382
767.7451, 438.7357
768.2272, 438.6828
768.7093, 438.8102
769.1914, 438.3884
769.6735, 437.3175
770.1556, 436.8837
770.6378, 437.8895
771.1199, 439.5491
771.6020, 440.5641
772.0841, 440.9728
772.5662, 440.9161
773.0483, 439.8157
773.5305, 438.8681
774.0126, 438.8996
774.4947, 439.7568
774.9768, 440.5627
775.4589, 441.4026
775.9410, 441.8995
776.4232, 441.8438
776.9053, 441.3453
777.3874, 441.0332
777.8695, 440.9150
778.3516, 440.8862
778.8337, 440.8906
779.3159, 440.9519
779.7980, 441.1814
780.2801, 441.5369
780.7622, 441.8044
781.2443, 441.6110
781.7264, 441.5103
782.2086, 442.0356
782.6907, 443.1494
783.1728, 443.6756
783.6549, 443.1895
784.1370, 442.5828
784.6191, 442.0461
785.1013, 441.6325
785.5834, 442.0038
786.0655, 443.2091
786.5476, 444.3614
787.0297, 444.6429
787.5118, 444.5923
787.9940, 445.3800
788.4761, 446.8683
788.9582, 447.8407
789.4403, 447.1300
789.9224, 446.1157
790.4045, 445.5237
790.8867, 445.4212
791.3688, 445.6567
791.8509, 446.5157
792.3330, 447.2209
792.8151, 447.3072
793.2972, 446.8517
793.7794, 446.6525
794.2615, 446.7085
794.7436, 447.1563
795.2257, 448.7207
795.7078, 450.3990
796.1899, 450.5700
796.6721, 449.2766
797.1542, 448.0871
797.6363, 447.8385
798.1184, 447.8035
798.6005, 447.4695
799.0826, 446.7609
799.5648, 446.7344
800.0469, 447.5540
800.5290, 448.6813
801.0111, 450.2035
801.4932, 451.8934
801.9753, 451.7336
802.4575, 449.7862
802.9396, 448.1506
803.4217, 448.7547
803.9038, 450.1966
804.3859, 451.1646
804.8680, 451.5583
805.3502, 451.5351
805.8323, 450.6049
806.3144, 449.7769
806.7965, 449.5854
807.2786, 450.0630
807.7607, 450.4924
808.2429, 450.9027
808.7250, 451.1743
809.2071, 451.0016
809.6892, 450.6400
810.1713, 451.1440
810.6534, 452.4406
811.1356, 453.5188
811.6177, 453.4253
812.0998, 453.0533
812.5819, 453.1763
813.0640, 453.8585
813.5461, 454.1771
814.0283, 453.4763
814.5104, 452.9657
814.9925, 453.2124
815.4746, 454.1848
815.9567, 454.8846
816.4388, 455.2666
816.9210, 455.8589
817.4031, 457.7629
817.8852, 459.8163
818.3673, 459.4632
818.8494, 456.9588
819.3315, 454.6683
819.8137, 453.6570
820.2958, 453.3966
820.7779, 453.8272
821.2600, 454.9613
821.7421, 455.7653
822.2242, 456.0055
822.7064, 456.3968
823.1885, 457.4411
823.6706, 458.9086
824.1527, 459.5752
824.6348, 459.4651
825.1169, 459.0660
825.5991, 458.3119
826.0812, 457.6758
826.5633, 457.8643
827.0454, 458.7096
827.5275, 459.1385
828.0096, 457.9098
828.4918, 457.1471
828.9739, 457.8734
829.4560, 459.8205
829.9381, 460.9888
830.4202, 461.2783
830.9023, 461.3207
831.3845, 461.3001
831.8666, 461.3006
832.3487, 461.5365
832.8308, 461.9787
833.3129, 462.4755
833.7950, 463.0881
834.2772, 463.6050
834.7593, 463.9429
835.2414, 464.0908
835.7235, 463.9508
836.2056, 463.1431
836.6877, 462.6865
837.1699, 462.8498
837.6520, 463.5373
838.1341, 464.7403
838.6162, 466.4026
839.0983, 467.4267
839.5804, 467.0919
840.0626, 466.1703
840.5447, 465.1063
841.0268, 464.1692
841.5089, 464.0631
841.9910, 466.1483
842.4731, 467.8131
842.9553, 468.1490
843.4374, 467.6262
843.9195, 467.1739
844.4016, 466.8648
844.8837, 466.2215
845.3658, 464.9167
845.8480, 463.6370
846.3301, 463.5947
846.8122, 464.5765
847.2943, 466.0421
847.7764, 468.2745
848.2585, 470.2034
848.7407, 470.5164
849.2228, 470.3192
849.7049, 471.4061
850.1870, 475.0077
850.6691, 477.9978
851.1512, 479.9672
851.6334, 481.4493
852.1155, 483.2892
852.5976, 485.4205
853.0797, 487.2224
853.5618, 488.5336
854.0439, 489.7010
854.5261, 490.9827
855.0082, 492.3675
855.4903, 493.7970
855.9724, 494.9166
856.4545, 496.8407
856.9366, 500.5383
857.4188, 504.5022
857.9009, 506.9328
858.3830, 507.1144
858.8651, 510.4474
859.3472, 517.3928
859.8293, 526.7448
860.3115, 538.2274
860.7936, 550.9762
861.2757, 562.8713
861.7578, 573.5608
862.2399, 585.2970
862.7220, 598.4356
863.2042, 613.7371
863.6863, 633.9909
864.1684, 661.2396
864.6505, 680.4193
865.1326, 693.7408
865.6147, 692.7291
866.0969, 664.5325
866.5790, 616.3358
867.0611, 576.2688
867.5432, 544.4859
868.0253, 520.6026
868.5074, 506.6677
868.9896, 498.0466
869.4717, 492.4256
869.9538, 489.4829
870.4359, 487.1679
870.9180, 485.3411
871.4001, 483.8934
871.8823, 482.7579
872.3644, 481.9628
872.8465, 481.8803
873.3286, 482.4605
873.8107, 482.8208
874.2928, 482.3395
874.7750, 481.4909
875.2571, 480.4118
875.7392, 479.3498
876.2213, 479.1046
876.7034, 480.8979
877.1855, 482.3978
877.6677, 483.0067
878.1498, 482.9848
878.6319, 482.9799
879.1140, 483.0170
879.5961, 482.8341
880.0782, 482.2770
880.5604, 481.6577
881.0425, 481.4933
881.5246, 481.6025
882.0067, 481.6003
882.4888, 481.1901
882.9709, 480.9064
883.4531, 481.0452
883.9352, 481.3525
884.4173, 481.5040
884.8994, 481.4447
885.3815, 481.3560
885.8636, 481.1873
886.3458, 481.1651
886.8279, 481.7556
887.3100, 482.6785
887.7921, 483.2099
888.2742, 483.1625
888.7563, 483.1699
889.2385, 483.6737
889.7206, 484.3505
890.2027, 484.8792
890.6848, 485.0818
891.1669, 485.9501
891.6490, 487.9276
892.1312, 489.5008
892.6133, 489.3154
893.0954, 487.7807
893.5775, 486.3578
894.0596, 485.1100
894.5417, 484.6114
895.0239, 485.9004
895.5060, 487.5026
895.9881, 488.2083
896.4702, 488.0389
896.9523, 488.3947
897.4344, 489.8726
897.9166, 490.9630
898.3987, 491.0882
898.8808, 490.4652
899.3629, 489.7021
899.8450, 488.8264
900.3271, 488.0765
900.8093, 487.2962
901.2914, 486.9709
901.7735, 487.8942
902.2556, 489.5360
902.7377, 490.7931
903.2198, 491.1478
903.7020, 491.3844
904.1841, 491.4004
904.6662, 491.5241
905.1483, 492.5978
905.6304, 494.5380
906.1125, 495.5150
906.5947, 495.0164
907.0768, 494.2124
907.5589, 494.3855
908.0410, 494.9169
908.5231, 495.0210
909.0052, 494.3481
909.4874, 493.6868
909.9695, 492.7910
910.4516, 492.3178
910.9337, 492.9989
911.4158, 494.9064
911.8979, 495.8733
912.3801, 495.8249
912.8622, 495.6085
913.3443, 496.1276
913.8264, 496.7187
914.3085, 496.4734
914.7906, 495.4000
915.2728, 494.5071
915.7549, 494.1405
916.2370, 493.9595
916.7191, 493.6219
917.2012, 493.3517
917.6833, 494.9798
918.1655, 498.5876
918.6476, 500.8343
919.1297, 499.2668
919.6118, 496.6283
920.0939, 496.7808
920.5760, 498.6702
921.0582, 499.8302
921.5403, 498.2702
922.0224, 497.3607
922.5045, 497.9933
922.9866, 499.4315
923.4688, 500.7809
923.9509, 502.0797
924.4330, 502.4977
924.9151, 501.6907
925.3972, 500.8860
925.8793, 501.8377
926.3615, 503.5186
926.8436, 504.2915
927.3257, 503.5148
927.8078, 503.2170
928.2899, 504.6433
928.7720, 506.1305
929.2542, 506.7626
929.7363, 506.5110
930.2184, 505.7373
930.7005, 504.3849
931.1826, 503.3922
931.6647, 503.7685
932.1469, 504.7230
932.6290, 505.2311
933.1111, 505.3614
933.5932, 505.6232
934.0753, 506.6973
934.5574, 507.3343
935.0396, 506.8725
935.5217, 505.8049
936.0038, 505.8048
936.4859, 506.8956
936.9680, 508.1515
937.4501, 509.3918
937.9323, 510.4278
938.4144, 510.7263
938.8965, 510.7064
939.3786, 511.1039
939.8607, 512.7418
940.3428, 513.7601
940.8250, 513.4286
941.3071, 512.7717
941.7892, 512.7585
942.2713, 513.4091
942.7534, 514.0317
943.2355, 514.5850
943.7177, 515.1730
944.1998, 516.1762
944.6819, 517.0999
945.1640, 517.0141
945.6461, 515.8334
946.1282, 515.8705
946.6104, 519.5229
947.0925, 522.2674
947.5746, 522.1245
948.0567, 519.7817
948.5388, 518.7007
949.0209, 518.8577
949.5031, 519.7855
949.9852, 522.0313
950.4673, 524.1046
950.9494, 524.2227
951.4315, 523.1118
951.9136, 522.2103
952.3958, 521.5685
952.8779, 521.6467
953.3600, 522.7160
953.8421, 524.2178
954.3242, 525.4897
954.8063, 526.5228
955.2885, 527.2878
955.7706, 527.7510
956.2527, 528.1776
956.7348, 528.7840
957.2169, 529.4601
957.6990, 530.1238
958.1811, 530.7776
958.6632, 531.3396
959.1453, 531.9092
959.6274, 532.1790
960.1096, 531.7509
960.5917, 530.9174
961.0738, 530.9890
961.5559, 531.8716
962.0380, 533.0111
962.5201, 534.4246
963.0023, 535.6865
963.4844, 536.5082
963.9665, 536.9969
964.4486, 537.4730
964.9307, 538.1526
965.4128, 538.2454
965.8950, 537.3989
966.3771, 536.4574
966.8592, 536.8082
967.3413, 538.0204
967.8234, 539.0629
968.3055, 539.7864
968.7877, 540.0062
969.2698, 539.0533
969.7519, 537.9913
970.2340, 537.6812
970.7161, 538.2156
971.1982, 538.5144
971.6804, 538.4645
972.1625, 538.7824
972.6446, 540.2610
973.1267, 542.2515
973.6088, 543.5413
974.0909, 544.2647
974.5731, 544.9290
975.0552, 545.6844
975.5373, 546.4909
976.0194, 547.5834
976.5015, 548.5963
976.9836, 548.5228
977.4658, 547.2404
977.9479, 547.3212
978.4300, 549.6309
978.9121, 551.8585
979.3942, 550.4821
979.8763, 547.9064
980.3585, 547.4856
980.8406, 550.4539
981.3227, 553.0240
981.8048, 554.6357
982.2869, 555.7568
982.7690, 556.5784
983.2512, 557.1272
983.7333, 557.5720
984.2154, 557.9256
984.6975, 558.2945
985.1796, 559.1315
985.6617, 559.6608
986.1439, 558.6475
986.6260, 556.8162
987.1081, 556.4775
987.5902, 558.7244
988.0723, 560.5230
988.5544, 561.3423
989.0366, 561.7125
989.5187, 562.5088
990.0008, 563.5211
990.4829, 563.9294
990.9650, 563.4446
991.4471, 563.3102
991.9293, 564.8307
992.4114, 566.5421
992.8935, 567.2443
993.3756, 566.8539
993.8577, 566.8093
994.3398, 567.0934
994.8220, 567.8496
995.3041, 569.6956
995.7862, 571.7053
996.2683, 572.0248
996.7504, 571.1653
997.2325, 570.6331
997.7147, 570.7352
998.1968, 571.6498
998.6789, 574.0794
999.1610, 576.7717
999.6431, 577.6921
1000.125, 576.8494
1000.607, 576.3377
1001.089, 576.4099
1001.572, 577.0336
1002.054, 578.6325
1002.536, 580.4843
1003.018, 581.8770
1003.500, 582.6569
1003.982, 583.4213
1004.464, 584.2310
1004.946, 584.9783
1005.429, 585.5414
1005.911, 586.0402
1006.393, 586.8083
1006.875, 587.8348
1007.357, 589.0443
1007.839, 590.7101
1008.321, 592.1666
1008.803, 592.9583
1009.285, 593.3857
1009.768, 593.8814
1010.250, 594.3984
1010.732, 595.1832
1011.214, 596.2469
1011.696, 597.5511
1012.178, 599.2311
1012.660, 601.0284
1013.142, 602.7345
1013.625, 604.2976
1014.107, 605.2164
1014.589, 603.7006
1015.071, 603.5564
1015.553, 606.9725
1016.035, 612.2468
1016.517, 612.9877
1016.999, 609.6510
1017.481, 607.0016
1017.964, 606.5596
1018.446, 607.4969
1018.928, 610.0168
1019.410, 613.0391
1019.892, 615.2278
1020.374, 616.2912
1020.856, 616.6317
1021.338, 615.8701
1021.820, 615.3874
1022.303, 616.4083
1022.785, 618.4798
1023.267, 620.6814
1023.749, 622.9234
1024.231, 624.8441
1024.713, 626.5519
1025.195, 627.5624
1025.677, 627.0012
1026.160, 625.8849
1026.642, 626.4186
1027.124, 628.6963
1027.606, 630.8806
1028.088, 632.5974
1028.570, 634.2698
1029.052, 636.8358
1029.534, 639.3566
1030.016, 640.5660
1030.499, 639.9222
1030.981, 640.0280
1031.463, 641.2113
1031.945, 642.8712
1032.427, 644.9078
1032.909, 647.1113
1033.391, 648.7564
1033.873, 649.9548
1034.356, 651.2061
1034.838, 653.1600
1035.320, 654.7526
1035.802, 654.8272
1036.284, 654.5964
1036.766, 655.7806
1037.248, 658.6554
1037.730, 661.4910
1038.213, 664.2618
1038.695, 666.2197
1039.177, 666.0139
1039.659, 664.9677
1040.141, 664.3080
1040.623, 664.2049
1041.105, 665.4587
1041.587, 669.6894
1042.069, 672.9641
1042.552, 674.0348
1043.034, 673.8075
1043.516, 674.2174
1043.998, 675.1807
1044.480, 676.3495
1044.962, 677.6953
1045.444, 679.0852
1045.926, 680.1122
1046.408, 681.4177
1046.891, 683.5832
1047.373, 686.6912
1047.855, 689.7990
1048.337, 692.8380
1048.819, 696.5687
1049.301, 701.5478
1049.783, 707.4127
1050.265, 714.8467
1050.748, 722.8174
1051.230, 728.6622
1051.712, 729.6465
1052.194, 731.1770
1052.676, 733.8622
1053.158, 737.0666
1053.640, 740.1760
1054.122, 743.0892
1054.604, 743.8762
1055.087, 742.3214
1055.569, 745.8699
1056.051, 756.1223
1056.533, 775.5898
1057.015, 803.0925
1057.497, 840.3796
1057.979, 900.1697
1058.461, 983.2000
1058.943, 1082.487
1059.426, 1203.923
1059.908, 1322.233
1060.390, 1410.726
1060.872, 1477.873
1061.354, 1533.573
1061.836, 1572.719
1062.318, 1617.105
1062.800, 1666.043
1063.283, 1723.287
1063.765, 1790.471
1064.247, 1868.853
1064.729, 1957.009
1065.211, 2057.822
1065.693, 2182.352
1066.175, 2313.230
1066.657, 2496.179
1067.140, 2728.418
1067.622, 3037.354
1068.104, 3476.600
1068.586, 4044.771
1069.068, 4661.517
1069.550, 5319.880
1070.032, 6049.032
1070.514, 7035.928
1070.996, 7978.383
1071.479, 8798.974
1071.961, 9413.596
1072.443, 9088.856
1072.925, 7507.846
1073.407, 5864.489
1073.889, 4395.554
1074.371, 3184.961
1074.853, 2362.488
1075.335, 1853.703
1075.818, 1514.340
1076.300, 1340.657
1076.782, 1248.318
1077.264, 1233.746
1077.746, 1277.935
1078.228, 1386.515
1078.710, 1547.705
1079.192, 1698.167
1079.675, 1834.474
1080.157, 1936.868
1080.639, 1971.607
1081.121, 1996.587
1081.603, 2035.994
1082.085, 2090.302
1082.567, 2156.938
1083.049, 2235.281
1083.531, 2327.771
1084.014, 2435.129
1084.496, 2558.122
1084.978, 2679.059
1085.460, 2829.042
1085.942, 3012.354
1086.424, 3247.863
1086.906, 3639.899
1087.388, 4191.400
1087.870, 4912.994
1088.353, 5823.403
1088.835, 6880.409
1089.317, 7978.597
1089.799, 9163.357
1090.281, 10815.23
1090.763, 13197.13
1091.245, 14409.11
1091.727, 13089.27
1092.209, 10883.17
1092.692, 8333.903
1093.174, 5619.270
1093.656, 3714.263
1094.138, 2573.938
1094.620, 1824.687
1095.102, 1415.977
1095.584, 1170.224
1096.066, 1020.209
1096.549, 932.4138
1097.031, 866.7623
1097.513, 823.8419
1097.995, 788.7867
1098.477, 761.9846
1098.959, 740.1102
1099.441, 721.9612
1099.923, 706.6970
1100.406, 693.1711
1100.888, 681.2401
1101.370, 670.5536
1101.852, 660.9963
1102.334, 653.0584
1102.816, 647.0665
1103.298, 642.0695
1103.780, 636.7831
1104.262, 631.6081
1104.745, 627.5991
1105.227, 624.7482
1105.709, 622.0682
1106.191, 619.5367
1106.673, 616.4976
1107.155, 612.3182
1107.637, 607.8624
1108.119, 605.4140
1108.601, 604.6718
1109.084, 604.0157
1109.566, 603.2029
1110.048, 601.7662
1110.530, 598.6880
1111.012, 595.4195
1111.494, 593.1607
1111.976, 591.8378
1112.458, 590.1196
1112.941, 587.9710
1113.423, 585.7919
1113.905, 583.5308
1114.387, 581.6135
1114.869, 580.7147
1115.351, 580.3529
1115.833, 579.9305
1116.315, 579.5190
1116.797, 578.4664
1117.280, 576.5416
1117.762, 574.7916
1118.244, 574.0872
1118.726, 573.9724
1119.208, 573.8275
1119.690, 573.6026
1120.172, 573.1581
1120.654, 572.3140
1121.136, 571.4307
1121.619, 570.5648
1122.101, 569.6340
1122.583, 568.3430
1123.065, 566.9274
1123.547, 566.2274
1124.029, 566.2401
1124.511, 566.3170
1124.993, 566.5690
1125.476, 566.2643
1125.958, 564.9798
1126.440, 563.1798
1126.922, 561.5867
1127.404, 560.2645
1127.886, 559.8929
1128.368, 560.6964
1128.850, 561.5208
1129.333, 561.7180
1129.815, 561.4747
1130.297, 560.8238
1130.779, 559.8448
1131.261, 558.8167
1131.743, 557.7244
1132.225, 556.8381
1132.707, 556.1640
1133.189, 555.9227
1133.672, 556.8953
1134.154, 558.0696
1134.636, 558.2384
1135.118, 557.1445
1135.600, 555.7296
1136.082, 553.7821
1136.564, 552.5609
1137.046, 553.2765
1137.528, 554.4706
1138.011, 553.4808
1138.493, 551.5307
1138.975, 550.8905
1139.457, 553.6492
1139.939, 555.2068
1140.421, 555.1684
1140.903, 554.7609
1141.385, 555.2261
1141.868, 554.4222
1142.350, 555.1332
1142.832, 553.2345
1143.314, 551.8180
1143.796, 551.4175
1144.278, 551.8353
1144.760, 553.4990
1145.242, 555.1909
1145.724, 555.1864
1146.207, 553.9686
1146.689, 553.1853
1147.171, 552.9527
1147.653, 552.9749
1148.135, 552.9119
1148.617, 553.3791
1149.099, 555.0875
1149.581, 557.0433
1150.063, 556.9106
1150.546, 555.0551
1151.028, 554.2403
1151.510, 555.0154
1151.992, 555.6287
1152.474, 554.2913
1152.956, 553.0234
1153.438, 553.1718
1153.920, 554.4283
1154.403, 555.8912
1154.885, 557.5283
1155.367, 557.9881
1155.849, 556.5900
1156.331, 554.9871
1156.813, 554.1651
1157.295, 554.0939
1157.777, 555.2380
1158.260, 557.5406
1158.742, 558.0090
1159.224, 556.4930
1159.706, 555.2369
1160.188, 555.3276
1160.670, 555.8123
1161.152, 555.9057
1161.634, 555.6689
1162.116, 555.0965
1162.599, 554.0059
1163.081, 553.2669
1163.563, 552.8238
1164.045, 552.9814
1164.527, 554.7334
1165.009, 556.4532
1165.491, 555.4691
1165.973, 552.9617
1166.455, 551.2927
1166.938, 550.9959
1167.420, 551.5931
1167.902, 553.4377
1168.384, 554.9846
1168.866, 554.5458
1169.348, 553.2305
1169.830, 552.7854
1170.312, 553.0813
1170.795, 553.5696
1171.277, 554.3425
1171.759, 554.8973
1172.241, 555.1225
1172.723, 555.2867
1173.205, 555.8243
1173.687, 556.4506
1174.169, 556.7059
1174.651, 556.5377
1175.134, 555.8495
1175.616, 553.8005
1176.098, 552.3734
1176.580, 552.0595
1177.062, 552.2172
1177.544, 551.8974
1178.026, 551.3134
1178.508, 551.0710
1178.990, 551.2270
1179.473, 551.1325
1179.955, 549.6879
1180.437, 549.1608
1180.919, 550.6756
1181.401, 552.8741
1181.883, 552.6447
1182.365, 550.8741
1182.847, 550.5215
1183.330, 552.3032
1183.812, 553.5957
1184.294, 552.4622
1184.776, 551.4825
1185.258, 551.8157
1185.740, 552.9451
1186.222, 553.3990
1186.704, 553.2914
1187.187, 553.0165
1187.669, 552.6183
1188.151, 552.2979
1188.633, 551.9923
1189.115, 551.9904
1189.597, 552.5519
1190.079, 553.5033
1190.561, 554.2484
1191.043, 554.7133
1191.526, 554.4065
1192.008, 552.6765
1192.490, 551.3137
1192.972, 551.7636
1193.454, 552.3571
1193.936, 551.6512
1194.418, 552.4334
1194.900, 550.4609
1195.382, 552.8189
1195.865, 554.4307
1196.347, 553.9545
1196.829, 552.8010
1197.311, 550.6819
1197.793, 549.0214
1198.275, 549.3769
1198.757, 551.6765
1199.239, 552.2834
1199.722, 551.3707
1200.204, 550.5483
1200.686, 550.4493
1201.168, 550.9408
1201.650, 552.8304
1202.132, 554.6647
1202.614, 554.6281
1203.096, 552.7347
1203.578, 551.8419
1204.061, 551.9444
1204.543, 552.1805
1205.025, 552.0911
1205.507, 551.9167
1205.989, 551.3956
1206.471, 551.1067
1206.953, 552.1027
1207.435, 554.3509
1207.917, 555.3815
1208.400, 555.1056
1208.882, 554.7249
1209.364, 555.4277
1209.846, 555.8274
1210.328, 554.4243
1210.810, 552.5947
1211.292, 552.6683
1211.774, 554.5682
1212.257, 555.7123
1212.739, 555.8918
1213.221, 555.3766
1213.703, 553.3323
1214.185, 551.7267
1214.667, 552.0496
1215.149, 553.3793
1215.631, 554.1914
1216.114, 554.5037
1216.596, 554.5020
1217.078, 554.1950
1217.560, 554.0884
1218.042, 554.5487
1218.524, 555.3029
1219.006, 556.5694
1219.488, 557.8387
1219.970, 557.7673
1220.453, 556.4769
1220.935, 555.3329
1221.417, 554.5344
1221.899, 554.3380
1222.381, 555.4716
1222.863, 556.7036
1223.345, 557.5695
1223.827, 557.9320
1224.309, 556.9574
1224.792, 554.9095
1225.274, 554.1221
1225.756, 555.1695
1226.238, 556.1861
1226.720, 555.7815
1227.202, 555.2787
1227.684, 555.5184
1228.166, 555.0769
1228.649, 554.7013
1229.131, 554.7208
1229.613, 553.9675
1230.095, 553.7994
1230.577, 553.8470
1231.059, 554.0307
1231.541, 554.2517
1232.023, 554.4969
1232.505, 554.7234
1232.988, 554.7830
1233.470, 554.6985
1233.952, 554.5704
1234.434, 554.4603
1234.916, 554.1641
1235.398, 553.1581
1235.880, 552.4782
1236.362, 552.8050
1236.844, 553.6930
1237.327, 553.6476
1237.809, 552.8781
1238.291, 552.0148
1238.773, 551.1890
1239.255, 550.4818
1239.737, 549.9056
1240.219, 549.4906
1240.701, 549.2104
1241.184, 549.1304
1241.666, 549.5253
1242.148, 550.2734
1242.630, 551.1757
1243.112, 552.5895
1243.594, 552.6625
1244.076, 549.8856
1244.558, 547.5584
1245.041, 547.3231
1245.523, 548.5753
1246.005, 550.3744
1246.487, 552.3350
1246.969, 553.6042
1247.451, 553.8307
1247.933, 553.6377
1248.415, 552.9363
1248.897, 552.2790
1249.380, 551.9785
1249.862, 551.8862
1250.344, 551.8353
1250.826, 551.7316
1251.308, 551.3201
1251.790, 550.1428
1252.272, 549.8851
1252.754, 550.8932
1253.236, 551.9046
1253.719, 552.1662
1254.201, 552.0770
1254.683, 552.3104
1255.165, 552.6429
1255.647, 552.6852
1256.129, 552.2614
1256.611, 551.8469
1257.093, 551.4749
1257.576, 550.9372
1258.058, 549.9511
1258.540, 548.9518
1259.022, 548.3871
1259.504, 548.1909
1259.986, 548.2988
1260.468, 548.7004
1260.950, 549.3990
1261.432, 550.4400
1261.915, 551.1225
1262.397, 550.9382
1262.879, 550.3859
1263.361, 549.5219
1263.843, 548.8013
1264.325, 549.0587
1264.807, 548.2067
1265.289, 550.0618
1265.771, 547.5313
1266.254, 545.5384
1266.736, 545.5888
1267.218, 546.4768
1267.700, 548.1000
1268.182, 549.6749
1268.664, 550.3839
1269.146, 550.2320
1269.628, 549.5754
1270.111, 548.5021
1270.593, 547.8114
1271.075, 548.0488
1271.557, 548.5065
1272.039, 549.2386
1272.521, 549.7077
1273.003, 549.3076
1273.485, 548.2505
1273.968, 548.0042
1274.450, 548.3766
1274.932, 548.5244
1275.414, 547.7673
1275.896, 547.2921
1276.378, 547.4821
1276.860, 547.7936
1277.342, 547.8631
1277.824, 547.7444
1278.307, 547.4071
1278.789, 547.0253
1279.271, 547.1082
1279.753, 548.4407
1280.235, 549.0953
1280.717, 548.9044
1281.199, 548.1629
1281.681, 546.5609
1282.163, 544.9150
1282.646, 545.0175
1283.128, 546.1092
1283.610, 546.5530
1284.092, 545.5235
1284.574, 545.0611
1285.056, 545.1913
1285.538, 545.7997
1286.020, 547.4400
1286.503, 548.8675
1286.985, 548.2628
1287.467, 546.7264
1287.949, 545.9433
1288.431, 546.0423
1288.913, 546.7530
1289.395, 548.0930
1289.877, 549.1475
1290.359, 549.4054
1290.842, 549.1854
1291.324, 548.2600
1291.806, 547.2952
1292.288, 547.1503
1292.770, 546.3830
1293.252, 547.3430
1293.734, 545.9529
1294.216, 545.1048
1294.698, 545.8703
1295.181, 546.6736
1295.663, 546.6028
1296.145, 546.5668
1296.627, 547.3212
1297.109, 548.5950
1297.591, 549.2194
1298.073, 549.2498
1298.555, 548.7877
1299.038, 547.3503
1299.520, 546.5562
1300.002, 546.7480
1300.484, 547.3892
1300.966, 548.5663
1301.448, 549.4914
1301.930, 547.9167
1302.412, 545.1118
1302.895, 543.6653
1303.377, 544.8325
1303.859, 545.7770
1304.341, 546.4754
1304.823, 546.6290
1305.305, 545.9340
##END=



