##NAMES=Skorpionite
##RRUFFID=R060938
##IDEAL CHEMISTRY=Ca_3_Zn^2+^_2_(P^5+^O_4_)_2_CO_3_(OH)_2_&#183;H_2_O
##LOCALITY=Skorpion Zinc deposit, west of Rosh Pinah, southern Namibia
##OWNER=RRUFF
##SOURCE=William W. Pinch
##DESCRIPTION=Pale green to colorless acicular crystals
##STATUS=The identification of this mineral has been confirmed only by single crystal X-ray diffraction.
##URL=rruff.info/R060938
123.9386, 677.1785
124.4208, 711.2975
124.9029, 769.6953
125.3850, 847.1552
125.8671, 915.3997
126.3492, 961.7484
126.8313, 997.7775
127.3135, 1039.872
127.7956, 1090.188
128.2777, 1140.964
128.7598, 1184.631
129.2419, 1221.485
129.7240, 1261.102
130.2061, 1313.768
130.6883, 1366.444
131.1704, 1407.015
131.6525, 1433.495
132.1346, 1448.589
132.6167, 1453.236
133.0988, 1445.721
133.5810, 1436.542
134.0631, 1436.418
134.5452, 1432.713
135.0273, 1412.336
135.5094, 1369.281
135.9915, 1315.768
136.4737, 1270.899
136.9558, 1236.905
137.4379, 1206.777
137.9200, 1169.332
138.4021, 1138.130
138.8842, 1129.423
139.3664, 1152.297
139.8485, 1192.699
140.3306, 1218.016
140.8127, 1219.427
141.2948, 1220.377
141.7769, 1225.434
142.2591, 1233.335
142.7412, 1241.029
143.2233, 1245.990
143.7054, 1252.596
144.1875, 1277.106
144.6696, 1338.297
145.1518, 1392.406
145.6339, 1424.464
146.1160, 1446.635
146.5981, 1478.422
147.0802, 1533.358
147.5623, 1601.499
148.0445, 1630.864
148.5266, 1576.557
149.0087, 1529.602
149.4908, 1507.795
149.9729, 1502.197
150.4550, 1499.332
150.9371, 1491.493
151.4193, 1478.554
151.9014, 1458.609
152.3835, 1421.883
152.8656, 1388.296
153.3477, 1363.985
153.8298, 1345.484
154.3120, 1326.129
154.7941, 1301.264
155.2762, 1271.293
155.7583, 1245.188
156.2404, 1222.669
156.7225, 1203.690
157.2047, 1189.127
157.6868, 1178.161
158.1689, 1168.928
158.6510, 1159.884
159.1331, 1151.104
159.6152, 1148.369
160.0974, 1154.588
160.5795, 1162.627
161.0616, 1171.079
161.5437, 1179.413
162.0258, 1186.833
162.5079, 1192.582
162.9901, 1196.663
163.4722, 1202.067
163.9543, 1205.078
164.4364, 1212.458
164.9185, 1231.218
165.4007, 1258.015
165.8828, 1281.726
166.3649, 1294.158
166.8470, 1295.270
167.3291, 1296.574
167.8112, 1299.206
168.2934, 1301.019
168.7755, 1299.993
169.2576, 1296.837
169.7397, 1294.402
170.2218, 1294.586
170.7039, 1297.558
171.1861, 1302.293
171.6682, 1313.596
172.1503, 1322.391
172.6324, 1318.621
173.1145, 1305.223
173.5966, 1298.964
174.0788, 1314.318
174.5609, 1349.485
175.0430, 1373.624
175.5251, 1379.244
176.0072, 1380.844
176.4893, 1386.733
176.9714, 1396.781
177.4536, 1407.322
177.9357, 1414.876
178.4178, 1420.625
178.8999, 1432.528
179.3820, 1453.648
179.8641, 1478.176
180.3463, 1504.086
180.8284, 1530.832
181.3105, 1555.737
181.7926, 1578.007
182.2747, 1596.339
182.7568, 1608.229
183.2390, 1609.195
183.7211, 1607.306
184.2032, 1607.408
184.6853, 1609.522
185.1674, 1612.941
185.6495, 1617.591
186.1317, 1623.268
186.6138, 1628.728
187.0959, 1627.495
187.5780, 1631.104
188.0601, 1649.255
188.5422, 1680.968
189.0244, 1718.669
189.5065, 1763.896
189.9886, 1809.695
190.4707, 1835.913
190.9528, 1817.648
191.4349, 1802.551
191.9171, 1829.234
192.3992, 1894.567
192.8813, 1967.983
193.3634, 2039.575
193.8455, 2104.401
194.3276, 2154.090
194.8098, 2182.336
195.2919, 2202.100
195.7740, 2218.619
196.2561, 2232.680
196.7382, 2252.592
197.2203, 2286.340
197.7025, 2326.942
198.1846, 2359.089
198.6667, 2384.841
199.1488, 2398.902
199.6309, 2390.832
200.1130, 2363.562
200.5951, 2341.340
201.0773, 2334.928
201.5594, 2340.702
202.0415, 2348.432
202.5236, 2358.517
203.0057, 2369.774
203.4878, 2382.139
203.9700, 2395.327
204.4521, 2407.362
204.9342, 2415.665
205.4163, 2424.090
205.8984, 2438.301
206.3805, 2458.785
206.8627, 2483.466
207.3448, 2514.109
207.8269, 2548.908
208.3090, 2579.844
208.7911, 2603.464
209.2732, 2622.128
209.7554, 2637.653
210.2375, 2646.949
210.7196, 2665.187
211.2017, 2702.510
211.6838, 2755.868
212.1659, 2816.577
212.6481, 2886.577
213.1302, 2956.208
213.6123, 3007.660
214.0944, 3037.976
214.5765, 3076.814
215.0586, 3141.885
215.5408, 3226.278
216.0229, 3314.342
216.5050, 3405.390
216.9871, 3492.688
217.4692, 3563.167
217.9513, 3616.481
218.4335, 3677.427
218.9156, 3763.180
219.3977, 3862.475
219.8798, 3953.963
220.3619, 4035.699
220.8440, 4103.543
221.3262, 4149.317
221.8083, 4175.659
222.2904, 4194.602
222.7725, 4211.758
223.2546, 4223.454
223.7367, 4222.515
224.2189, 4206.708
224.7010, 4183.377
225.1831, 4156.968
225.6652, 4127.992
226.1473, 4100.885
226.6294, 4075.972
227.1115, 4053.552
227.5937, 4033.283
228.0758, 4014.875
228.5579, 4001.264
229.0400, 3995.249
229.5221, 3996.576
230.0042, 4003.778
230.4864, 4018.470
230.9685, 4037.880
231.4506, 4062.529
231.9327, 4092.184
232.4148, 4117.103
232.8969, 4128.199
233.3791, 4127.948
233.8612, 4131.498
234.3433, 4154.331
234.8254, 4169.372
235.3075, 4157.416
235.7896, 4119.425
236.2718, 4064.804
236.7539, 3995.627
237.2360, 3913.884
237.7181, 3828.721
238.2002, 3741.351
238.6823, 3650.278
239.1645, 3558.333
239.6466, 3462.973
240.1287, 3354.044
240.6108, 3220.359
241.0929, 3075.999
241.5750, 2959.260
242.0572, 2883.545
242.5393, 2809.349
243.0214, 2722.505
243.5035, 2627.350
243.9856, 2530.827
244.4677, 2433.883
244.9499, 2341.167
245.4320, 2265.132
245.9141, 2212.463
246.3962, 2156.448
246.8783, 2083.262
247.3604, 2005.908
247.8426, 1944.122
248.3247, 1903.360
248.8068, 1873.688
249.2889, 1840.542
249.7710, 1802.606
250.2531, 1765.280
250.7352, 1723.684
251.2174, 1685.608
251.6995, 1660.589
252.1816, 1649.768
252.6637, 1644.423
253.1458, 1635.216
253.6279, 1620.774
254.1101, 1607.823
254.5922, 1591.804
255.0743, 1580.656
255.5564, 1585.406
256.0385, 1602.950
256.5207, 1615.262
257.0028, 1604.604
257.4849, 1568.545
257.9670, 1550.790
258.4491, 1565.607
258.9312, 1580.980
259.4134, 1581.437
259.8955, 1571.007
260.3776, 1563.456
260.8597, 1569.003
261.3418, 1584.675
261.8239, 1584.518
262.3060, 1544.365
262.7881, 1516.406
263.2703, 1519.431
263.7524, 1539.661
264.2345, 1557.322
264.7166, 1562.787
265.1987, 1558.757
265.6808, 1553.314
266.1630, 1544.152
266.6451, 1536.555
267.1272, 1529.716
267.6093, 1525.023
268.0914, 1524.105
268.5735, 1527.415
269.0557, 1533.612
269.5378, 1541.302
270.0199, 1554.959
270.5020, 1560.583
270.9841, 1551.321
271.4662, 1540.367
271.9484, 1538.118
272.4305, 1544.843
272.9126, 1551.699
273.3947, 1547.369
273.8768, 1528.440
274.3589, 1515.397
274.8411, 1516.646
275.3232, 1516.426
275.8053, 1507.523
276.2874, 1491.400
276.7695, 1474.070
277.2516, 1460.237
277.7338, 1449.523
278.2159, 1437.094
278.6980, 1422.933
279.1801, 1406.772
279.6622, 1384.693
280.1443, 1361.317
280.6265, 1345.702
281.1086, 1345.979
281.5907, 1352.703
282.0728, 1338.300
282.5549, 1291.167
283.0370, 1250.813
283.5192, 1233.644
284.0013, 1228.004
284.4834, 1225.459
284.9655, 1225.497
285.4476, 1219.662
285.9297, 1190.460
286.4119, 1133.813
286.8940, 1092.895
287.3761, 1091.205
287.8582, 1101.826
288.3403, 1102.637
288.8224, 1091.530
289.3046, 1075.848
289.7867, 1056.009
290.2688, 1034.489
290.7509, 1026.263
291.2330, 1040.620
291.7151, 1058.381
292.1973, 1060.192
292.6794, 1048.374
293.1615, 1037.868
293.6436, 1035.687
294.1257, 1038.225
294.6078, 1039.231
295.0900, 1037.884
295.5721, 1036.938
296.0542, 1039.742
296.5363, 1044.972
297.0184, 1047.008
297.5005, 1041.126
297.9827, 1034.827
298.4648, 1034.937
298.9469, 1040.736
299.4290, 1046.158
299.9111, 1046.934
300.3932, 1045.380
300.8754, 1049.707
301.3575, 1062.025
301.8396, 1076.557
302.3217, 1092.901
302.8038, 1109.759
303.2859, 1123.529
303.7681, 1132.311
304.2502, 1140.550
304.7323, 1157.387
305.2144, 1189.472
305.6965, 1216.469
306.1786, 1232.931
306.6608, 1246.188
307.1429, 1262.195
307.6250, 1282.205
308.1071, 1305.462
308.5892, 1330.737
309.0714, 1357.412
309.5535, 1390.111
310.0356, 1441.843
310.5177, 1486.450
310.9998, 1504.378
311.4819, 1503.753
311.9640, 1509.280
312.4461, 1540.474
312.9283, 1592.899
313.4104, 1625.745
313.8925, 1616.072
314.3746, 1612.278
314.8567, 1627.953
315.3388, 1651.640
315.8210, 1669.009
316.3031, 1673.948
316.7852, 1670.877
317.2673, 1670.078
317.7494, 1677.925
318.2315, 1671.755
318.7137, 1639.343
319.1958, 1599.599
319.6779, 1562.757
320.1600, 1531.082
320.6421, 1503.980
321.1242, 1483.906
321.6064, 1470.907
322.0885, 1450.276
322.5706, 1414.173
323.0527, 1378.264
323.5348, 1350.379
324.0169, 1329.708
324.4991, 1313.993
324.9812, 1307.286
325.4633, 1303.236
325.9454, 1285.440
326.4275, 1250.056
326.9096, 1215.871
327.3918, 1195.512
327.8739, 1182.501
328.3560, 1166.703
328.8381, 1144.200
329.3202, 1122.249
329.8023, 1108.064
330.2845, 1100.375
330.7666, 1091.790
331.2487, 1079.893
331.7308, 1065.466
332.2129, 1048.452
332.6950, 1027.169
333.1772, 1010.546
333.6593, 1006.433
334.1414, 1006.501
334.6235, 997.8667
335.1056, 978.0052
335.5877, 956.0989
336.0699, 942.0672
336.5520, 937.6124
337.0341, 928.3293
337.5162, 908.6273
337.9983, 889.2955
338.4804, 877.2410
338.9626, 871.0350
339.4447, 864.7654
339.9268, 854.1449
340.4089, 841.0104
340.8910, 835.6927
341.3731, 846.9357
341.8553, 855.8771
342.3374, 862.7805
342.8195, 865.2996
343.3016, 858.3724
343.7837, 841.0292
344.2658, 821.3318
344.7480, 812.6467
345.2301, 819.1605
345.7122, 825.8380
346.1943, 836.7010
346.6764, 844.0188
347.1585, 841.7537
347.6407, 831.3942
348.1228, 819.8544
348.6049, 812.7378
349.0870, 809.3481
349.5691, 802.7951
350.0512, 785.9894
350.5334, 778.4586
351.0155, 796.6339
351.4976, 825.5267
351.9797, 843.6364
352.4618, 841.1573
352.9439, 829.6052
353.4261, 822.8580
353.9082, 820.9818
354.3903, 820.8392
354.8724, 822.7734
355.3545, 824.8512
355.8366, 824.0978
356.3188, 819.9467
356.8009, 817.3765
357.2830, 818.8066
357.7651, 823.4214
358.2472, 831.1484
358.7293, 842.6011
359.2115, 852.0762
359.6936, 853.0476
360.1757, 845.4518
360.6578, 841.6908
361.1399, 843.2856
361.6220, 847.8447
362.1041, 854.0751
362.5862, 862.0264
363.0684, 872.9249
363.5505, 888.0308
364.0326, 905.1700
364.5147, 916.9611
364.9968, 917.7700
365.4789, 920.2934
365.9611, 924.7267
366.4432, 931.5124
366.9253, 940.8837
367.4074, 952.9349
367.8895, 968.1594
368.3716, 988.1479
368.8538, 1015.001
369.3359, 1036.451
369.8180, 1045.566
370.3001, 1055.914
370.7822, 1073.867
371.2643, 1096.762
371.7465, 1118.350
372.2286, 1134.328
372.7107, 1147.039
373.1928, 1162.614
373.6749, 1180.724
374.1570, 1202.859
374.6392, 1236.385
375.1213, 1270.383
375.6034, 1293.407
376.0855, 1302.333
376.5676, 1311.042
377.0497, 1333.658
377.5319, 1366.853
378.0140, 1394.386
378.4961, 1412.940
378.9782, 1426.631
379.4603, 1439.106
379.9424, 1450.202
380.4246, 1457.907
380.9067, 1463.127
381.3888, 1463.797
381.8709, 1458.843
382.3530, 1447.945
382.8351, 1427.845
383.3173, 1393.366
383.7994, 1350.957
384.2815, 1326.210
384.7636, 1336.362
385.2457, 1337.470
385.7278, 1318.040
386.2100, 1287.604
386.6921, 1254.134
387.1742, 1220.511
387.6563, 1190.664
388.1384, 1171.301
388.6205, 1167.791
389.1027, 1148.928
389.5848, 1091.319
390.0669, 1042.807
390.5490, 1026.967
391.0311, 1033.542
391.5132, 1040.457
391.9954, 1035.239
392.4775, 1021.786
392.9596, 1009.574
393.4417, 997.1053
393.9238, 989.8724
394.4059, 997.7190
394.8881, 1005.952
395.3702, 1001.475
395.8523, 982.6000
396.3344, 962.3239
396.8165, 948.6536
397.2986, 941.4612
397.7808, 940.8333
398.2629, 947.3451
398.7450, 958.9803
399.2271, 980.1901
399.7092, 1006.217
400.1913, 1020.412
400.6735, 1006.994
401.1556, 992.3111
401.6377, 996.0763
402.1198, 1014.296
402.6019, 1034.391
403.0840, 1051.325
403.5662, 1066.038
404.0483, 1080.025
404.5304, 1092.000
405.0125, 1106.093
405.4946, 1124.531
405.9767, 1143.724
406.4589, 1158.622
406.9410, 1170.412
407.4231, 1186.112
407.9052, 1212.111
408.3873, 1247.931
408.8694, 1284.657
409.3516, 1320.421
409.8336, 1359.741
410.3158, 1403.569
410.7979, 1451.125
411.2800, 1503.627
411.7621, 1561.710
412.2442, 1617.612
412.7263, 1658.264
413.2085, 1682.275
413.6906, 1715.926
414.1727, 1762.889
414.6548, 1821.092
415.1369, 1894.384
415.6190, 1978.239
416.1012, 2053.258
416.5833, 2105.044
417.0654, 2147.636
417.5475, 2199.557
418.0296, 2260.501
418.5117, 2317.702
418.9939, 2364.770
419.4760, 2404.201
419.9581, 2444.095
420.4402, 2497.851
420.9223, 2525.579
421.4044, 2505.840
421.8866, 2461.611
422.3687, 2417.160
422.8508, 2376.730
423.3329, 2333.060
423.8150, 2279.854
424.2971, 2217.431
424.7793, 2143.123
425.2614, 2043.890
425.7435, 1947.284
426.2256, 1859.635
426.7077, 1778.720
427.1898, 1699.614
427.6720, 1620.764
428.1541, 1545.395
428.6362, 1479.302
429.1183, 1423.659
429.6004, 1370.668
430.0826, 1317.880
430.5647, 1269.282
431.0468, 1226.882
431.5289, 1190.381
432.0110, 1157.965
432.4931, 1130.069
432.9753, 1105.128
433.4574, 1081.189
433.9395, 1058.121
434.4216, 1035.658
434.9037, 1012.744
435.3858, 991.0231
435.8680, 974.5170
436.3501, 964.7784
436.8322, 955.3919
437.3143, 946.7256
437.7964, 936.5389
438.2785, 919.0955
438.7607, 895.3352
439.2428, 876.5555
439.7249, 874.7010
440.2070, 889.3771
440.6891, 890.4075
441.1712, 860.2848
441.6534, 836.2604
442.1355, 825.3957
442.6176, 824.2293
443.0997, 830.4139
443.5818, 842.8477
444.0639, 856.2114
444.5461, 863.2316
445.0282, 863.5087
445.5103, 863.7313
445.9924, 864.0616
446.4745, 864.8527
446.9566, 867.9955
447.4388, 871.8021
447.9209, 871.6266
448.4030, 862.5925
448.8851, 852.1595
449.3672, 846.0471
449.8493, 844.7781
450.3315, 853.8574
450.8136, 878.7211
451.2957, 907.7930
451.7778, 920.4256
452.2599, 911.6081
452.7420, 906.2035
453.2242, 905.9444
453.7063, 910.4025
454.1884, 920.6564
454.6705, 935.6219
455.1526, 951.4840
455.6347, 965.2043
456.1169, 979.0098
456.5990, 1003.287
457.0811, 1051.243
457.5632, 1087.535
458.0453, 1105.363
458.5274, 1113.239
459.0095, 1113.210
459.4916, 1107.763
459.9738, 1106.360
460.4559, 1120.464
460.9380, 1145.863
461.4201, 1163.315
461.9022, 1170.477
462.3843, 1177.123
462.8665, 1189.331
463.3486, 1204.256
463.8307, 1217.532
464.3128, 1230.972
464.7949, 1238.055
465.2770, 1228.455
465.7592, 1212.170
466.2413, 1210.035
466.7234, 1225.968
467.2055, 1240.062
467.6876, 1231.923
468.1697, 1199.964
468.6519, 1170.607
469.1340, 1140.505
469.6161, 1116.295
470.0982, 1104.899
470.5803, 1098.593
471.0624, 1086.133
471.5446, 1063.735
472.0267, 1038.441
472.5088, 1019.847
472.9909, 1008.530
473.4730, 999.1649
473.9551, 996.5159
474.4373, 989.0388
474.9194, 965.4310
475.4015, 933.1224
475.8836, 909.6761
476.3657, 906.2526
476.8478, 906.7065
477.3300, 891.9647
477.8121, 866.1587
478.2942, 850.0790
478.7763, 852.3223
479.2584, 859.2050
479.7405, 851.7054
480.2227, 825.1506
480.7048, 805.6697
481.1869, 798.5522
481.6690, 794.2654
482.1511, 788.0153
482.6332, 780.3304
483.1154, 772.8530
483.5975, 766.3478
484.0796, 761.6511
484.5617, 761.3788
485.0438, 768.0441
485.5259, 771.9232
486.0081, 768.9510
486.4902, 765.7159
486.9723, 767.5276
487.4544, 772.2513
487.9365, 772.2736
488.4186, 759.6763
488.9008, 743.5725
489.3829, 738.5804
489.8650, 744.3500
490.3471, 751.9479
490.8292, 759.5136
491.3113, 765.5638
491.7935, 766.5706
492.2756, 761.4250
492.7577, 758.7202
493.2398, 763.2874
493.7219, 767.8552
494.2040, 764.5536
494.6862, 755.9411
495.1683, 752.2246
495.6504, 759.9973
496.1325, 773.3362
496.6146, 773.5942
497.0967, 748.6365
497.5789, 736.3892
498.0610, 752.3093
498.5431, 770.7164
499.0252, 773.3463
499.5073, 763.2540
499.9894, 758.2247
500.4716, 773.8831
500.9537, 797.9326
501.4358, 803.8204
501.9179, 790.7429
502.4000, 787.4608
502.8821, 809.9843
503.3643, 842.3455
503.8464, 858.5867
504.3285, 857.4197
504.8106, 852.8148
505.2927, 842.8819
505.7748, 834.0468
506.2570, 832.2339
506.7391, 836.5144
507.2212, 842.0178
507.7033, 845.7177
508.1854, 849.6146
508.6675, 861.1181
509.1496, 890.1584
509.6317, 905.3072
510.1139, 894.7814
510.5960, 878.3568
511.0781, 863.4284
511.5602, 852.3309
512.0424, 848.8773
512.5245, 860.2427
513.0066, 876.5764
513.4887, 879.4347
513.9708, 869.0024
514.4529, 860.5751
514.9351, 860.4379
515.4172, 863.7709
515.8993, 863.6896
516.3814, 860.3492
516.8635, 853.9917
517.3456, 843.7215
517.8278, 831.2183
518.3099, 815.0159
518.7920, 797.4729
519.2741, 785.0950
519.7562, 781.4901
520.2383, 781.8363
520.7205, 773.8595
521.2026, 751.2731
521.6847, 738.9164
522.1668, 749.8840
522.6489, 761.7521
523.1310, 762.4057
523.6132, 755.0397
524.0953, 750.2180
524.5774, 754.7527
525.0595, 761.1752
525.5416, 760.8109
526.0237, 754.2919
526.5059, 744.5944
526.9880, 731.8013
527.4701, 718.3373
527.9522, 706.8415
528.4343, 697.5837
528.9164, 689.7759
529.3986, 685.4038
529.8807, 680.4044
530.3628, 672.4758
530.8449, 662.7733
531.3270, 651.9503
531.8091, 640.4820
532.2913, 632.3432
532.7734, 636.4698
533.2554, 655.3086
533.7375, 663.0198
534.2197, 653.5518
534.7018, 640.2492
535.1839, 627.5106
535.6660, 616.5748
536.1481, 610.0126
536.6302, 609.3812
537.1124, 611.2058
537.5945, 613.5475
538.0766, 616.5402
538.5587, 620.9711
539.0408, 626.9556
539.5229, 632.4884
540.0051, 635.8021
540.4872, 636.9227
540.9693, 636.3647
541.4514, 635.1465
541.9335, 630.9549
542.4156, 619.8610
542.8978, 607.7767
543.3799, 599.9610
543.8620, 597.4799
544.3441, 598.5519
544.8262, 602.5653
545.3083, 608.9019
545.7905, 616.1246
546.2726, 625.3863
546.7547, 629.9231
547.2368, 626.2894
547.7189, 616.1893
548.2010, 600.9332
548.6832, 576.8676
549.1653, 562.6410
549.6474, 568.1360
550.1295, 581.9562
550.6116, 597.5782
551.0938, 612.3541
551.5759, 620.9458
552.0580, 619.6508
552.5401, 612.9666
553.0222, 613.5646
553.5043, 626.4677
553.9865, 633.6161
554.4686, 628.7966
554.9507, 621.8237
555.4328, 615.4958
555.9149, 610.8766
556.3970, 610.5413
556.8792, 618.9042
557.3613, 627.4756
557.8434, 624.4910
558.3255, 613.2886
558.8076, 606.7933
559.2897, 608.5079
559.7719, 615.8266
560.2540, 628.2589
560.7361, 647.3530
561.2182, 652.0181
561.7003, 624.2328
562.1824, 605.2703
562.6646, 616.9335
563.1467, 639.1344
563.6288, 644.2366
564.1109, 626.6642
564.5930, 608.1845
565.0751, 613.3156
565.5573, 638.3582
566.0394, 658.2764
566.5215, 672.2390
567.0036, 683.7592
567.4857, 694.9753
567.9678, 704.3472
568.4500, 706.4893
568.9321, 694.6894
569.4142, 698.5394
569.8963, 741.9648
570.3784, 793.2576
570.8605, 822.9196
571.3427, 832.6275
571.8248, 838.1743
572.3069, 848.1780
572.7890, 862.5227
573.2711, 884.0068
573.7532, 920.5963
574.2354, 938.0673
574.7175, 916.9809
575.1996, 892.1218
575.6817, 883.2587
576.1638, 885.6782
576.6459, 885.6270
577.1281, 878.0605
577.6102, 867.2888
578.0923, 853.8442
578.5744, 840.2985
579.0565, 831.9532
579.5386, 829.9960
580.0208, 837.4154
580.5029, 859.8809
580.9850, 896.7371
581.4671, 918.4636
581.9492, 908.9579
582.4313, 903.4465
582.9135, 903.6188
583.3956, 911.5082
583.8777, 932.8608
584.3598, 966.0129
584.8419, 996.7895
585.3240, 1013.450
585.8062, 1021.241
586.2883, 1034.110
586.7704, 1052.007
587.2525, 1061.113
587.7346, 1056.800
588.2167, 1039.987
588.6989, 1009.721
589.1810, 960.8913
589.6631, 919.2582
590.1452, 882.9603
590.6273, 856.4548
591.1094, 846.9189
591.5916, 847.4460
592.0737, 846.9724
592.5558, 841.4589
593.0379, 835.1489
593.5200, 835.8060
594.0021, 842.5095
594.4843, 837.1351
594.9664, 813.1025
595.4485, 793.8319
595.9306, 795.0853
596.4127, 808.9329
596.8948, 817.9357
597.3770, 821.2218
597.8591, 821.3697
598.3412, 813.5359
598.8233, 806.9350
599.3054, 817.1597
599.7875, 837.7227
600.2697, 844.1182
600.7518, 821.5263
601.2339, 780.6297
601.7160, 743.3781
602.1981, 708.5400
602.6802, 683.7245
603.1624, 674.4152
603.6445, 669.5801
604.1266, 663.3262
604.6087, 655.9548
605.0908, 647.7489
605.5729, 635.7231
606.0551, 627.9838
606.5372, 632.5718
607.0193, 643.1279
607.5014, 650.9775
607.9835, 654.3639
608.4656, 653.6079
608.9478, 648.2730
609.4299, 639.7068
609.9120, 634.9553
610.3941, 635.8831
610.8762, 636.6681
611.3583, 637.0834
611.8405, 636.5094
612.3226, 633.7197
612.8047, 629.3614
613.2868, 626.0316
613.7689, 624.1617
614.2510, 624.4391
614.7332, 628.1036
615.2153, 634.3790
615.6974, 641.1661
616.1795, 647.9736
616.6616, 656.2864
617.1437, 668.8440
617.6259, 685.2787
618.1080, 691.6780
618.5901, 673.3655
619.0722, 666.3917
619.5543, 681.2737
620.0364, 706.0531
620.5186, 734.6711
621.0007, 764.7141
621.4828, 788.5397
621.9649, 795.2607
622.4470, 797.6606
622.9291, 811.5911
623.4113, 835.7965
623.8934, 867.3283
624.3755, 906.1448
624.8576, 942.2902
625.3397, 961.0793
625.8218, 959.1335
626.3040, 972.8845
626.7861, 1011.547
627.2682, 1055.404
627.7503, 1101.698
628.2324, 1150.563
628.7145, 1203.106
629.1967, 1259.114
629.6788, 1317.886
630.1609, 1380.033
630.6430, 1443.885
631.1251, 1508.965
631.6072, 1574.148
632.0893, 1628.736
632.5714, 1667.120
633.0535, 1698.476
633.5356, 1736.578
634.0178, 1784.493
634.4999, 1824.230
634.9820, 1850.180
635.4641, 1874.912
635.9462, 1908.001
636.4283, 1938.881
636.9105, 1956.155
637.3926, 1957.196
637.8747, 1943.527
638.3568, 1915.659
638.8389, 1874.012
639.3210, 1814.444
639.8032, 1738.707
640.2853, 1664.795
640.7674, 1601.339
641.2495, 1541.023
641.7316, 1473.339
642.2137, 1397.434
642.6959, 1318.019
643.1780, 1219.499
643.6601, 1135.885
644.1422, 1087.748
644.6243, 1056.353
645.1064, 1016.766
645.5886, 963.6609
646.0707, 913.9332
646.5528, 883.0110
647.0349, 863.6309
647.5170, 841.1480
647.9991, 815.8409
648.4813, 798.5303
648.9634, 795.5300
649.4455, 795.8691
649.9276, 780.4475
650.4097, 742.7411
650.8918, 716.3425
651.3740, 705.6395
651.8561, 700.5470
652.3382, 705.6895
652.8203, 711.0058
653.3024, 700.3348
653.7845, 670.7542
654.2667, 646.7037
654.7488, 651.7953
655.2309, 670.5768
655.7130, 678.8582
656.1951, 676.6797
656.6772, 670.3975
657.1594, 662.2656
657.6415, 653.1658
658.1236, 644.0314
658.6057, 634.1057
659.0878, 628.3086
659.5699, 633.0049
660.0521, 634.3099
660.5342, 625.8479
661.0163, 613.7944
661.4984, 604.2083
661.9805, 598.2926
662.4626, 595.7379
662.9448, 597.4681
663.4269, 601.7615
663.9090, 609.2596
664.3911, 617.9040
664.8732, 619.8035
665.3553, 611.9712
665.8375, 597.9612
666.3196, 580.8465
666.8017, 559.5007
667.2838, 550.2816
667.7659, 562.7510
668.2480, 572.8772
668.7302, 569.8059
669.2123, 564.1317
669.6944, 565.8627
670.1765, 575.8467
670.6586, 588.9191
671.1407, 608.8537
671.6229, 625.8269
672.1050, 628.4757
672.5871, 621.3347
673.0692, 617.0496
673.5513, 618.9100
674.0334, 615.7709
674.5156, 590.7485
674.9977, 547.3076
675.4798, 538.1654
675.9619, 579.6747
676.4440, 614.3676
676.9261, 622.4960
677.4083, 619.8881
677.8904, 619.1738
678.3725, 620.7155
678.8546, 626.5972
679.3367, 640.9470
679.8188, 655.9088
680.3010, 664.9592
680.7831, 672.6330
681.2652, 689.6682
681.7473, 715.5443
682.2294, 733.2802
682.7115, 725.8768
683.1937, 702.0492
683.6758, 692.1126
684.1579, 698.1417
684.6400, 701.9769
685.1221, 698.9181
685.6042, 693.5110
686.0864, 690.4301
686.5685, 689.0617
687.0506, 683.9397
687.5327, 669.0204
688.0148, 657.9826
688.4969, 658.1313
688.9791, 660.9777
689.4612, 656.3568
689.9433, 646.2656
690.4254, 641.9120
690.9075, 650.9570
691.3896, 666.3797
691.8718, 679.3533
692.3539, 689.4300
692.8360, 692.3310
693.3181, 686.0952
693.8002, 682.1872
694.2823, 691.0144
694.7645, 707.7724
695.2466, 712.6298
695.7287, 686.7731
696.2108, 677.8546
696.6929, 700.9643
697.1750, 726.0734
697.6572, 734.0275
698.1393, 731.6194
698.6214, 735.4009
699.1035, 752.1901
699.5856, 769.9828
700.0677, 785.0452
700.5499, 792.0744
701.0320, 775.6713
701.5141, 738.5728
701.9962, 707.7833
702.4783, 698.4501
702.9604, 695.9453
703.4426, 668.4238
703.9247, 603.8157
704.4068, 570.5417
704.8889, 588.5333
705.3710, 608.3179
705.8531, 608.5204
706.3353, 600.5396
706.8174, 598.3534
707.2995, 603.9572
707.7816, 607.7605
708.2637, 605.6450
708.7458, 601.2585
709.2280, 595.0085
709.7101, 589.2028
710.1922, 588.8060
710.6743, 594.8425
711.1564, 602.3417
711.6385, 608.0039
712.1207, 610.4495
712.6028, 599.8995
713.0849, 573.8223
713.5670, 555.5322
714.0491, 554.1844
714.5313, 559.2244
715.0134, 559.7493
715.4955, 555.6162
715.9776, 551.4677
716.4597, 547.8388
716.9418, 543.4988
717.4240, 533.3562
717.9061, 525.9268
718.3882, 533.0976
718.8703, 551.2255
719.3524, 562.9478
719.8345, 556.5722
720.3167, 544.5334
720.7988, 542.5972
721.2809, 546.7881
721.7630, 544.2026
722.2451, 533.1382
722.7272, 523.2026
723.2094, 520.9617
723.6915, 524.8195
724.1736, 530.4705
724.6557, 539.3848
725.1378, 545.8530
725.6199, 547.7831
726.1021, 549.4279
726.5842, 554.0677
727.0663, 559.3915
727.5484, 562.1827
728.0305, 562.7515
728.5126, 557.5484
728.9948, 536.2881
729.4769, 516.2424
729.9590, 516.2059
730.4411, 528.7160
730.9232, 533.9633
731.4053, 525.3563
731.8874, 517.0453
732.3695, 531.2122
732.8516, 560.6619
733.3337, 564.9774
733.8159, 541.5881
734.2980, 523.1769
734.7801, 520.9801
735.2622, 528.2322
735.7443, 537.9505
736.2264, 550.3998
736.7086, 561.8882
737.1907, 579.7725
737.6728, 587.1282
738.1549, 572.0020
738.6370, 552.1373
739.1191, 540.6268
739.6013, 538.3223
740.0834, 541.9425
740.5655, 555.2343
741.0476, 565.1002
741.5297, 555.4340
742.0118, 536.0132
742.4940, 526.1286
742.9761, 526.8387
743.4582, 524.5306
743.9403, 509.6076
744.4224, 490.8306
744.9045, 488.8006
745.3867, 505.6433
745.8688, 523.1526
746.3509, 546.3712
746.8330, 555.3843
747.3151, 526.9460
747.7972, 484.0173
748.2794, 474.3102
748.7615, 507.1375
749.2436, 533.0978
749.7257, 549.1392
750.2078, 554.5923
750.6899, 538.1037
751.1721, 516.1708
751.6542, 515.9852
752.1363, 540.2479
752.6184, 557.4905
753.1005, 531.0848
753.5826, 493.2073
754.0648, 500.0228
754.5469, 538.6406
755.0290, 559.6420
755.5111, 550.9774
755.9932, 537.7772
756.4753, 543.7112
756.9575, 562.6432
757.4396, 561.1125
757.9217, 528.0291
758.4038, 510.3328
758.8859, 522.9170
759.3680, 540.5863
759.8502, 546.1800
760.3323, 544.3132
760.8144, 546.3715
761.2965, 558.8085
761.7786, 561.9672
762.2607, 541.2275
762.7429, 518.7236
763.2250, 511.4664
763.7071, 513.8615
764.1892, 512.4258
764.6713, 502.8427
765.1534, 493.7133
765.6356, 496.9245
766.1177, 504.5797
766.5998, 497.3800
767.0819, 477.8106
767.5640, 460.9443
768.0461, 451.1278
768.5283, 455.5601
769.0104, 486.3348
769.4925, 539.5066
769.9746, 567.5831
770.4567, 560.1958
770.9388, 553.7036
771.4210, 557.4236
771.9031, 561.1096
772.3852, 554.3151
772.8673, 541.0034
773.3494, 534.1402
773.8315, 535.6641
774.3137, 542.7868
774.7958, 565.9058
775.2779, 584.5789
775.7600, 578.7729
776.2421, 556.3073
776.7242, 535.0290
777.2064, 521.3561
777.6885, 516.0425
778.1706, 523.5633
778.6527, 538.4604
779.1348, 551.5366
779.6169, 561.8995
780.0991, 566.1871
780.5812, 562.9536
781.0633, 558.8665
781.5454, 562.4592
782.0275, 572.8379
782.5096, 577.8982
782.9918, 575.7849
783.4739, 573.9962
783.9560, 575.9384
784.4381, 576.3782
784.9202, 566.7285
785.4023, 551.0484
785.8845, 547.3727
786.3666, 568.4279
786.8487, 582.8742
787.3308, 581.9959
787.8129, 575.4332
788.2950, 565.3076
788.7772, 555.8217
789.2593, 555.7171
789.7414, 568.5239
790.2235, 579.0846
790.7056, 571.3102
791.1877, 556.2753
791.6699, 551.5541
792.1520, 554.4241
792.6341, 552.8898
793.1162, 543.1678
793.5983, 530.5064
794.0804, 519.3911
794.5626, 510.6507
795.0447, 510.5864
795.5268, 521.3633
796.0089, 525.1293
796.4910, 515.3608
796.9731, 504.2429
797.4553, 499.7086
797.9374, 501.9683
798.4195, 512.3588
798.9016, 552.1069
799.3837, 566.2180
799.8658, 526.2681
800.3480, 490.3522
800.8301, 494.4643
801.3122, 518.7329
801.7943, 528.3527
802.2764, 515.3258
802.7585, 506.7087
803.2407, 520.2753
803.7228, 540.0380
804.2049, 557.7574
804.6870, 569.6551
805.1691, 564.3680
805.6512, 543.3040
806.1334, 530.9074
806.6155, 550.4865
807.0976, 584.5957
807.5797, 596.2755
808.0618, 588.2933
808.5439, 579.2750
809.0261, 571.9662
809.5082, 565.9302
809.9903, 560.4772
810.4724, 557.0453
810.9545, 560.3416
811.4366, 574.2532
811.9188, 579.5587
812.4009, 563.7706
812.8830, 559.7602
813.3651, 597.9905
813.8472, 643.6750
814.3293, 652.2540
814.8115, 622.2263
815.2936, 596.1362
815.7757, 583.3080
816.2578, 571.5016
816.7399, 549.4866
817.2220, 531.5230
817.7042, 534.9814
818.1863, 556.0477
818.6684, 577.5621
819.1505, 593.6620
819.6326, 602.0410
820.1147, 595.7734
820.5969, 582.9613
821.0790, 576.9938
821.5611, 577.2075
822.0432, 575.2190
822.5253, 567.5480
823.0074, 560.3034
823.4896, 562.9573
823.9717, 573.1284
824.4538, 577.6021
824.9359, 576.4524
825.4180, 565.9415
825.9001, 541.8141
826.3823, 519.7614
826.8644, 515.2833
827.3465, 525.5950
827.8286, 533.1421
828.3107, 540.2462
828.7928, 539.6418
829.2749, 518.0396
829.7570, 503.0035
830.2391, 512.5894
830.7213, 535.7870
831.2034, 556.4406
831.6855, 574.6666
832.1676, 580.9060
832.6497, 559.2676
833.1318, 539.8658
833.6140, 544.1238
834.0961, 557.0493
834.5782, 558.0072
835.0603, 545.8846
835.5424, 536.3449
836.0245, 540.8394
836.5067, 547.3195
836.9888, 540.3646
837.4709, 527.9208
837.9530, 525.8670
838.4351, 534.1751
838.9172, 542.6843
839.3994, 546.1711
839.8815, 547.8965
840.3636, 556.2712
840.8457, 568.6213
841.3278, 559.1385
841.8099, 525.8426
842.2921, 508.7508
842.7742, 524.3534
843.2563, 547.0252
843.7384, 548.0045
844.2205, 530.8108
844.7026, 530.9790
845.1848, 560.9680
845.6669, 579.5441
846.1490, 579.5173
846.6311, 570.4024
847.1132, 548.8463
847.5953, 524.5122
848.0775, 517.5092
848.5596, 532.9635
849.0417, 549.8271
849.5238, 572.7512
850.0059, 587.8910
850.4880, 585.4849
850.9702, 574.0442
851.4523, 561.8897
851.9344, 550.7709
852.4165, 540.9696
852.8986, 529.5358
853.3807, 523.8998
853.8629, 537.6537
854.3450, 555.5468
854.8271, 555.1266
855.3092, 539.1382
855.7913, 523.6497
856.2734, 515.7171
856.7556, 514.3539
857.2377, 521.9993
857.7198, 534.2693
858.2019, 536.8523
858.6840, 531.8455
859.1661, 537.9532
859.6483, 560.7563
860.1304, 577.6829
860.6125, 565.6074
861.0946, 534.1003
861.5767, 518.8683
862.0588, 521.6498
862.5410, 529.2186
863.0231, 543.1271
863.5052, 552.4083
863.9873, 550.0697
864.4694, 540.4871
864.9515, 531.2124
865.4337, 521.4651
865.9158, 516.0112
866.3979, 517.2713
866.8800, 519.4392
867.3621, 518.2069
867.8442, 519.7598
868.3264, 533.3979
868.8085, 555.2867
869.2906, 567.2485
869.7727, 563.4756
870.2548, 554.7925
870.7369, 538.4521
871.2191, 523.5352
871.7012, 512.6276
872.1833, 509.0033
872.6654, 522.8342
873.1475, 555.3123
873.6296, 576.8364
874.1118, 556.6274
874.5939, 530.1929
875.0760, 532.6050
875.5581, 548.6626
876.0402, 552.6912
876.5223, 543.1331
877.0045, 534.2036
877.4866, 533.7018
877.9687, 539.3419
878.4508, 553.5635
878.9329, 570.2914
879.4150, 569.8776
879.8972, 554.3051
880.3793, 543.0511
880.8614, 543.0762
881.3435, 546.5360
881.8256, 545.0655
882.3077, 539.8303
882.7899, 534.8740
883.2720, 529.9356
883.7541, 530.9407
884.2362, 540.5386
884.7183, 547.4667
885.2004, 543.4009
885.6826, 534.2540
886.1647, 533.3920
886.6468, 543.1500
887.1289, 549.5073
887.6110, 553.0338
888.0931, 551.8655
888.5753, 542.7966
889.0574, 531.4034
889.5395, 520.1309
890.0216, 510.2532
890.5037, 511.2376
890.9858, 534.6724
891.4680, 551.6856
891.9501, 561.2277
892.4322, 562.6041
892.9143, 545.5358
893.3964, 524.6792
893.8785, 524.3531
894.3607, 548.3194
894.8428, 569.2039
895.3249, 579.1234
895.8070, 582.9301
896.2891, 580.5147
896.7712, 575.1476
897.2534, 568.9345
897.7355, 562.9186
898.2176, 559.4814
898.6997, 560.4928
899.1818, 559.0428
899.6639, 543.2360
900.1461, 527.5400
900.6282, 534.9608
901.1103, 554.2565
901.5924, 558.2263
902.0745, 542.1777
902.5566, 523.9445
903.0388, 515.7375
903.5209, 515.5581
904.0030, 524.9020
904.4851, 539.0046
904.9672, 543.2294
905.4493, 537.7036
905.9315, 533.8117
906.4136, 536.7449
906.8957, 542.5107
907.3778, 544.9314
907.8599, 545.9465
908.3420, 558.0824
908.8242, 580.8509
909.3063, 592.5721
909.7884, 587.9779
910.2705, 579.1367
910.7526, 573.9622
911.2347, 572.2385
911.7169, 573.4081
912.1990, 577.4059
912.6811, 586.9363
913.1632, 607.1964
913.6453, 613.4277
914.1274, 590.5837
914.6096, 563.2678
915.0917, 559.2040
915.5738, 575.2988
916.0559, 583.2414
916.5380, 577.3861
917.0201, 575.5804
917.5023, 582.1089
917.9844, 588.5538
918.4665, 587.5247
918.9486, 585.6733
919.4307, 596.6294
919.9128, 623.3118
920.3950, 635.8807
920.8771, 625.9604
921.3592, 611.6083
921.8413, 584.5871
922.3234, 565.2944
922.8055, 575.0010
923.2877, 602.8936
923.7698, 620.8757
924.2519, 621.9238
924.7340, 623.8995
925.2161, 637.2960
925.6982, 646.6110
926.1804, 637.9438
926.6625, 624.6912
927.1446, 622.1967
927.6267, 630.8207
928.1088, 642.4211
928.5909, 656.1488
929.0730, 666.9576
929.5551, 669.1167
930.0372, 669.4750
930.5193, 678.0159
931.0015, 688.1925
931.4836, 683.0104
931.9657, 661.3787
932.4478, 648.7145
932.9299, 668.7410
933.4120, 694.9319
933.8942, 698.5773
934.3763, 693.2697
934.8584, 698.7724
935.3405, 715.4942
935.8226, 738.1648
936.3047, 764.5609
936.7869, 787.0377
937.2690, 797.4903
937.7511, 799.5330
938.2332, 794.8072
938.7153, 787.4910
939.1974, 788.9443
939.6796, 800.5714
940.1617, 818.7905
940.6438, 842.3923
941.1259, 862.6824
941.6080, 862.2244
942.0901, 848.6342
942.5723, 847.5932
943.0544, 858.7054
943.5365, 876.2022
944.0186, 898.2587
944.5007, 919.2896
944.9828, 934.4869
945.4650, 946.0669
945.9471, 960.7410
946.4292, 977.6548
946.9113, 981.3591
947.3934, 970.5424
947.8755, 971.9297
948.3577, 995.9261
948.8398, 1034.786
949.3219, 1083.734
949.8040, 1137.050
950.2861, 1165.228
950.7682, 1165.450
951.2504, 1168.213
951.7325, 1174.673
952.2146, 1196.899
952.6967, 1245.119
953.1788, 1300.548
953.6609, 1333.436
954.1431, 1344.575
954.6252, 1368.250
955.1073, 1404.708
955.5894, 1451.793
956.0715, 1507.412
956.5536, 1577.619
957.0358, 1667.655
957.5179, 1772.417
958.0000, 1881.589
958.4821, 1994.505
958.9642, 2114.574
959.4464, 2237.697
959.9285, 2376.556
960.4106, 2534.294
960.8927, 2708.302
961.3748, 2894.605
961.8569, 3096.252
962.3391, 3323.177
962.8212, 3571.634
963.3033, 3860.266
963.7854, 4213.833
964.2675, 4570.563
964.7496, 4912.140
965.2318, 5252.461
965.7139, 5603.040
966.1960, 5962.170
966.6781, 6331.643
967.1602, 6748.967
967.6423, 7103.914
968.1245, 7382.192
968.6066, 7610.412
969.0887, 7835.236
969.5708, 7988.286
970.0529, 7999.028
970.5350, 7869.124
971.0172, 7642.473
971.4993, 7299.770
971.9814, 6895.235
972.4635, 6398.028
972.9456, 5880.997
973.4277, 5358.402
973.9099, 4849.047
974.3920, 4366.453
974.8741, 3912.575
975.3562, 3519.211
975.8383, 3208.399
976.3204, 2932.394
976.8026, 2687.306
977.2847, 2464.329
977.7668, 2255.510
978.2489, 2064.616
978.7310, 1896.393
979.2131, 1750.797
979.6953, 1632.821
980.1774, 1559.674
980.6595, 1492.625
981.1416, 1419.198
981.6237, 1347.243
982.1058, 1278.621
982.5880, 1217.814
983.0701, 1176.269
983.5522, 1157.565
984.0343, 1130.212
984.5164, 1069.793
984.9985, 1017.334
985.4807, 997.2324
985.9628, 986.8072
986.4449, 967.3909
986.9270, 940.8984
987.4091, 917.3942
987.8912, 900.2125
988.3734, 876.4867
988.8555, 830.3567
989.3376, 789.8693
989.8197, 775.2091
990.3018, 768.4526
990.7839, 752.2736
991.2661, 728.0384
991.7482, 703.0236
992.2303, 677.3641
992.7124, 661.9153
993.1945, 663.4586
993.6766, 673.9034
994.1588, 692.4680
994.6409, 714.6249
995.1230, 739.9622
995.6051, 764.3890
996.0872, 776.4008
996.5693, 769.7795
997.0515, 763.2794
997.5336, 765.2202
998.0157, 770.0518
998.4978, 772.5911
998.9799, 777.1920
999.4620, 792.9808
999.9442, 816.0688
1000.426, 829.6719
1000.908, 824.9622
1001.391, 823.5146
1001.873, 835.4239
1002.355, 854.0574
1002.837, 879.3799
1003.319, 905.9220
1003.801, 927.8879
1004.283, 944.9620
1004.765, 958.6196
1005.247, 967.5488
1005.730, 979.5639
1006.212, 996.7579
1006.694, 1020.079
1007.176, 1051.868
1007.658, 1089.234
1008.140, 1128.603
1008.622, 1169.884
1009.104, 1214.588
1009.586, 1263.711
1010.069, 1314.829
1010.551, 1365.828
1011.033, 1419.273
1011.515, 1477.905
1011.997, 1539.273
1012.479, 1605.008
1012.961, 1671.476
1013.443, 1724.729
1013.926, 1759.589
1014.408, 1783.050
1014.890, 1807.170
1015.372, 1810.875
1015.854, 1784.409
1016.336, 1726.749
1016.818, 1625.360
1017.300, 1489.736
1017.782, 1365.452
1018.265, 1268.233
1018.747, 1178.856
1019.229, 1083.014
1019.711, 1001.433
1020.193, 952.6010
1020.675, 921.7435
1021.157, 900.6876
1021.639, 881.5406
1022.122, 836.1645
1022.604, 736.6021
1023.086, 659.0930
1023.568, 640.0903
1024.050, 634.2141
1024.532, 616.7076
1025.014, 599.0629
1025.496, 598.0162
1025.978, 611.2404
1026.461, 621.5251
1026.943, 626.0685
1027.425, 625.6342
1027.907, 609.0760
1028.389, 601.0220
1028.871, 630.0026
1029.353, 661.0223
1029.835, 647.3326
1030.318, 599.1748
1030.800, 575.1745
1031.282, 597.1299
1031.764, 612.6346
1032.246, 607.2413
1032.728, 601.5304
1033.210, 606.9691
1033.692, 613.2457
1034.174, 605.9212
1034.656, 589.7768
1035.139, 587.4806
1035.621, 611.4929
1036.103, 623.8466
1036.585, 612.1559
1037.067, 600.7938
1037.549, 601.6209
1038.031, 602.3012
1038.513, 584.5754
1038.996, 557.2086
1039.478, 554.9121
1039.960, 592.3709
1040.442, 616.0104
1040.924, 611.9156
1041.406, 615.4077
1041.888, 644.9390
1042.370, 673.8525
1042.853, 676.8780
1043.335, 664.6713
1043.817, 669.1802
1044.299, 695.4570
1044.781, 718.4716
1045.263, 736.3050
1045.745, 754.4699
1046.227, 771.2684
1046.709, 794.3565
1047.192, 832.3151
1047.674, 877.7480
1048.156, 913.5381
1048.638, 939.0646
1049.120, 958.8035
1049.602, 971.3633
1050.084, 981.8158
1050.566, 988.3636
1051.048, 1002.035
1051.531, 1031.949
1052.013, 1069.969
1052.495, 1103.699
1052.977, 1133.144
1053.459, 1133.575
1053.941, 1100.571
1054.423, 1073.689
1054.905, 1060.883
1055.388, 1046.398
1055.870, 1021.002
1056.352, 991.4720
1056.834, 968.0645
1057.316, 949.9014
1057.798, 932.2625
1058.280, 915.1135
1058.762, 893.6874
1059.245, 867.3671
1059.727, 850.1597
1060.209, 848.4949
1060.691, 860.2133
1061.173, 885.5031
1061.655, 918.8356
1062.137, 945.2601
1062.619, 965.5361
1063.101, 978.1937
1063.583, 986.5627
1064.066, 1013.868
1064.548, 1068.416
1065.030, 1130.142
1065.512, 1175.438
1065.994, 1227.954
1066.476, 1330.638
1066.958, 1472.433
1067.440, 1631.482
1067.923, 1804.435
1068.405, 1979.456
1068.887, 2158.372
1069.369, 2373.140
1069.851, 2651.993
1070.333, 2958.888
1070.815, 3257.924
1071.297, 3557.248
1071.780, 3879.165
1072.262, 4203.802
1072.744, 4524.804
1073.226, 4812.147
1073.708, 4972.072
1074.190, 4959.457
1074.672, 4798.642
1075.154, 4459.048
1075.636, 4028.662
1076.119, 3520.036
1076.601, 3003.907
1077.083, 2553.438
1077.565, 2176.831
1078.047, 1867.085
1078.529, 1624.356
1079.011, 1426.628
1079.493, 1271.994
1079.975, 1150.794
1080.458, 1070.496
1080.940, 1010.630
1081.422, 954.2817
1081.904, 904.0284
1082.386, 871.4821
1082.868, 860.9053
1083.350, 847.1464
1083.832, 823.8949
1084.314, 800.4395
1084.797, 777.9051
1085.279, 756.6837
1085.761, 733.6235
1086.243, 713.6324
1086.725, 705.5088
1087.207, 709.5170
1087.689, 710.5805
1088.171, 701.7802
1088.654, 705.6859
1089.136, 731.6819
1089.618, 754.9417
1090.100, 762.0021
1090.582, 766.9329
1091.064, 787.0021
1091.546, 818.3917
1092.028, 840.5178
1092.510, 851.5168
1092.993, 863.5756
1093.475, 875.2874
1093.957, 904.5073
1094.439, 960.8350
1094.921, 1006.195
1095.403, 1004.524
1095.885, 982.3102
1096.367, 1003.565
1096.849, 1060.938
1097.332, 1100.639
1097.814, 1121.782
1098.296, 1123.490
1098.778, 1106.673
1099.260, 1080.776
1099.742, 1050.542
1100.224, 1022.843
1100.706, 1011.331
1101.189, 1005.724
1101.671, 982.4420
1102.153, 948.9307
1102.635, 921.6614
1103.117, 901.5403
1103.599, 884.6804
1104.081, 868.9352
1104.563, 846.7831
1105.046, 806.4442
1105.528, 765.7812
1106.010, 742.0085
1106.492, 726.1293
1106.974, 708.9985
1107.456, 691.3026
1107.938, 679.2486
1108.420, 671.7186
1108.902, 653.3615
1109.385, 608.3544
1109.867, 572.7136
1110.349, 566.0767
1110.831, 567.5621
1111.313, 567.9842
1111.795, 567.7487
1112.277, 564.2311
1112.759, 560.9662
1113.241, 573.2793
1113.724, 615.0099
1114.206, 634.4370
1114.688, 616.7145
1115.170, 592.2692
1115.652, 558.8639
1116.134, 530.6600
1116.616, 516.8243
1117.098, 514.1447
1117.581, 518.2465
1118.063, 529.2306
1118.545, 536.4844
1119.027, 539.5943
1119.509, 541.0305
1119.991, 541.4985
1120.473, 536.1926
1120.955, 520.6081
1121.438, 511.5746
1121.920, 531.0555
1122.402, 564.9492
1122.884, 568.6353
1123.366, 546.1134
1123.848, 521.8230
1124.330, 498.8409
1124.812, 491.1002
1125.294, 500.3090
1125.776, 503.5919
1126.259, 483.7486
1126.741, 466.3940
1127.223, 497.9384
1127.705, 543.0607
1128.187, 535.4262
1128.669, 502.6077
1129.151, 506.4698
1129.633, 539.3837
1130.116, 544.6019
1130.598, 502.4179
1131.080, 464.5447
1131.562, 463.7296
1132.044, 475.6067
1132.526, 496.0758
1133.008, 512.3607
1133.490, 507.0780
1133.973, 493.4437
1134.455, 495.2595
1134.937, 513.1691
1135.419, 524.2964
1135.901, 522.9902
1136.383, 517.3013
1136.865, 503.2478
1137.347, 491.2317
1137.829, 480.7844
1138.312, 478.5134
1138.794, 497.3056
1139.276, 524.1668
1139.758, 521.0699
1140.240, 482.0889
1140.722, 465.7394
1141.204, 476.3395
1141.686, 489.0939
1142.168, 500.3853
1142.651, 510.3170
1143.133, 519.4789
1143.615, 524.0427
1144.097, 517.8594
1144.579, 505.1970
1145.061, 497.7259
1145.543, 495.6847
1146.025, 505.4966
1146.508, 522.8087
1146.990, 522.5396
1147.472, 500.5988
1147.954, 482.4916
1148.436, 485.8354
1148.918, 494.9312
1149.400, 493.3264
1149.882, 488.5186
1150.365, 486.6943
1150.847, 489.0398
1151.329, 500.8433
1151.811, 517.2695
1152.293, 523.7332
1152.775, 515.9401
1153.257, 508.7444
1153.739, 508.4131
1154.221, 508.8557
1154.703, 509.7533
1155.186, 508.8034
1155.668, 502.2212
1156.150, 494.4189
1156.632, 491.2460
1157.114, 492.3636
1157.596, 495.6066
1158.078, 503.3397
1158.560, 507.1809
1159.043, 508.0571
1159.525, 500.2747
1160.007, 477.7687
1160.489, 463.1797
1160.971, 474.4508
1161.453, 495.6848
1161.935, 498.4923
1162.417, 486.8050
1162.900, 481.1557
1163.382, 481.1291
1163.864, 485.8718
1164.346, 494.1263
1164.828, 499.8082
1165.310, 500.7393
1165.792, 498.4698
1166.274, 492.9912
1166.756, 488.3036
1167.239, 490.7824
1167.721, 495.2203
1168.203, 494.1809
1168.685, 491.1277
1169.167, 493.6683
1169.649, 500.0510
1170.131, 500.2691
1170.613, 490.2149
1171.095, 483.5779
1171.578, 488.4447
1172.060, 492.6275
1172.542, 491.2260
1173.024, 488.7608
1173.506, 487.4905
1173.988, 487.4246
1174.470, 490.4385
1174.952, 495.1121
1175.434, 489.3239
1175.917, 468.7977
1176.399, 453.8775
1176.881, 444.5986
1177.363, 443.9553
1177.845, 453.3850
1178.327, 467.8225
1178.809, 484.8017
1179.291, 499.1741
1179.774, 503.9585
1180.256, 499.0038
1180.738, 475.2137
1181.220, 443.2385
1181.702, 438.7998
1182.184, 457.8019
1182.666, 472.8763
1183.148, 475.7564
1183.630, 474.5856
1184.113, 472.1299
1184.595, 473.1799
1185.077, 490.1820
1185.559, 502.3256
1186.041, 481.4405
1186.523, 455.8510
1187.005, 462.9656
1187.487, 492.7303
1187.969, 510.5728
1188.452, 510.8688
1188.934, 508.5603
1189.416, 505.7334
1189.898, 498.3357
1190.380, 482.9160
1190.862, 468.3556
1191.344, 455.9327
1191.826, 452.0178
1192.309, 465.8454
1192.791, 488.5836
1193.273, 491.4883
1193.755, 476.7104
1194.237, 478.0273
1194.719, 492.3630
1195.201, 484.9561
1195.683, 454.4028
1196.166, 440.2552
1196.648, 460.0218
1197.130, 484.7002
1197.612, 486.9165
1198.094, 482.8651
1198.576, 495.5497
1199.058, 506.6738
1199.540, 485.8107
1200.022, 453.7091
1200.505, 451.2629
1200.987, 473.5855
1201.469, 474.0561
1201.951, 430.5186
1202.433, 409.0793
1202.915, 443.8110
1203.397, 469.6161
1203.879, 473.4717
1204.361, 463.9792
1204.844, 439.2578
1205.326, 412.9308
1205.808, 403.6424
1206.290, 406.7838
1206.772, 396.5366
1207.254, 373.0137
1207.736, 376.9412
1208.218, 407.6473
1208.701, 432.8778
1209.183, 445.3431
1209.665, 453.0890
1210.147, 460.4342
1210.629, 464.7910
1211.111, 465.3501
1211.593, 459.2992
1212.075, 434.3133
1212.557, 408.1852
1213.040, 402.0773
1213.522, 412.0394
1214.004, 433.8289
1214.486, 462.0597
1214.968, 475.9948
1215.450, 462.3917
1215.932, 458.7284
1216.414, 489.7616
1216.896, 503.0343
1217.379, 471.0638
1217.861, 445.8124
1218.343, 462.3072
1218.825, 490.2547
1219.307, 488.1775
1219.789, 463.2126
1220.271, 447.4240
1220.753, 440.4032
1221.236, 433.3923
1221.718, 427.2369
1222.200, 436.4122
1222.682, 460.7706
1223.164, 474.4587
1223.646, 463.9654
1224.128, 447.4587
1224.610, 432.2902
1225.093, 429.8675
1225.575, 467.2778
1226.057, 507.4181
1226.539, 508.7230
1227.021, 488.8659
1227.503, 479.7045
1227.985, 481.3760
1228.467, 471.9067
1228.949, 437.4754
1229.432, 426.1212
1229.914, 453.0625
1230.396, 474.0118
1230.878, 482.8566
1231.360, 479.9262
1231.842, 462.1449
1232.324, 444.6226
1232.806, 446.2868
1233.288, 457.8114
1233.771, 451.9644
1234.253, 434.5340
1234.735, 428.6680
1235.217, 431.3423
1235.699, 430.7790
1236.181, 424.8818
1236.663, 414.7817
1237.145, 401.0762
1237.628, 388.1888
1238.110, 373.2884
1238.592, 368.1052
1239.074, 391.0507
1239.556, 411.6113
1240.038, 396.9289
1240.520, 379.4758
1241.002, 409.3834
1241.484, 463.5572
1241.967, 475.9034
1242.449, 441.8347
1242.931, 423.5945
1243.413, 423.0719
1243.895, 425.8710
1244.377, 430.3531
1244.859, 438.8816
1245.341, 452.2905
1245.823, 463.3241
1246.306, 466.5158
1246.788, 463.5634
1247.270, 451.2330
1247.752, 439.0252
1248.234, 442.7655
1248.716, 453.8293
1249.198, 460.1105
1249.680, 462.5180
1250.163, 468.3481
1250.645, 477.8384
1251.127, 477.8657
1251.609, 455.7046
1252.091, 443.6206
1252.573, 452.3322
1253.055, 457.6588
1253.537, 452.7217
1254.020, 445.9809
1254.502, 442.0776
1254.984, 440.8813
1255.466, 443.2351
1255.948, 446.7283
1256.430, 441.6211
1256.912, 430.8660
1257.394, 425.7617
1257.876, 425.5599
1258.359, 424.0594
1258.841, 421.7524
1259.323, 427.3376
1259.805, 444.5906
1260.287, 460.2009
1260.769, 466.7641
1261.251, 469.7036
1261.733, 467.3548
1262.215, 466.8984
1262.698, 479.5956
1263.180, 489.5805
1263.662, 476.1320
1264.144, 451.5583
1264.626, 448.1685
1265.108, 466.0898
1265.590, 476.9536
1266.072, 480.8042
1266.555, 486.8426
1267.037, 495.4263
1267.519, 499.7234
1268.001, 497.5101
1268.483, 487.8933
1268.965, 468.2618
1269.447, 454.6750
1269.929, 474.7238
1270.411, 493.4120
1270.894, 468.0429
1271.376, 438.3378
1271.858, 433.7048
##END=



