##NAMES=Skutterudite
##RRUFFID=R050593
##IDEAL CHEMISTRY=Co^3+^As_3_
##LOCALITY=Bou Azzer, Morocco
##OWNER=RRUFF
##SOURCE=Marcus Origlieri
##DESCRIPTION=Gray metallic, massive to coarsely crystalline
##STATUS=The identification of this mineral has been confirmed by X-ray diffraction and chemical analysis
##URL=rruff.info/R050593
##MEASURED CHEMISTRY=(Co_0.86_Fe_0.11_Ni_0.07_)_Σ=1.04_(As_2.93_S_0.07_)_Σ=3.00_
92.06543, 302.3210
92.54755, 300.9214
93.02966, 302.0373
93.51178, 307.1507
93.99390, 307.6240
94.47601, 301.1246
94.95813, 289.9183
95.44025, 277.9874
95.92236, 268.4331
96.40448, 261.3511
96.88660, 254.3173
97.36871, 248.0729
97.85082, 241.5873
98.33294, 233.8741
98.81506, 224.6801
99.29717, 214.9333
99.77929, 207.2431
100.2614, 201.4758
100.7435, 194.0368
101.2256, 182.0394
101.7078, 167.7150
102.1899, 156.3914
102.6720, 149.7570
103.1541, 145.6211
103.6362, 141.5003
104.1183, 137.3914
104.6005, 133.8069
105.0826, 131.4760
105.5647, 130.5888
106.0468, 129.2897
106.5289, 127.5898
107.0110, 125.0816
107.4931, 121.1416
107.9753, 115.6050
108.4574, 109.3242
108.9395, 103.9449
109.4216, 99.84848
109.9037, 96.17248
110.3858, 92.94910
110.8680, 89.97924
111.3501, 87.04966
111.8322, 84.02444
112.3143, 80.98634
112.7964, 78.42997
113.2785, 76.56184
113.7607, 74.89151
114.2428, 73.31602
114.7249, 71.84617
115.2070, 70.49845
115.6891, 69.26640
116.1712, 68.18511
116.6534, 67.47617
117.1355, 67.40743
117.6176, 67.49837
118.0997, 67.24010
118.5818, 66.55741
119.0639, 66.10915
119.5461, 66.48257
120.0282, 67.56491
120.5103, 69.28677
120.9924, 72.11247
121.4745, 75.54692
121.9566, 78.52010
122.4388, 81.03277
122.9209, 82.81071
123.4030, 83.87486
123.8851, 84.24084
124.3672, 83.95092
124.8493, 82.89767
125.3315, 81.03733
125.8136, 79.03264
126.2957, 76.27122
126.7778, 73.87925
127.2599, 72.69788
127.7420, 72.64597
128.2242, 72.72627
128.7063, 71.44760
129.1884, 67.58775
129.6705, 64.89339
130.1526, 64.11774
130.6347, 63.85104
131.1169, 63.12542
131.5990, 61.60250
132.0811, 59.50354
132.5632, 57.30626
133.0453, 54.74609
133.5274, 52.39788
134.0096, 50.04094
134.4917, 47.96331
134.9738, 46.69202
135.4559, 46.55306
135.9380, 47.19624
136.4201, 47.42455
136.9023, 47.08245
137.3844, 46.64121
137.8665, 46.32759
138.3486, 46.09978
138.8307, 45.75800
139.3128, 45.17119
139.7950, 44.39122
140.2771, 43.58647
140.7592, 42.74004
141.2413, 41.89386
141.7234, 41.10967
142.2055, 40.41069
142.6877, 39.66805
143.1698, 38.63378
143.6519, 37.56171
144.1340, 36.77217
144.6161, 36.45744
145.0982, 36.46438
145.5803, 36.41917
146.0625, 36.39779
146.5446, 36.17354
147.0267, 35.54332
147.5088, 34.70731
147.9909, 33.96331
148.4730, 33.50882
148.9552, 33.33250
149.4373, 33.21320
149.9194, 33.22480
150.4015, 33.22864
150.8836, 33.22266
151.3657, 33.18386
151.8479, 33.05989
152.3300, 32.78067
152.8121, 32.28051
153.2942, 32.03825
153.7763, 32.31207
154.2584, 32.56295
154.7406, 32.54063
155.2227, 32.22057
155.7048, 31.69923
156.1869, 31.04914
156.6690, 30.19727
157.1511, 29.52057
157.6333, 28.96280
158.1154, 28.60244
158.5975, 28.60022
159.0796, 28.99954
159.5617, 29.50443
160.0438, 29.68278
160.5260, 29.51284
161.0081, 29.46824
161.4902, 29.81183
161.9723, 30.32833
162.4544, 30.59982
162.9365, 30.46633
163.4187, 30.19183
163.9008, 30.07624
164.3829, 30.11061
164.8650, 30.17784
165.3471, 30.19049
165.8292, 30.16672
166.3113, 30.23815
166.7935, 30.52555
167.2756, 30.83003
167.7577, 31.04153
168.2398, 31.15013
168.7219, 31.11862
169.2040, 30.86761
169.6862, 30.36242
170.1683, 29.87725
170.6504, 29.43006
171.1325, 29.03510
171.6146, 28.69259
172.0967, 28.40681
172.5789, 28.19570
173.0610, 28.11708
173.5431, 28.29564
174.0252, 28.31413
174.5073, 28.10233
174.9894, 27.77987
175.4716, 27.37404
175.9537, 26.91155
176.4358, 26.48228
176.9179, 26.26391
177.4000, 26.23697
177.8821, 26.50588
178.3643, 27.41749
178.8464, 28.46324
179.3285, 29.04749
179.8106, 28.92884
180.2927, 28.43062
180.7748, 28.44106
181.2570, 29.74949
181.7391, 30.58778
182.2212, 30.50179
182.7033, 29.87364
183.1854, 29.19346
183.6675, 28.63114
184.1497, 28.27944
184.6318, 28.53082
185.1139, 29.86207
185.5960, 30.92776
186.0781, 31.09246
186.5602, 30.59584
187.0423, 30.08444
187.5245, 29.78296
188.0066, 29.74557
188.4887, 30.03643
188.9708, 30.80031
189.4529, 31.61968
189.9350, 32.26794
190.4172, 32.74729
190.8993, 33.08424
191.3814, 33.07264
191.8635, 33.05598
192.3456, 33.56299
192.8277, 34.84282
193.3099, 36.25338
193.7920, 37.10081
194.2741, 37.30488
194.7562, 37.55481
195.2383, 38.12754
195.7204, 38.89022
196.2026, 39.88368
196.6847, 41.24846
197.1668, 42.45984
197.6489, 42.66189
198.1310, 41.59256
198.6131, 40.22140
199.0953, 38.64827
199.5774, 37.01070
200.0595, 35.40210
200.5416, 33.83649
201.0237, 32.39394
201.5058, 31.28152
201.9880, 30.64882
202.4701, 30.10149
202.9522, 29.57909
203.4343, 29.08662
203.9164, 28.59866
204.3985, 28.09931
204.8807, 27.66122
205.3628, 27.52518
205.8449, 28.06807
206.3270, 28.43279
206.8091, 28.41932
207.2912, 28.22289
207.7733, 28.01826
208.2555, 27.88789
208.7376, 27.87651
209.2197, 28.15581
209.7018, 29.32057
210.1839, 30.11059
210.6660, 30.10335
211.1482, 29.70485
211.6303, 29.48712
212.1124, 29.75146
212.5945, 30.37271
213.0766, 30.85282
213.5587, 30.99161
214.0409, 31.23406
214.5230, 31.95080
215.0051, 32.80870
215.4872, 33.18919
215.9693, 32.74129
216.4514, 31.65877
216.9336, 30.66776
217.4157, 29.82762
217.8978, 28.97528
218.3799, 28.02844
218.8620, 27.02565
219.3441, 26.02833
219.8263, 25.03083
220.3084, 24.11156
220.7905, 23.45266
221.2726, 23.07280
221.7547, 22.86263
222.2368, 22.85955
222.7190, 23.01133
223.2011, 23.08878
223.6832, 22.93541
224.1653, 22.70515
224.6474, 22.70626
225.1295, 23.03735
225.6117, 23.36018
226.0938, 23.43022
226.5759, 23.27306
227.0580, 23.09094
227.5401, 22.89490
228.0222, 22.76588
228.5043, 22.80227
228.9865, 23.03627
229.4686, 23.32571
229.9507, 23.62233
230.4328, 23.92455
230.9149, 24.00231
231.3970, 23.44540
231.8792, 22.88576
232.3613, 22.96821
232.8434, 23.80971
233.3255, 24.71854
233.8076, 24.96465
234.2897, 24.48743
234.7719, 24.06006
235.2540, 23.94150
235.7361, 23.86890
236.2182, 23.62758
236.7003, 23.19714
237.1824, 22.81396
237.6646, 22.73115
238.1467, 22.97857
238.6288, 23.36325
239.1109, 24.15116
239.5930, 24.86472
240.0751, 25.16765
240.5573, 25.05613
241.0394, 24.86530
241.5215, 25.03571
242.0036, 25.71348
242.4857, 26.15576
242.9678, 26.12584
243.4500, 26.01132
243.9321, 25.95472
244.4142, 25.99300
244.8963, 26.12673
245.3784, 26.40065
245.8605, 26.90817
246.3427, 27.20447
246.8248, 27.15410
247.3069, 27.02324
247.7890, 26.89016
248.2711, 26.78727
248.7532, 26.74841
249.2354, 26.82564
249.7175, 27.06686
250.1996, 27.21625
250.6817, 27.21057
251.1638, 27.18189
251.6459, 27.12601
252.1281, 27.08576
252.6102, 27.16326
253.0923, 27.46652
253.5744, 28.02375
254.0565, 28.63689
254.5386, 29.64517
255.0208, 30.39782
255.5029, 30.56475
255.9850, 30.19108
256.4671, 29.53370
256.9492, 28.80544
257.4313, 28.01843
257.9135, 27.00696
258.3956, 25.40052
258.8777, 23.97465
259.3598, 23.07922
259.8419, 22.65665
260.3240, 22.45049
260.8062, 22.27598
261.2883, 22.13432
261.7704, 22.13568
262.2525, 22.47995
262.7346, 22.73388
263.2167, 22.65952
263.6989, 22.34259
264.1810, 22.02355
264.6631, 21.84900
265.1452, 21.80903
265.6273, 21.81364
266.1094, 22.00291
266.5916, 22.08163
267.0737, 21.93912
267.5558, 21.60548
268.0379, 21.10283
268.5200, 20.37979
269.0021, 19.56458
269.4843, 19.21255
269.9664, 19.72147
270.4485, 20.10486
270.9306, 19.91816
271.4127, 19.38413
271.8948, 19.01242
272.3770, 19.07514
272.8591, 19.34206
273.3412, 19.13936
273.8233, 18.13977
274.3054, 17.44021
274.7875, 17.58744
275.2697, 18.24087
275.7518, 18.77606
276.2339, 18.97816
276.7160, 18.96926
277.1981, 18.95600
277.6802, 18.95290
278.1623, 18.89995
278.6444, 18.69369
279.1266, 18.44436
279.6087, 18.36731
280.0908, 18.54459
280.5729, 18.80069
281.0550, 18.88484
281.5371, 18.80160
282.0193, 18.72457
282.5014, 18.67604
282.9835, 18.66631
283.4656, 18.73417
283.9477, 18.90051
284.4298, 19.06171
284.9120, 19.05945
285.3941, 18.92292
285.8762, 18.89165
286.3583, 19.13007
286.8404, 19.44619
287.3225, 19.59828
287.8047, 19.55491
288.2868, 19.44311
288.7689, 19.33993
289.2510, 19.24752
289.7331, 19.17187
290.2152, 19.13412
290.6974, 19.10214
291.1795, 19.01840
291.6616, 18.87881
292.1437, 18.80044
292.6258, 18.91820
293.1079, 19.13683
293.5901, 19.22528
294.0722, 19.07249
294.5543, 18.88231
295.0364, 18.81930
295.5185, 18.87900
296.0006, 18.99230
296.4828, 19.16975
296.9649, 19.35610
297.4470, 19.46413
297.9291, 19.48434
298.4112, 19.44187
298.8933, 19.34961
299.3755, 19.20827
299.8576, 18.99947
300.3397, 18.63578
300.8218, 18.29513
301.3039, 18.23573
301.7860, 18.49616
302.2682, 18.74194
302.7503, 18.72871
303.2324, 18.54156
303.7145, 18.50594
304.1966, 18.77525
304.6787, 19.06989
305.1609, 19.03616
305.6430, 18.71672
306.1251, 18.48712
306.6072, 18.64230
307.0893, 18.98520
307.5714, 19.07582
308.0536, 18.82414
308.5357, 18.43640
309.0178, 17.96768
309.4999, 17.48115
309.9820, 17.18936
310.4641, 17.22431
310.9463, 17.46875
311.4284, 17.82256
311.9105, 18.32426
312.3926, 18.69940
312.8747, 18.68188
313.3568, 18.42373
313.8390, 18.17063
314.3211, 17.88797
314.8032, 17.71206
315.2853, 17.86357
315.7674, 18.34977
316.2495, 18.76951
316.7317, 18.95576
317.2138, 18.94990
317.6959, 18.79460
318.1780, 18.40763
318.6601, 18.09268
319.1422, 18.13010
319.6243, 18.47263
320.1064, 18.81165
320.5886, 19.12772
321.0707, 19.30462
321.5528, 19.16685
322.0349, 18.68921
322.5170, 18.26597
322.9991, 18.17179
323.4813, 18.29695
323.9634, 18.31460
324.4455, 18.13057
324.9276, 17.90763
325.4097, 17.82533
325.8918, 17.85523
326.3740, 17.86591
326.8561, 17.73625
327.3382, 17.58413
327.8203, 17.62418
328.3024, 17.90222
328.7845, 18.21944
329.2667, 18.45800
329.7488, 18.62133
330.2309, 18.70825
330.7130, 18.70584
331.1951, 18.63458
331.6772, 18.50810
332.1594, 18.32661
332.6415, 18.09458
333.1236, 17.74893
333.6057, 17.38704
334.0878, 17.20776
334.5699, 17.29779
335.0521, 17.42403
335.5342, 17.51408
336.0163, 17.53751
336.4984, 17.30793
336.9805, 16.61546
337.4626, 15.84900
337.9448, 15.65937
338.4269, 16.10244
338.9090, 16.55198
339.3911, 16.79211
339.8732, 16.86538
340.3553, 16.80433
340.8375, 16.58058
341.3196, 16.37110
341.8017, 16.46051
342.2838, 16.81181
342.7659, 16.96083
343.2480, 16.58700
343.7302, 16.09987
344.2123, 16.03580
344.6944, 16.42673
345.1765, 16.70378
345.6586, 16.34731
346.1407, 15.48803
346.6229, 15.03220
347.1050, 15.26173
347.5871, 15.65241
348.0692, 15.96178
348.5513, 16.18304
349.0334, 16.31232
349.5156, 16.35167
349.9977, 16.28682
350.4798, 16.05701
350.9619, 15.55148
351.4440, 15.13363
351.9261, 14.91969
352.4083, 14.86977
352.8904, 14.95957
353.3725, 15.19808
353.8546, 15.45820
354.3367, 15.53838
354.8188, 15.38073
355.3010, 15.29136
355.7831, 15.34466
356.2652, 15.44794
356.7473, 15.53121
357.2294, 15.58259
357.7115, 15.60977
358.1937, 15.63146
358.6758, 15.64621
359.1579, 15.53610
359.6400, 15.03678
360.1221, 14.67907
360.6042, 14.86449
361.0863, 15.41805
361.5685, 15.86730
362.0506, 15.94919
362.5327, 15.72648
363.0148, 15.44466
363.4969, 14.90234
363.9790, 14.55560
364.4612, 14.59755
364.9433, 14.82055
365.4254, 14.95954
365.9075, 14.93004
366.3896, 14.86548
366.8717, 15.00935
367.3539, 15.64666
367.8360, 15.80519
368.3181, 14.94624
368.8002, 14.05675
369.2823, 13.88306
369.7644, 14.40095
370.2466, 15.05199
370.7287, 15.33605
371.2108, 15.23174
371.6929, 15.10545
372.1750, 14.93283
372.6571, 14.76533
373.1393, 14.60260
373.6214, 14.45708
374.1035, 14.34270
374.5856, 14.26733
375.0677, 14.23098
375.5498, 14.23871
376.0320, 14.36043
376.5141, 14.41997
376.9962, 14.32355
377.4783, 14.20953
377.9604, 14.23580
378.4425, 14.42549
378.9247, 14.62774
379.4068, 14.61212
379.8889, 14.28614
380.3710, 14.06630
380.8531, 14.02664
381.3352, 14.02675
381.8174, 14.05799
382.2995, 14.08369
382.7816, 14.01869
383.2637, 13.75943
383.7458, 13.35350
384.2279, 13.13919
384.7101, 13.20303
385.1922, 13.34225
385.6743, 13.57756
386.1564, 13.81051
386.6385, 13.91489
387.1206, 13.83152
387.6028, 13.64905
388.0849, 13.48699
388.5670, 13.33624
389.0491, 13.25201
389.5312, 13.26832
390.0133, 13.34561
390.4955, 13.44968
390.9776, 13.58204
391.4597, 13.78998
391.9418, 14.27209
392.4239, 14.92551
392.9060, 15.04757
393.3882, 14.26454
393.8703, 13.52460
394.3524, 13.64635
394.8345, 14.25926
395.3166, 14.54705
395.7987, 13.95627
396.2809, 13.09089
396.7630, 12.84448
397.2451, 13.25679
397.7272, 13.63919
398.2093, 13.61580
398.6914, 13.42865
399.1736, 13.47392
399.6557, 13.82365
400.1378, 14.21334
400.6199, 14.59386
401.1020, 14.89743
401.5841, 14.87550
402.0662, 14.39061
402.5483, 13.81575
403.0305, 13.64627
403.5126, 13.85152
403.9947, 13.93997
404.4768, 13.66683
404.9589, 13.34450
405.4410, 13.29245
405.9232, 13.50656
406.4053, 13.77605
406.8874, 14.00722
407.3695, 14.16710
407.8516, 14.10918
408.3337, 13.61587
408.8159, 13.18950
409.2980, 12.99053
409.7801, 12.95625
410.2622, 12.98876
410.7443, 13.05504
411.2264, 13.17568
411.7086, 13.39414
412.1907, 13.78633
412.6728, 14.08385
413.1549, 14.37279
413.6370, 14.50458
414.1191, 14.25977
414.6013, 13.72352
415.0834, 13.23693
415.5655, 13.07336
416.0476, 13.21621
416.5297, 13.38882
417.0118, 13.65679
417.4940, 13.87824
417.9761, 14.02057
418.4582, 14.10663
418.9403, 14.15849
419.4224, 14.18603
419.9045, 14.19631
420.3867, 14.19794
420.8688, 14.17991
421.3509, 14.18335
421.8330, 14.34941
422.3151, 14.41891
422.7972, 14.14399
423.2794, 13.61305
423.7615, 13.16142
424.2436, 13.05800
424.7257, 13.26346
425.2078, 13.54235
425.6899, 14.04083
426.1721, 14.34504
426.6542, 14.15893
427.1363, 13.78183
427.6184, 13.58556
428.1005, 13.70826
428.5826, 13.92348
429.0648, 13.94064
429.5469, 13.75663
430.0290, 13.62396
430.5111, 13.62414
430.9932, 13.66466
431.4753, 13.66690
431.9575, 13.63354
432.4396, 13.58710
432.9217, 13.52609
433.4038, 13.46314
433.8859, 13.44376
434.3680, 13.48116
434.8502, 13.44948
435.3323, 13.21140
435.8144, 12.85741
436.2965, 12.63951
436.7786, 12.59472
437.2607, 12.64263
437.7429, 12.87203
438.2250, 13.15638
438.7071, 13.13383
439.1892, 12.64890
439.6713, 12.06916
440.1534, 11.94102
440.6356, 12.39829
441.1177, 12.71020
441.5998, 12.81052
442.0819, 12.77639
442.5640, 12.58856
443.0461, 12.29734
443.5282, 12.05033
444.0103, 11.94533
444.4925, 11.96950
444.9746, 12.05641
445.4567, 12.34371
445.9388, 12.52199
446.4209, 12.52306
446.9030, 12.41750
447.3852, 12.24374
447.8673, 12.02611
448.3494, 11.82196
448.8315, 11.69836
449.3136, 11.65343
449.7957, 11.70012
450.2779, 12.01155
450.7600, 12.24408
451.2421, 12.17530
451.7242, 11.95180
452.2063, 11.89254
452.6884, 12.21389
453.1706, 12.68403
453.6527, 12.67523
454.1348, 11.96103
454.6169, 11.48544
455.0990, 11.81626
455.5811, 12.25072
456.0633, 12.21667
456.5454, 11.69259
457.0275, 11.26427
457.5096, 11.51469
457.9917, 12.22261
458.4738, 12.56780
458.9560, 12.41058
459.4381, 12.14738
459.9202, 12.04419
460.4023, 12.01901
460.8844, 11.90331
461.3665, 11.55650
461.8487, 11.27481
462.3308, 11.37964
462.8129, 11.75290
463.2950, 11.94240
463.7771, 11.75255
464.2592, 11.46934
464.7414, 11.55508
465.2235, 12.08634
465.7056, 12.41544
466.1877, 12.45643
466.6698, 12.28219
467.1519, 11.78324
467.6341, 11.07166
468.1162, 10.62700
468.5983, 10.82210
469.0804, 11.43231
469.5625, 10.53997
470.0446, 11.65855
470.5268, 12.29074
471.0089, 12.46267
471.4910, 10.79583
471.9731, 11.50338
472.4552, 11.25939
472.9373, 10.97637
473.4195, 12.01811
473.9016, 10.61872
474.3837, 11.63945
474.8658, 11.69411
475.3479, 12.19091
475.8300, 11.73029
476.3122, 11.56539
476.7943, 12.35822
477.2764, 11.92617
477.7585, 12.28795
478.2406, 12.13634
478.7227, 11.39058
479.2049, 10.87376
479.6870, 10.85494
480.1691, 10.99084
480.6512, 11.06458
481.1333, 11.07410
481.6154, 11.03942
482.0976, 10.92114
482.5797, 10.78572
483.0618, 10.72085
483.5439, 10.72659
484.0260, 10.83358
484.5081, 11.07456
484.9902, 11.42037
485.4724, 11.84276
485.9545, 12.45198
486.4366, 12.82094
486.9187, 12.63339
487.4008, 12.19724
487.8829, 11.91354
488.3651, 11.84450
488.8472, 11.85285
489.3293, 11.82335
489.8114, 11.75625
490.2935, 11.71578
490.7756, 11.71981
491.2578, 11.72441
491.7399, 11.63557
492.2220, 11.57020
492.7041, 11.75581
493.1862, 12.24745
493.6683, 12.77027
494.1505, 12.90165
494.6326, 12.53137
495.1147, 12.20664
495.5968, 11.96196
496.0789, 11.73260
496.5610, 11.34587
497.0432, 10.97716
497.5253, 11.02003
498.0074, 11.77003
498.4895, 12.75824
498.9716, 13.02717
499.4537, 12.44028
499.9359, 12.00925
500.4180, 12.14387
500.9001, 12.35509
501.3822, 12.15617
501.8643, 11.59319
502.3464, 11.18680
502.8286, 11.35159
503.3107, 11.74148
503.7928, 11.78232
504.2749, 11.45625
504.7570, 11.17983
505.2391, 11.17018
505.7213, 11.36109
506.2034, 11.59271
506.6855, 11.94004
507.1676, 12.15481
507.6497, 12.14889
508.1318, 11.98879
508.6140, 11.60033
509.0961, 11.04394
509.5782, 10.77051
510.0603, 11.25102
510.5424, 12.42553
511.0245, 13.04252
511.5067, 12.58529
511.9888, 12.19066
512.4709, 12.08875
512.9530, 12.12034
513.4351, 12.10493
513.9172, 11.99522
514.3994, 11.86547
514.8815, 11.79512
515.3636, 11.78398
515.8457, 11.85073
516.3278, 12.18539
516.8099, 12.33351
517.2921, 11.89926
517.7742, 11.23870
518.2563, 10.93450
518.7384, 11.24533
519.2205, 11.72872
519.7026, 11.91951
520.1848, 11.84586
520.6669, 11.71006
521.1490, 11.51932
521.6311, 11.34661
522.1132, 11.30076
522.5953, 11.35413
523.0775, 11.35605
523.5596, 11.21371
524.0417, 11.07230
524.5238, 11.04416
525.0059, 11.10153
525.4880, 11.15091
525.9702, 11.14965
526.4523, 11.15404
526.9344, 11.26249
527.4165, 11.50630
527.8986, 11.78340
528.3807, 12.40039
528.8629, 12.76682
529.3450, 12.33725
529.8271, 11.40072
530.3092, 10.62016
530.7913, 10.36425
531.2734, 10.51506
531.7556, 10.87138
532.2377, 11.64058
532.7198, 12.02114
533.2019, 11.50727
533.6840, 10.88801
534.1661, 10.58192
534.6483, 10.56656
535.1304, 10.59828
535.6125, 10.49729
536.0946, 10.38268
536.5767, 10.53735
537.0588, 10.97992
537.5410, 11.28400
538.0231, 11.20636
538.5052, 10.97636
538.9873, 11.01932
539.4694, 11.40323
539.9515, 11.52948
540.4337, 10.88363
540.9158, 10.13648
541.3979, 10.10041
541.8800, 10.67959
542.3621, 11.06652
542.8442, 10.71583
543.3264, 9.909543
543.8085, 9.612779
544.2906, 10.34963
544.7726, 10.88930
545.2548, 11.14351
545.7369, 11.25420
546.2190, 11.26439
546.7011, 11.22052
547.1832, 11.21195
547.6653, 10.43510
548.1475, 11.53894
548.6296, 12.15639
549.1117, 12.31358
549.5938, 10.63200
550.0759, 11.32481
550.5580, 11.06608
551.0402, 10.76832
551.5223, 11.79532
552.0044, 10.38118
552.4865, 11.38717
552.9686, 11.42709
553.4507, 11.90916
553.9329, 11.43380
554.4150, 11.25416
554.8971, 12.03225
555.3792, 12.28004
555.8613, 11.69446
556.3434, 12.20463
556.8256, 10.75705
557.3077, 11.02743
557.7898, 12.03902
558.2719, 11.50159
558.7540, 12.02927
559.2361, 12.15129
559.7183, 10.42979
560.2004, 11.50692
560.6825, 11.53273
561.1646, 10.80339
561.6467, 10.42373
562.1288, 10.75072
562.6110, 11.21843
563.0931, 11.46255
563.5752, 11.45715
564.0573, 11.34455
564.5394, 11.18166
565.0215, 11.00476
565.5037, 10.91763
565.9858, 10.93269
566.4679, 10.96162
566.9500, 11.02587
567.4321, 11.03870
567.9142, 10.81810
568.3964, 10.33143
568.8785, 10.07282
569.3606, 10.40663
569.8427, 10.91137
570.3248, 11.22534
570.8069, 11.31773
571.2891, 11.14748
571.7712, 10.64021
572.2533, 10.01483
572.7354, 9.838133
573.2175, 10.57173
573.6996, 10.94020
574.1818, 10.66391
574.6639, 10.29532
575.1460, 10.14592
575.6281, 10.19389
576.1102, 10.30089
576.5923, 10.39813
577.0745, 10.46451
577.5566, 10.40694
578.0387, 10.16903
578.5208, 10.13097
579.0029, 10.57759
579.4850, 11.02252
579.9672, 11.06864
580.4493, 10.78968
580.9314, 10.51427
581.4135, 10.36756
581.8956, 10.27094
582.3777, 10.11598
582.8599, 9.938070
583.3420, 9.862584
583.8241, 9.927890
584.3062, 10.14822
584.7883, 10.62579
585.2704, 11.52665
585.7526, 11.78377
586.2347, 10.78632
586.7168, 9.843892
587.1989, 9.533484
587.6810, 9.648393
588.1631, 9.862279
588.6453, 10.04374
589.1274, 10.16059
589.6095, 10.10098
590.0916, 9.818085
590.5737, 9.818676
591.0558, 10.30057
591.5380, 10.79102
592.0201, 11.13162
592.5022, 11.31989
592.9843, 11.30580
593.4664, 11.01759
593.9485, 10.75095
594.4307, 10.77266
594.9128, 10.97979
595.3949, 11.15143
595.8770, 11.25486
596.3591, 11.28874
596.8412, 11.25430
597.3234, 11.14952
597.8055, 10.95526
598.2876, 10.33637
598.7697, 10.08127
599.2518, 10.61742
599.7339, 11.38009
600.2161, 11.93575
600.6982, 12.17901
601.1803, 12.07749
601.6624, 11.52774
602.1445, 10.68125
602.6266, 10.26991
603.1088, 10.43870
603.5909, 10.67067
604.0730, 11.00282
604.5551, 11.22441
605.0372, 11.07582
605.5193, 10.59925
606.0015, 10.22730
606.4836, 10.22740
606.9657, 10.40126
607.4478, 10.51989
607.9299, 10.58917
608.4120, 10.66152
608.8942, 10.75153
609.3763, 10.87679
609.8584, 11.09671
610.3405, 11.50432
610.8226, 11.62809
611.3047, 11.18686
611.7869, 10.76812
612.2690, 10.64669
612.7511, 10.73212
613.2332, 10.87401
613.7153, 11.01157
614.1974, 11.11922
614.6796, 11.19705
615.1617, 11.25361
615.6438, 11.06967
616.1259, 10.47099
616.6080, 9.921105
617.0901, 9.619787
617.5723, 9.522992
618.0544, 9.608702
618.5365, 9.909051
619.0186, 10.25625
619.5007, 10.66201
619.9828, 11.00966
620.4650, 11.03335
620.9471, 10.73622
621.4292, 10.50780
621.9113, 10.64981
622.3934, 11.01376
622.8755, 11.02001
623.3577, 10.08978
623.8398, 9.640305
624.3219, 10.05049
624.8040, 10.62893
625.2861, 10.98835
625.7682, 11.10889
626.2504, 11.08609
626.7325, 10.94142
627.2145, 10.77122
627.6967, 10.77167
628.1788, 10.95057
628.6609, 11.13060
629.1430, 11.32224
629.6251, 11.43584
630.1072, 11.31246
630.5894, 11.02593
631.0715, 10.84794
631.5536, 10.93322
632.0357, 11.00963
632.5178, 10.91244
632.9999, 10.72578
633.4821, 10.59665
633.9642, 10.55073
634.4463, 10.47737
634.9284, 10.24971
635.4105, 9.889042
635.8926, 9.714357
636.3748, 9.689243
636.8569, 9.927686
637.3390, 10.77574
637.8211, 11.62593
638.3032, 11.97087
638.7853, 11.79958
639.2675, 11.45637
639.7496, 10.99293
640.2317, 10.58657
640.7138, 10.59970
641.1959, 10.99935
641.6780, 11.37029
642.1602, 11.60088
642.6423, 11.66859
643.1244, 11.51979
643.6065, 11.11425
644.0886, 10.70850
644.5707, 10.12550
645.0529, 9.738354
645.5350, 9.781161
646.0171, 10.08113
646.4992, 10.41232
646.9813, 10.70272
647.4634, 10.99789
647.9456, 11.43066
648.4277, 11.95572
648.9098, 11.93276
649.3919, 11.05734
649.8740, 10.42923
650.3561, 10.71036
650.8383, 11.31012
651.3204, 11.60672
651.8025, 11.56213
652.2846, 11.35335
652.7667, 10.77122
653.2488, 10.26454
653.7310, 10.42632
654.2131, 11.07146
654.6952, 11.54990
655.1773, 11.58955
655.6594, 11.34716
656.1415, 11.03689
656.6237, 10.61081
657.1058, 10.34496
657.5879, 10.19489
658.0700, 10.27075
658.5521, 10.87046
659.0342, 11.59374
659.5164, 11.89937
659.9985, 11.66484
660.4806, 11.33412
660.9627, 11.26587
661.4448, 11.36609
661.9269, 11.40195
662.4091, 11.36165
662.8912, 11.39717
663.3733, 11.62856
663.8554, 11.90975
664.3375, 11.94451
664.8196, 11.64664
665.3018, 11.33941
665.7839, 10.91720
666.2660, 10.59823
666.7481, 10.48576
667.2302, 10.56160
667.7123, 10.87418
668.1945, 11.42774
668.6766, 11.88796
669.1587, 11.70176
669.6408, 10.93032
670.1229, 10.57060
670.6050, 10.78752
671.0872, 11.00438
671.5693, 10.91252
672.0514, 10.65881
672.5335, 10.49324
673.0156, 10.42917
673.4977, 10.40244
673.9799, 10.28516
674.4620, 10.28768
674.9441, 10.77528
675.4262, 11.53441
675.9083, 11.96650
676.3904, 11.80659
676.8726, 11.32019
677.3547, 10.85293
677.8368, 10.33825
678.3189, 10.32661
678.8010, 11.30121
679.2831, 12.07716
679.7653, 12.04141
680.2474, 11.63794
680.7295, 11.41301
681.2116, 11.46783
681.6937, 11.49347
682.1758, 11.20640
682.6580, 10.86215
683.1401, 10.85700
683.6222, 11.13661
684.1043, 11.31491
684.5864, 11.20265
685.0685, 10.97145
685.5507, 10.92079
686.0328, 11.09755
686.5149, 11.26624
686.9970, 11.42414
687.4791, 11.57547
687.9612, 11.81752
688.4434, 12.00762
688.9255, 11.92693
689.4076, 11.53168
689.8897, 11.10400
690.3718, 10.82620
690.8539, 10.67988
691.3361, 10.63817
691.8182, 10.69891
692.3003, 10.88690
692.7824, 11.27291
693.2645, 11.62591
693.7466, 11.51882
694.2288, 10.73059
694.7109, 10.41675
695.1930, 11.03690
695.6751, 11.56445
696.1572, 11.58656
696.6393, 11.33627
697.1215, 11.07551
697.6036, 10.88664
698.0857, 10.80441
698.5678, 10.89253
699.0499, 11.10536
699.5320, 11.38731
700.0142, 11.75137
700.4963, 11.77533
700.9784, 11.11690
701.4605, 10.38652
701.9426, 10.53602
702.4247, 11.74441
702.9069, 12.39384
703.3890, 12.09824
703.8711, 11.66236
704.3532, 11.26724
704.8353, 10.97156
705.3174, 10.84402
705.7996, 10.88379
706.2817, 11.00254
706.7638, 11.13958
707.2459, 11.28668
707.7280, 11.46163
708.2101, 11.68858
708.6923, 11.67208
709.1743, 11.17072
709.6564, 10.63582
710.1385, 10.60834
710.6207, 11.04408
711.1028, 11.39670
711.5849, 11.68179
712.0670, 11.81798
712.5491, 11.63866
713.0313, 11.37161
713.5134, 11.29655
713.9955, 11.42804
714.4776, 11.57221
714.9597, 11.57308
715.4418, 11.50328
715.9240, 11.58939
716.4061, 11.85991
716.8882, 12.03427
717.3703, 12.05394
717.8524, 11.97142
718.3345, 11.74298
718.8167, 11.43835
719.2988, 11.30806
719.7809, 11.48779
720.2630, 11.66802
720.7451, 11.72266
721.2272, 11.74291
721.7094, 11.83460
722.1915, 11.98593
722.6736, 12.09818
723.1557, 12.10538
723.6378, 12.08599
724.1199, 12.29731
724.6021, 12.79639
725.0842, 12.74381
725.5663, 11.72761
726.0484, 10.82105
726.5305, 10.73507
727.0126, 11.19844
727.4948, 11.71020
727.9769, 12.34223
728.4590, 12.74219
728.9411, 12.67366
729.4232, 12.44299
729.9053, 12.25821
730.3875, 12.13246
730.8696, 12.02334
731.3517, 11.91386
731.8338, 11.85279
732.3159, 11.94321
732.7980, 12.18455
733.2802, 12.32326
733.7623, 12.33975
734.2444, 12.30301
734.7265, 12.17041
735.2086, 12.05235
735.6907, 12.17824
736.1729, 12.58507
736.6550, 12.70888
737.1371, 12.14521
737.6192, 11.56505
738.1013, 11.30791
738.5834, 11.32621
739.0656, 11.62422
739.5477, 12.14368
740.0298, 12.54892
740.5119, 12.48957
740.9940, 12.07073
741.4761, 11.66526
741.9583, 11.22071
742.4404, 11.13239
742.9225, 11.67949
743.4046, 12.37393
743.8867, 12.77767
744.3688, 12.91864
744.8510, 12.92283
745.3331, 12.74242
745.8152, 12.49940
746.2973, 12.09454
746.7794, 11.73967
747.2615, 11.69281
747.7437, 11.92130
748.2258, 12.22127
748.7079, 12.48962
749.1900, 12.66110
749.6721, 12.53192
750.1542, 12.11009
750.6364, 11.93011
751.1185, 12.11443
751.6006, 12.35029
752.0827, 12.48283
752.5648, 12.51284
753.0469, 12.41340
753.5291, 12.05122
754.0112, 11.92018
754.4933, 12.28252
754.9754, 12.69821
755.4575, 12.88574
755.9396, 12.93337
756.4218, 13.03550
756.9039, 13.25467
757.3860, 13.49529
757.8681, 13.71605
758.3502, 13.87465
758.8323, 13.75311
759.3145, 13.33648
759.7966, 13.00705
760.2787, 12.90913
760.7608, 12.95062
761.2429, 13.03388
761.7250, 13.16582
762.2072, 13.25856
762.6893, 13.39737
763.1714, 13.39119
763.6535, 12.99681
764.1356, 12.58099
764.6177, 12.49570
765.0999, 12.72885
765.5820, 13.03060
766.0641, 13.27196
766.5462, 13.49293
767.0283, 13.83149
767.5104, 14.20370
767.9926, 14.21016
768.4747, 13.77625
768.9568, 13.36185
769.4389, 13.29791
769.9210, 13.48960
770.4031, 13.64123
770.8853, 13.86719
771.3674, 13.82395
771.8495, 13.16886
772.3316, 12.62539
772.8137, 12.57204
773.2958, 12.80094
773.7780, 12.98085
774.2601, 13.03234
774.7422, 13.11014
775.2243, 13.39001
775.7064, 13.69843
776.1885, 13.79196
776.6707, 13.71150
777.1528, 13.63254
777.6349, 13.61650
778.1170, 13.60331
778.5991, 13.50587
779.0812, 13.33394
779.5634, 13.32023
780.0455, 13.59846
780.5276, 13.73118
781.0097, 13.49268
781.4918, 13.18362
781.9739, 12.94263
782.4561, 12.81165
782.9382, 12.97413
783.4203, 13.81353
783.9024, 14.44141
784.3845, 14.28487
784.8666, 13.78500
785.3488, 13.30655
785.8309, 12.97488
786.3130, 13.03258
786.7951, 13.64255
787.2772, 14.34890
787.7593, 14.24186
788.2415, 13.34939
788.7236, 12.90986
789.2057, 13.10339
789.6878, 13.29004
790.1699, 13.12321
790.6520, 12.80943
791.1342, 12.71659
791.6162, 12.88756
792.0983, 13.00046
792.5804, 12.94967
793.0626, 12.94114
793.5447, 13.12133
794.0268, 13.34872
794.5089, 13.40288
794.9910, 13.29997
795.4731, 13.33016
795.9553, 13.79224
796.4374, 14.34033
796.9195, 14.35756
797.4016, 13.97444
797.8837, 13.81418
798.3658, 13.99885
798.8480, 14.14430
799.3301, 13.93677
799.8122, 13.52411
800.2943, 13.42295
800.7764, 13.89025
801.2585, 14.11627
801.7407, 13.80986
802.2228, 13.56791
802.7049, 13.68643
803.1870, 13.97481
803.6691, 14.18923
804.1512, 14.29093
804.6334, 14.25070
805.1155, 13.88345
805.5976, 13.51344
806.0797, 13.51442
806.5618, 13.73504
807.0439, 13.81900
807.5261, 13.67975
808.0082, 13.51292
808.4903, 13.51180
808.9724, 13.61855
809.4545, 13.56116
809.9366, 13.27804
810.4188, 13.29428
810.9009, 13.88513
811.3830, 14.42659
811.8651, 14.36078
812.3472, 13.88294
812.8293, 13.71336
813.3115, 14.01866
813.7936, 14.27202
814.2757, 14.39380
814.7578, 14.44881
815.2399, 14.47988
815.7220, 14.46935
816.2042, 14.35546
816.6863, 14.12976
817.1684, 13.92008
817.6505, 13.88619
818.1326, 13.91931
818.6147, 13.75912
819.0969, 13.45922
819.5790, 13.34537
820.0611, 13.51655
820.5432, 13.73774
821.0253, 13.75691
821.5074, 13.63821
821.9896, 13.85428
822.4717, 14.75042
822.9538, 15.18892
823.4359, 14.66937
823.9180, 14.06922
824.4001, 13.86825
824.8823, 13.92324
825.3644, 13.94168
825.8465, 13.84727
826.3286, 13.85170
826.8107, 14.21355
827.2928, 14.54560
827.7750, 14.38570
828.2571, 13.99227
828.7392, 13.95430
829.2213, 14.40365
829.7034, 14.87000
830.1855, 14.87593
830.6677, 14.58527
831.1498, 14.46526
831.6319, 14.51143
832.1140, 14.54473
832.5961, 14.51744
833.0782, 14.50792
833.5604, 14.59229
834.0425, 14.74083
834.5246, 14.82907
835.0067, 14.85622
835.4888, 14.82006
835.9709, 14.64628
836.4531, 14.49513
836.9352, 14.44716
837.4173, 14.46041
837.8994, 14.47118
838.3815, 14.46739
838.8636, 14.47082
839.3458, 14.51812
839.8279, 14.55453
840.3100, 14.51133
840.7921, 14.42531
841.2742, 14.34306
841.7563, 14.28989
842.2385, 14.33707
842.7206, 14.55829
843.2027, 14.87813
843.6848, 15.12431
844.1669, 15.29639
844.6490, 15.36990
845.1312, 15.34420
845.6133, 15.18601
846.0954, 14.77767
846.5775, 14.31280
847.0596, 14.25836
847.5417, 14.85942
848.0239, 15.10315
848.5060, 14.68557
848.9881, 14.29434
849.4702, 14.17296
849.9523, 14.17404
850.4344, 14.17265
850.9166, 14.13629
851.3987, 14.00743
851.8808, 13.58875
852.3629, 13.30758
852.8450, 13.73645
853.3271, 14.43611
853.8093, 14.71109
854.2914, 14.51404
854.7735, 14.06687
855.2556, 13.47728
855.7377, 12.94204
856.2198, 12.80732
856.7020, 13.06028
857.1841, 13.47473
857.6662, 14.13029
858.1483, 14.45176
858.6304, 14.08387
859.1125, 13.54626
859.5947, 13.47723
860.0768, 13.88035
860.5589, 14.13906
861.0410, 14.21798
861.5231, 14.20730
862.0052, 14.01175
862.4874, 13.82675
862.9695, 13.77644
863.4516, 13.84072
863.9337, 13.98495
864.4158, 14.23091
864.8979, 14.37322
865.3801, 14.16697
865.8622, 13.88677
866.3443, 13.92421
866.8264, 14.12085
867.3085, 13.95387
867.7906, 13.33343
868.2728, 12.88293
868.7549, 13.29066
869.2370, 14.16861
869.7191, 14.35336
870.2012, 13.84951
870.6833, 13.32618
871.1655, 12.85238
871.6476, 12.58010
872.1297, 12.66343
872.6118, 12.96512
873.0939, 13.14508
873.5760, 13.17360
874.0581, 13.16804
874.5402, 12.98375
875.0223, 12.94232
875.5045, 13.41397
875.9866, 13.87738
876.4687, 13.66036
876.9508, 12.83351
877.4329, 12.29975
877.9150, 12.50283
878.3972, 12.87775
878.8793, 13.36860
879.3614, 13.70638
879.8435, 13.41631
880.3256, 12.69329
880.8077, 12.18573
881.2899, 12.18626
881.7720, 12.37497
882.2541, 12.36634
882.7362, 12.25037
883.2183, 12.33071
883.7004, 12.58636
884.1826, 12.73072
884.6647, 12.66393
885.1468, 12.61288
885.6289, 12.85235
886.1110, 13.25960
886.5931, 13.08076
887.0753, 11.92387
887.5574, 11.40603
888.0395, 12.15909
888.5216, 12.84209
889.0037, 12.57904
889.4858, 11.84286
889.9680, 11.40543
890.4501, 11.31372
890.9322, 11.31374
891.4143, 11.48853
891.8964, 11.60513
892.3785, 11.54816
892.8607, 11.39699
893.3428, 11.16914
893.8249, 10.92449
894.3070, 10.84946
894.7891, 11.09341
895.2712, 11.33947
895.7534, 11.24154
896.2355, 10.99580
896.7176, 10.88286
897.1997, 10.91667
897.6818, 11.08701
898.1639, 11.37908
898.6461, 11.60591
899.1282, 11.52921
899.6103, 11.22157
900.0924, 10.98917
900.5745, 10.83497
901.0566, 10.68305
901.5388, 10.49179
902.0209, 10.43007
902.5030, 10.69549
902.9851, 11.10582
903.4672, 11.12621
903.9493, 10.57296
904.4315, 10.14515
904.9136, 9.811749
905.3957, 9.648841
905.8778, 9.889119
906.3599, 10.15876
906.8420, 9.965791
907.3242, 9.378985
907.8063, 9.112565
908.2884, 9.574851
908.7705, 10.05664
909.2526, 10.36024
909.7347, 10.50880
910.2169, 10.41094
910.6990, 10.20055
911.1811, 10.18820
911.6632, 10.47317
912.1453, 10.71731
912.6274, 10.48435
913.1096, 10.14131
913.5917, 10.42820
914.0738, 11.05691
914.5559, 11.07885
915.0380, 10.36262
915.5201, 9.632090
916.0023, 9.384737
916.4844, 9.538949
916.9665, 10.09674
917.4486, 11.04968
917.9307, 11.27721
918.4128, 10.60588
918.8950, 9.915548
919.3771, 9.516611
919.8592, 9.353800
920.3413, 9.407987
920.8234, 9.670556
921.3055, 9.738536
921.7877, 9.467758
922.2698, 9.257215
922.7519, 9.105850
923.2340, 9.070960
923.7161, 9.284307
924.1982, 9.601121
924.6804, 9.746224
925.1625, 9.660395
925.6446, 9.620496
926.1267, 9.774163
926.6088, 9.896171
927.0909, 9.864421
927.5731, 9.747484
928.0552, 9.552610
928.5373, 9.345075
929.0194, 9.340379
929.5015, 9.717374
929.9836, 10.02407
930.4658, 9.818925
930.9479, 9.341884
931.4300, 8.763981
931.9121, 8.236301
932.3942, 8.193414
932.8763, 8.726859
933.3585, 9.385354
933.8406, 9.820353
934.3227, 9.974442
934.8048, 9.516415
935.2869, 8.550388
935.7690, 8.055442
936.2512, 8.178930
936.7333, 8.522833
937.2154, 8.929837
937.6975, 9.213491
938.1796, 8.969323
938.6617, 8.146136
939.1439, 8.048238
939.6260, 9.045679
940.1081, 9.748715
940.5902, 9.746378
941.0723, 9.514638
941.5544, 9.341355
942.0366, 9.241790
942.5187, 9.292435
943.0008, 9.633471
943.4829, 9.780170
943.9650, 9.578028
944.4471, 9.342280
944.9293, 9.117033
945.4114, 8.967202
945.8935, 9.012509
946.3756, 9.214868
946.8577, 9.327343
947.3398, 9.230071
947.8220, 9.109266
948.3041, 9.053622
948.7862, 9.013887
949.2683, 8.931731
949.7504, 8.835237
950.2325, 8.775558
950.7147, 8.769747
951.1968, 8.828525
951.6789, 9.059055
952.1610, 9.249539
952.6431, 8.949315
953.1252, 8.466819
953.6074, 8.619003
954.0895, 9.344722
954.5716, 9.737416
955.0537, 9.335037
955.5358, 8.731215
956.0179, 8.776336
956.5000, 9.317246
956.9821, 9.717176
957.4642, 9.972284
957.9464, 9.881192
958.4285, 9.363280
958.9106, 8.897829
959.3927, 8.865611
959.8748, 9.108096
960.3569, 9.176889
960.8391, 8.989167
961.3212, 9.157756
961.8033, 9.932927
962.2854, 10.32822
962.7675, 9.832736
963.2496, 9.075191
963.7318, 8.632358
964.2139, 8.490186
964.6960, 8.547797
965.1781, 9.077124
965.6602, 9.358075
966.1423, 9.192653
966.6245, 9.005855
967.1066, 9.024630
967.5887, 9.084085
968.0708, 8.913161
968.5529, 8.517521
969.0350, 8.322282
969.5172, 8.617826
969.9993, 8.853201
970.4814, 8.775392
970.9635, 8.643470
971.4456, 8.658175
971.9277, 8.772432
972.4099, 8.849103
972.8920, 8.857283
973.3741, 8.944329
973.8562, 9.352590
974.3383, 9.703154
974.8204, 9.606462
975.3026, 9.316089
975.7847, 9.161126
976.2668, 9.160447
976.7489, 9.214841
977.2310, 9.282541
977.7131, 9.308873
978.1953, 9.182879
978.6774, 9.012649
979.1595, 8.965244
979.6416, 9.034840
980.1237, 9.285555
980.6058, 9.675251
981.0880, 9.835662
981.5701, 9.517055
982.0522, 8.953909
982.5343, 8.469091
983.0164, 8.084669
983.4985, 7.973563
983.9807, 8.128008
984.4628, 8.233786
984.9449, 8.193148
985.4270, 8.157030
985.9091, 8.263357
986.3912, 8.456374
986.8734, 8.547357
987.3555, 8.508879
987.8376, 8.639762
988.3197, 9.027158
988.8018, 9.261045
989.2839, 9.134154
989.7661, 8.911793
990.2482, 8.885829
990.7303, 9.025410
991.2124, 9.109104
991.6945, 9.159742
992.1766, 9.094456
992.6588, 8.830097
993.1409, 8.565866
993.6230, 8.299839
994.1051, 8.143198
994.5872, 8.320006
995.0693, 8.823226
995.5515, 9.135446
996.0336, 9.187430
996.5157, 9.141720
996.9978, 8.899510
997.4799, 8.689100
997.9620, 8.619663
998.4442, 8.665042
998.9263, 8.832090
999.4084, 9.117244
999.8905, 9.266467
1000.373, 9.118941
1000.855, 8.956247
1001.337, 8.890300
1001.819, 8.836140
1002.301, 8.679214
1002.783, 8.497358
1003.265, 8.460310
1003.747, 8.606158
1004.230, 8.768563
1004.712, 8.888173
1005.194, 8.971134
1005.676, 9.000416
1006.158, 9.011194
1006.640, 9.161555
1007.122, 9.314508
1007.604, 8.995910
1008.086, 8.044333
1008.569, 7.293716
1009.051, 7.536353
1009.533, 8.171991
1010.015, 8.715373
1010.497, 9.105327
1010.979, 9.135693
1011.461, 8.906157
1011.943, 8.878429
1012.426, 9.269024
1012.908, 9.674732
1013.390, 9.632029
1013.872, 9.331916
1014.354, 9.066607
1014.836, 8.853255
1015.318, 8.752143
1015.800, 8.756975
1016.282, 8.808480
1016.765, 8.882348
1017.247, 8.824823
1017.729, 8.131132
1018.211, 7.164095
1018.693, 7.478837
1019.175, 8.845529
1019.657, 9.713638
1020.139, 9.758213
1020.622, 9.440531
1021.104, 9.032427
1021.586, 8.630181
1022.068, 8.399190
1022.550, 8.333200
1023.032, 8.416606
1023.514, 8.654682
1023.996, 8.653024
1024.478, 8.289975
1024.961, 7.950098
1025.443, 7.912581
1025.925, 8.074351
1026.407, 8.214238
1026.889, 8.329899
1027.371, 8.482593
1027.853, 8.698404
1028.335, 8.809023
1028.818, 8.780056
1029.300, 8.558331
1029.782, 7.976962
1030.264, 7.358033
1030.746, 7.663498
1031.228, 9.157197
1031.710, 9.948664
1032.192, 9.872466
1032.674, 9.550324
1033.156, 8.980281
1033.639, 8.538740
1034.121, 8.606820
1034.603, 8.978440
1035.085, 9.032399
1035.567, 8.633973
1036.049, 8.432709
1036.531, 8.529075
1037.013, 8.627397
1037.496, 8.627457
1037.978, 8.638228
1038.460, 8.807983
1038.942, 9.042119
1039.424, 9.016341
1039.906, 8.563432
1040.388, 8.361904
1040.870, 8.611867
1041.353, 8.825049
1041.835, 8.937870
1042.317, 8.921561
1042.799, 8.576461
1043.281, 8.097872
1043.763, 8.114218
1044.245, 8.886130
1044.727, 9.381454
1045.209, 9.467587
1045.692, 9.394174
1046.174, 9.114882
1046.656, 8.800092
1047.138, 8.583234
1047.620, 8.437880
1048.102, 8.271062
1048.584, 8.053069
1049.066, 7.900083
1049.548, 7.720934
1050.031, 7.748639
1050.513, 8.356959
1050.995, 8.933362
1051.477, 8.862224
1051.959, 8.384991
1052.441, 8.188265
1052.923, 8.438478
1053.405, 8.596989
1053.888, 8.457257
1054.370, 8.328246
1054.852, 8.331049
1055.334, 8.386297
1055.816, 8.452536
1056.298, 8.509088
1056.780, 8.514902
1057.262, 8.454121
1057.745, 8.411905
1058.227, 8.342556
1058.709, 8.385650
1059.191, 8.793811
1059.673, 9.165366
1060.155, 9.080273
1060.637, 8.711197
1061.119, 8.468253
1061.601, 8.436411
1062.083, 8.443431
1062.566, 8.523953
1063.048, 8.510401
1063.530, 8.190587
1064.012, 7.869473
1064.494, 7.852900
1064.976, 8.025235
1065.458, 8.136900
1065.940, 8.137603
1066.423, 8.069448
1066.905, 7.765648
1067.387, 7.634437
1067.869, 8.105555
1068.351, 8.603544
1068.833, 8.574512
1069.315, 8.231229
1069.797, 7.984046
1070.280, 7.918310
1070.762, 7.993497
1071.244, 8.442723
1071.726, 8.699048
1072.208, 8.326581
1072.690, 7.826567
1073.172, 7.450141
1073.654, 7.308419
1074.136, 7.691821
1074.619, 8.537776
1075.101, 9.003833
1075.583, 8.528709
1076.065, 7.983694
1076.547, 7.726640
1077.029, 7.621421
1077.511, 7.636722
1077.993, 7.692144
1078.475, 7.588346
1078.958, 7.379317
1079.440, 7.541138
1079.922, 8.555039
1080.404, 9.272648
1080.886, 8.882725
1081.368, 8.283976
1081.850, 7.988708
1082.332, 7.964958
1082.814, 8.308064
1083.297, 8.851089
1083.779, 8.901914
1084.261, 7.981668
1084.743, 7.379410
1085.225, 8.121392
1085.707, 8.884827
1086.189, 8.687744
1086.671, 8.127876
1087.154, 7.920204
1087.636, 8.034876
1088.118, 8.063280
1088.600, 7.864254
1089.082, 7.721484
1089.564, 7.798163
1090.046, 7.907255
1090.528, 7.934526
1091.010, 7.950934
1091.493, 8.107069
1091.975, 8.298456
1092.457, 8.206694
1092.939, 7.727540
1093.421, 7.412477
1093.903, 7.574818
1094.385, 7.802610
1094.867, 8.080311
1095.349, 8.189608
1095.832, 7.771469
1096.314, 7.123316
1096.796, 6.831026
1097.278, 6.985969
1097.760, 7.093791
1098.242, 6.946129
1098.724, 6.805858
1099.206, 6.746529
1099.689, 6.736281
1100.171, 6.716636
1100.653, 6.751909
1101.135, 6.961199
1101.617, 7.338243
1102.099, 7.713975
1102.581, 8.125058
1103.063, 8.398421
1103.546, 8.545112
1104.028, 8.486188
1104.510, 8.062543
1104.992, 7.494983
1105.474, 6.831168
1105.956, 6.220215
1106.438, 6.316519
1106.920, 7.722631
1107.402, 8.552670
1107.885, 8.076882
1108.367, 7.545609
1108.849, 7.425812
1109.331, 7.423429
1109.813, 7.222524
1110.295, 6.930667
1110.777, 6.907891
1111.259, 7.284648
1111.741, 7.476662
1112.224, 7.302813
1112.706, 7.137839
1113.188, 7.008936
1113.670, 6.962768
1114.152, 7.074197
1114.634, 7.269393
1115.116, 7.459313
1115.598, 7.662138
1116.081, 7.627047
1116.563, 7.109854
1117.045, 6.774978
1117.527, 6.718849
1118.009, 6.806394
1118.491, 7.056019
1118.973, 7.345050
1119.455, 7.565547
1119.938, 7.698874
1120.420, 7.540362
1120.902, 6.813687
1121.384, 6.505571
1121.866, 6.830023
1122.348, 7.169670
1122.830, 7.326924
1123.312, 7.411050
1123.794, 7.530446
1124.276, 7.648490
1124.759, 7.652309
1125.241, 7.540442
1125.723, 7.292162
1126.205, 6.835164
1126.687, 6.548323
1127.169, 6.580396
1127.651, 6.554086
1128.133, 6.147821
1128.616, 5.707443
1129.098, 5.925562
1129.580, 6.743149
1130.062, 7.147391
1130.544, 7.114089
1131.026, 6.817352
1131.508, 6.218838
1131.990, 6.096058
1132.473, 6.880471
1132.955, 7.827805
1133.437, 8.055234
1133.919, 7.752864
1134.401, 7.498535
1134.883, 7.301978
1135.365, 7.389415
1135.847, 7.744357
1136.329, 7.814408
1136.812, 7.432256
1137.294, 6.894732
1137.776, 6.384175
1138.258, 6.115439
1138.740, 6.720525
1139.222, 7.831009
1139.704, 8.128130
1140.186, 7.786432
1140.668, 7.657754
1141.151, 7.869133
1141.633, 8.096098
1142.115, 8.175033
1142.597, 8.073957
1143.079, 7.633039
1143.561, 7.102296
1144.043, 6.848321
1144.525, 6.842490
1145.008, 7.187850
1145.490, 7.710485
1145.972, 7.863795
1146.454, 7.523382
1146.936, 7.170788
1147.418, 7.126805
1147.900, 7.222586
1148.382, 7.407881
1148.865, 7.549697
1149.347, 7.415634
1149.829, 7.161817
1150.311, 7.050656
1150.793, 7.114965
1151.275, 7.294595
1151.757, 7.608047
1152.239, 7.804463
1152.721, 7.673947
1153.203, 7.460510
1153.686, 7.315197
1154.168, 7.173435
1154.650, 6.888797
1155.132, 6.571173
1155.614, 6.482761
1156.096, 6.673173
1156.578, 6.898036
1157.060, 7.210134
1157.543, 7.368976
1158.025, 7.104367
1158.507, 6.897096
1158.989, 7.211406
1159.471, 7.617999
1159.953, 7.420141
1160.435, 6.735490
1160.917, 6.576249
1161.400, 7.413901
1161.882, 7.880438
1162.364, 7.770148
1162.846, 7.577544
1163.328, 7.296298
1163.810, 7.152164
1164.292, 7.411797
1164.774, 7.837857
1165.256, 7.913769
1165.739, 7.614561
1166.221, 7.391047
1166.703, 7.234323
1167.185, 7.195819
1167.667, 7.297814
1168.149, 7.472478
1168.631, 7.711616
1169.113, 7.934059
1169.595, 8.050358
1170.078, 8.077763
1170.560, 8.053923
1171.042, 7.982238
1171.524, 8.014950
1172.006, 8.152529
1172.488, 8.199831
1172.970, 8.108038
1173.452, 7.957309
1173.934, 7.793286
1174.417, 7.664370
1174.899, 7.696665
1175.381, 7.787030
1175.863, 7.601892
1176.345, 7.251253
1176.827, 7.003507
1177.309, 6.919473
1177.791, 7.160987
1178.274, 7.730868
1178.756, 8.137389
1179.238, 7.976449
1179.720, 7.583719
1180.202, 7.141319
1180.684, 6.826280
1181.166, 6.915164
1181.648, 7.264335
1182.130, 7.747483
1182.613, 8.223818
1183.095, 8.320149
1183.577, 7.851831
1184.059, 7.458689
1184.541, 7.487450
1185.023, 7.663201
1185.505, 7.998117
1185.987, 8.261567
1186.469, 8.150191
1186.952, 7.890608
1187.434, 7.944848
1187.916, 8.322056
1188.398, 8.447261
1188.880, 8.049968
1189.362, 7.707595
1189.844, 7.561349
1190.326, 7.363080
1190.809, 6.867612
1191.291, 6.473220
1191.773, 6.535451
1192.255, 6.917705
1192.737, 7.325305
1193.219, 7.773259
1193.701, 8.077742
1194.183, 8.263258
1194.666, 8.164369
1195.148, 7.675589
1195.630, 7.263844
1196.112, 7.156034
1196.594, 7.146257
1197.076, 7.000125
1197.558, 6.802502
1198.040, 6.800410
1198.522, 6.980783
1199.005, 7.350555
1199.487, 7.837014
1199.969, 7.807613
1200.451, 7.180100
1200.933, 6.460803
1201.415, 5.921911
1201.897, 5.795600
1202.379, 6.601707
1202.861, 7.703795
1203.344, 8.032522
1203.826, 7.963798
1204.308, 8.223430
1204.790, 8.646279
1205.272, 8.567326
1205.754, 7.954752
1206.236, 7.553423
1206.718, 7.782088
1207.201, 8.078350
1207.683, 8.273382
1208.165, 8.212877
1208.647, 7.477753
1209.129, 6.706454
1209.611, 6.596111
1210.093, 6.945307
1210.575, 7.204370
1211.057, 7.294184
1211.540, 7.519325
1212.022, 8.279107
1212.504, 8.620833
1212.986, 8.129835
1213.468, 7.611349
1213.950, 7.329613
1214.432, 7.147558
1214.914, 6.973137
1215.396, 6.780600
1215.879, 6.438138
1216.361, 5.889449
1216.843, 6.026274
1217.325, 6.989233
1217.807, 7.683577
1218.289, 7.934186
1218.771, 7.939029
1219.253, 7.763425
1219.736, 7.654604
1220.218, 7.912779
1220.700, 8.286436
1221.182, 8.120814
1221.664, 7.633012
1222.146, 7.629187
1222.628, 7.950078
1223.110, 7.881670
1223.593, 7.401789
1224.075, 7.098848
1224.557, 7.229655
1225.039, 7.417218
1225.521, 7.332872
1226.003, 7.204074
1226.485, 7.191130
1226.967, 7.277422
1227.449, 7.522070
1227.932, 7.809660
1228.414, 8.021444
1228.896, 8.110579
1229.378, 7.952833
1229.860, 7.398279
1230.342, 7.076456
1230.824, 7.382707
1231.306, 7.585147
1231.788, 7.399573
1232.271, 7.132311
1232.753, 6.936150
1233.235, 6.777170
1233.717, 6.555078
1234.199, 6.328189
1234.681, 6.534328
1235.163, 7.327425
1235.645, 7.805314
1236.128, 7.919969
1236.610, 7.913318
1237.092, 7.833830
1237.574, 7.724102
1238.056, 7.603935
1238.538, 7.519514
1239.020, 7.561810
1239.502, 7.642618
1239.984, 7.497243
1240.467, 7.216646
1240.949, 7.035562
1241.431, 6.968545
1241.913, 7.012571
1242.395, 7.145429
1242.877, 7.321692
1243.359, 7.543782
1243.841, 7.545648
1244.323, 6.783681
1244.806, 6.146834
1245.288, 6.381943
1245.770, 6.967128
1246.252, 7.617957
1246.734, 8.143301
1247.216, 8.228199
1247.698, 7.917974
1248.180, 7.731387
1248.662, 7.769843
1249.145, 7.864465
1249.627, 8.184761
1250.109, 8.238245
1250.591, 7.697957
1251.073, 7.303823
1251.555, 7.583806
1252.037, 8.036098
1252.519, 7.941286
1253.002, 7.453350
1253.484, 7.303314
1253.966, 7.482642
1254.448, 7.669341
1254.930, 7.842463
1255.412, 7.945726
1255.894, 7.957675
1256.376, 7.737432
1256.859, 7.210400
1257.341, 6.837673
1257.823, 7.203605
1258.305, 7.831333
1258.787, 8.166510
1259.269, 8.310241
1259.751, 8.398860
1260.233, 8.401356
1260.715, 8.193233
1261.198, 7.821150
1261.680, 7.483605
1262.162, 7.218376
1262.644, 7.121441
1263.126, 7.409903
1263.608, 7.597867
1264.090, 7.430348
1264.572, 7.262075
1265.054, 7.381594
1265.537, 7.480916
1266.019, 7.083071
1266.501, 6.481712
1266.983, 6.781596
1267.465, 8.128268
1267.947, 8.703747
1268.429, 8.438679
1268.911, 8.180745
1269.394, 8.057696
1269.876, 8.107493
1270.358, 8.346087
1270.840, 8.581146
1271.322, 8.648469
1271.804, 8.589379
1272.286, 8.394500
1272.768, 8.168137
1273.250, 8.040508
1273.733, 8.041947
1274.215, 8.323557
1274.697, 8.750495
1275.179, 9.026855
1275.661, 9.055834
1276.143, 8.667553
1276.625, 7.310094
1277.107, 6.486807
1277.589, 7.248028
1278.072, 7.915242
1278.554, 7.588356
1279.036, 7.029972
1279.518, 6.674033
1280.000, 6.621750
1280.482, 7.154021
1280.964, 8.189913
1281.446, 8.697053
1281.929, 8.602323
1282.411, 8.549555
1282.893, 8.573173
1283.375, 8.611568
1283.857, 8.647147
1284.339, 8.575088
1284.821, 8.334140
1285.303, 8.014490
1285.786, 7.702525
1286.268, 7.395956
##END=



