##NAMES=Sofiite
##RRUFFID=R070045
##IDEAL CHEMISTRY=Zn^2+^_2_(Se^4+^O_3_)Cl_2_
##LOCALITY=Great Tolbachik Eruption (1975-6), Tolbachik Volcano, Kamchatka Peninsula, Russia
##OWNER=RRUFF
##SOURCE=Michael Scott
##DESCRIPTION=White or colorless thin psuedohexagonal plates, co-type material
##STATUS=The identification of this mineral is not yet confirmed.
##URL=rruff.info/R070045
155.4839, 10932.47
155.9660, 10990.93
156.4481, 11018.10
156.9303, 11030.98
157.4124, 11049.12
157.8945, 11074.38
158.3766, 11108.06
158.8587, 11153.21
159.3409, 11213.23
159.8230, 11271.49
160.3051, 11325.00
160.7872, 11372.69
161.2693, 11411.99
161.7514, 11434.05
162.2336, 11453.14
162.7157, 11479.21
163.1978, 11519.50
163.6799, 11554.62
164.1620, 11568.67
164.6441, 11568.99
165.1263, 11575.73
165.6084, 11599.12
166.0905, 11632.99
166.5726, 11673.22
167.0547, 11725.59
167.5368, 11775.23
168.0190, 11808.67
168.5011, 11828.76
168.9832, 11850.22
169.4653, 11888.34
169.9474, 11931.38
170.4295, 11964.40
170.9117, 11971.96
171.3938, 11975.68
171.8759, 12000.59
172.3580, 12045.37
172.8401, 12084.85
173.3222, 12093.03
173.8044, 12082.41
174.2865, 12075.55
174.7686, 12084.00
175.2507, 12099.96
175.7328, 12108.84
176.2149, 12108.88
176.6971, 12120.60
177.1792, 12179.09
177.6613, 12267.71
178.1434, 12341.14
178.6255, 12356.50
179.1076, 12346.20
179.5898, 12375.25
180.0719, 12453.13
180.5540, 12544.02
181.0361, 12606.09
181.5182, 12642.55
182.0003, 12672.77
182.4825, 12705.38
182.9646, 12740.09
183.4467, 12775.91
183.9288, 12814.10
184.4109, 12851.00
184.8930, 12879.74
185.3752, 12900.69
185.8573, 12922.42
186.3394, 12953.64
186.8215, 12991.72
187.3036, 13022.88
187.7857, 13044.72
188.2679, 13059.14
188.7500, 13070.44
189.2321, 13078.91
189.7142, 13080.16
190.1963, 13062.71
190.6784, 13029.46
191.1606, 13014.76
191.6427, 13033.56
192.1248, 13071.25
192.6069, 13081.35
193.0890, 13061.53
193.5712, 13028.46
194.0533, 12989.63
194.5354, 12945.00
195.0175, 12918.59
195.4996, 12921.51
195.9817, 12947.84
196.4639, 12965.83
196.9460, 12974.00
197.4281, 12978.66
197.9102, 12983.63
198.3923, 12988.05
198.8744, 13003.42
199.3566, 13042.09
199.8387, 13100.79
200.3208, 13122.93
200.8029, 13098.71
201.2850, 13058.73
201.7671, 13043.62
202.2493, 13057.49
202.7314, 13074.49
203.2135, 13088.21
203.6956, 13098.90
204.1777, 13099.90
204.6598, 13089.32
205.1420, 13071.75
205.6241, 13053.51
206.1062, 13034.32
206.5883, 13016.12
207.0704, 12998.91
207.5525, 12982.01
208.0347, 12973.73
208.5168, 12983.48
208.9989, 12993.39
209.4810, 12961.68
209.9631, 12872.21
210.4452, 12783.83
210.9274, 12723.81
211.4095, 12700.20
211.8916, 12674.08
212.3737, 12647.21
212.8558, 12616.43
213.3379, 12570.94
213.8201, 12501.65
214.3022, 12435.87
214.7843, 12385.61
215.2664, 12349.40
215.7485, 12334.25
216.2306, 12349.68
216.7128, 12384.49
217.1949, 12401.32
217.6770, 12397.43
218.1591, 12380.02
218.6412, 12348.22
219.1233, 12289.53
219.6055, 12251.74
220.0876, 12242.94
220.5697, 12258.04
221.0518, 12275.03
221.5339, 12297.76
222.0160, 12316.52
222.4982, 12321.28
222.9803, 12298.19
223.4624, 12296.27
223.9445, 12334.00
224.4266, 12400.96
224.9087, 12424.18
225.3909, 12374.72
225.8730, 12318.19
226.3551, 12305.33
226.8372, 12360.14
227.3193, 12406.53
227.8014, 12431.80
228.2836, 12438.47
228.7657, 12455.59
229.2478, 12493.03
229.7299, 12529.99
230.2120, 12548.52
230.6942, 12535.82
231.1763, 12529.35
231.6584, 12531.00
232.1405, 12541.15
232.6226, 12576.29
233.1047, 12656.89
233.5869, 12740.95
234.0690, 12791.44
234.5511, 12790.41
235.0332, 12787.22
235.5153, 12786.63
235.9974, 12788.48
236.4796, 12806.11
236.9617, 12856.68
237.4438, 12906.59
237.9259, 12920.65
238.4080, 12874.23
238.8901, 12837.99
239.3723, 12828.37
239.8544, 12847.22
240.3365, 12854.94
240.8186, 12846.96
241.3007, 12832.02
241.7828, 12819.04
242.2650, 12810.72
242.7471, 12799.48
243.2292, 12783.17
243.7113, 12761.39
244.1934, 12739.98
244.6755, 12721.07
245.1577, 12700.64
245.6398, 12672.62
246.1219, 12626.58
246.6040, 12591.88
247.0861, 12577.70
247.5682, 12586.40
248.0504, 12589.10
248.5325, 12582.54
249.0146, 12573.02
249.4967, 12568.37
249.9788, 12573.30
250.4609, 12574.01
250.9431, 12564.30
251.4252, 12542.08
251.9073, 12533.03
252.3894, 12542.83
252.8715, 12560.61
253.3536, 12574.37
253.8358, 12586.02
254.3179, 12589.68
254.8000, 12580.39
255.2821, 12555.96
255.7642, 12542.99
256.2463, 12543.76
256.7285, 12553.78
257.2106, 12568.61
257.6927, 12590.63
258.1748, 12612.88
258.6569, 12636.02
259.1390, 12661.58
259.6212, 12670.62
260.1033, 12653.41
260.5854, 12630.50
261.0675, 12626.64
261.5496, 12644.79
262.0317, 12675.62
262.5139, 12724.65
262.9960, 12794.04
263.4781, 12831.57
263.9602, 12824.62
264.4423, 12801.15
264.9244, 12794.29
265.4066, 12807.19
265.8887, 12828.03
266.3708, 12855.04
266.8529, 12888.48
267.3350, 12922.92
267.8171, 12961.35
268.2993, 12996.23
268.7814, 13014.63
269.2635, 13010.43
269.7456, 13011.54
270.2277, 13024.60
270.7098, 13049.88
271.1920, 13089.38
271.6741, 13150.44
272.1562, 13212.24
272.6383, 13247.21
273.1204, 13248.29
273.6025, 13254.93
274.0847, 13282.40
274.5668, 13329.40
275.0489, 13353.49
275.5310, 13346.28
276.0131, 13336.55
276.4952, 13360.95
276.9774, 13424.96
277.4595, 13485.67
277.9416, 13533.32
278.4237, 13568.07
278.9058, 13585.53
279.3879, 13580.83
279.8701, 13574.90
280.3522, 13593.81
280.8343, 13639.06
281.3164, 13680.31
281.7986, 13706.51
282.2807, 13721.77
282.7628, 13747.97
283.2449, 13785.82
283.7270, 13830.25
284.2091, 13877.77
284.6913, 13928.27
285.1734, 13978.37
285.6555, 14027.84
286.1376, 14076.10
286.6197, 14120.84
287.1018, 14161.45
287.5840, 14200.34
288.0661, 14239.24
288.5482, 14278.14
289.0303, 14317.90
289.5124, 14361.33
289.9945, 14403.86
290.4767, 14429.74
290.9588, 14438.21
291.4409, 14445.59
291.9230, 14466.08
292.4051, 14497.81
292.8872, 14533.03
293.3694, 14571.70
293.8515, 14611.10
294.3336, 14648.00
294.8157, 14682.59
295.2978, 14711.86
295.7799, 14734.03
296.2621, 14749.68
296.7442, 14759.67
297.2263, 14762.79
297.7084, 14762.34
298.1905, 14766.33
298.6726, 14773.38
299.1548, 14772.65
299.6369, 14748.33
300.1190, 14711.51
300.6011, 14685.85
301.0832, 14681.17
301.5653, 14680.04
302.0475, 14657.96
302.5296, 14619.22
303.0117, 14584.11
303.4938, 14572.34
303.9759, 14570.09
304.4580, 14559.56
304.9402, 14538.53
305.4223, 14505.98
305.9044, 14450.15
306.3865, 14378.87
306.8686, 14320.07
307.3507, 14299.25
307.8329, 14292.78
308.3150, 14275.00
308.7971, 14237.98
309.2792, 14200.76
309.7613, 14185.70
310.2434, 14181.09
310.7256, 14161.24
311.2077, 14096.46
311.6898, 14022.26
312.1719, 13964.86
312.6540, 13928.20
313.1361, 13905.79
313.6183, 13908.21
314.1004, 13920.81
314.5825, 13918.85
315.0646, 13874.94
315.5467, 13827.07
316.0288, 13794.15
316.5110, 13777.86
316.9931, 13775.41
317.4752, 13808.39
317.9573, 13848.39
318.4394, 13859.25
318.9215, 13791.25
319.4037, 13726.67
319.8858, 13704.07
320.3679, 13730.43
320.8500, 13742.63
321.3321, 13698.38
321.8142, 13644.25
322.2964, 13625.17
322.7785, 13702.68
323.2606, 13762.46
323.7427, 13764.62
324.2248, 13706.90
324.7069, 13672.40
325.1891, 13691.05
325.6712, 13724.33
326.1533, 13743.93
326.6354, 13728.81
327.1175, 13721.50
327.5996, 13731.30
328.0818, 13756.15
328.5639, 13772.99
329.0460, 13773.87
329.5281, 13773.11
330.0102, 13779.07
330.4923, 13794.14
330.9745, 13813.03
331.4566, 13844.20
331.9387, 13880.41
332.4208, 13885.04
332.9029, 13831.09
333.3850, 13781.84
333.8672, 13774.20
334.3493, 13834.14
334.8314, 13868.74
335.3135, 13865.03
335.7956, 13838.97
336.2777, 13831.33
336.7599, 13850.22
337.2420, 13868.29
337.7241, 13872.06
338.2062, 13858.29
338.6883, 13848.21
339.1704, 13842.26
339.6526, 13839.62
340.1347, 13839.30
340.6168, 13841.46
341.0989, 13844.79
341.5810, 13846.92
342.0631, 13848.36
342.5453, 13863.64
343.0274, 13898.74
343.5095, 13929.56
343.9916, 13920.50
344.4737, 13873.15
344.9558, 13829.70
345.4380, 13804.49
345.9201, 13793.79
346.4022, 13782.87
346.8843, 13770.99
347.3664, 13767.77
347.8485, 13795.02
348.3307, 13841.73
348.8128, 13864.72
349.2949, 13840.73
349.7770, 13797.09
350.2591, 13771.76
350.7412, 13765.19
351.2234, 13782.07
351.7055, 13853.79
352.1876, 13946.55
352.6697, 13998.47
353.1519, 13985.98
353.6340, 13947.99
354.1161, 13912.72
354.5982, 13882.57
355.0803, 13866.77
355.5624, 13876.47
356.0446, 13899.94
356.5267, 13927.76
357.0088, 13961.32
357.4909, 13989.88
357.9730, 14001.90
358.4551, 14004.07
358.9373, 14009.43
359.4194, 14026.46
359.9015, 14046.32
360.3836, 14061.64
360.8657, 14069.70
361.3478, 14085.87
361.8300, 14126.46
362.3121, 14175.24
362.7942, 14212.88
363.2763, 14216.13
363.7584, 14223.89
364.2405, 14252.32
364.7227, 14302.96
365.2048, 14348.78
365.6869, 14379.42
366.1690, 14406.02
366.6511, 14437.11
367.1332, 14475.20
367.6154, 14515.49
368.0975, 14563.09
368.5796, 14615.67
369.0617, 14652.36
369.5438, 14653.49
370.0259, 14657.01
370.5081, 14684.21
370.9902, 14753.36
371.4723, 14812.86
371.9544, 14861.48
372.4365, 14900.17
372.9186, 14929.40
373.4008, 14944.58
373.8829, 14959.68
374.3650, 14984.10
374.8471, 15024.10
375.3292, 15039.34
375.8113, 15020.77
376.2935, 14990.23
376.7756, 14981.16
377.2577, 14995.78
377.7398, 15018.41
378.2219, 15050.68
378.7040, 15089.32
379.1862, 15099.39
379.6683, 15076.34
380.1504, 15047.43
380.6325, 15047.21
381.1146, 15071.22
381.5967, 15078.54
382.0789, 15048.93
382.5610, 15003.32
383.0431, 14988.23
383.5252, 15002.63
384.0073, 15021.28
384.4894, 15024.53
384.9716, 15017.98
385.4537, 15013.63
385.9358, 15014.21
386.4179, 15016.57
386.9000, 15014.11
387.3821, 15009.81
387.8643, 15012.84
388.3464, 15040.50
388.8285, 15071.70
389.3106, 15081.36
389.7927, 15062.66
390.2748, 15046.46
390.7570, 15045.78
391.2391, 15061.77
391.7212, 15096.26
392.2033, 15181.98
392.6854, 15259.29
393.1675, 15293.22
393.6497, 15282.23
394.1318, 15268.34
394.6139, 15258.91
395.0960, 15255.81
395.5781, 15260.40
396.0602, 15288.43
396.5424, 15307.17
397.0245, 15295.02
397.5066, 15262.03
397.9887, 15262.92
398.4708, 15348.27
398.9529, 15431.27
399.4351, 15473.14
399.9172, 15445.73
400.3993, 15427.73
400.8814, 15420.90
401.3635, 15422.89
401.8456, 15430.04
402.3278, 15446.50
402.8099, 15460.33
403.2920, 15463.84
403.7741, 15454.43
404.2562, 15468.42
404.7383, 15518.47
405.2205, 15569.56
405.7026, 15575.02
406.1847, 15527.50
406.6668, 15490.10
407.1489, 15481.32
407.6310, 15493.37
408.1132, 15498.70
408.5953, 15497.00
409.0774, 15491.76
409.5595, 15479.70
410.0416, 15464.58
410.5237, 15467.95
411.0059, 15500.06
411.4880, 15537.23
411.9701, 15542.05
412.4522, 15520.26
412.9343, 15499.35
413.4164, 15493.47
413.8986, 15498.12
414.3807, 15510.66
414.8628, 15532.35
415.3449, 15548.43
415.8270, 15544.11
416.3091, 15527.10
416.7913, 15509.85
417.2734, 15500.63
417.7555, 15489.82
418.2376, 15462.86
418.7197, 15423.35
419.2018, 15402.59
419.6840, 15430.57
420.1661, 15473.39
420.6482, 15505.85
421.1303, 15523.28
421.6124, 15529.80
422.0945, 15515.10
422.5767, 15489.15
423.0588, 15479.27
423.5409, 15509.96
424.0230, 15538.00
424.5052, 15545.95
424.9873, 15524.04
425.4694, 15512.86
425.9515, 15519.65
426.4336, 15532.56
426.9157, 15534.83
427.3979, 15514.25
427.8800, 15509.39
428.3621, 15533.20
428.8442, 15582.42
429.3263, 15621.31
429.8084, 15648.62
430.2906, 15668.66
430.7727, 15684.84
431.2548, 15697.20
431.7369, 15699.70
432.2190, 15687.04
432.7011, 15671.23
433.1833, 15679.85
433.6654, 15711.98
434.1475, 15742.58
434.6296, 15754.75
435.1117, 15755.31
435.5938, 15763.68
436.0760, 15781.31
436.5581, 15799.56
437.0402, 15805.53
437.5223, 15805.93
438.0044, 15814.86
438.4865, 15837.84
438.9687, 15871.05
439.4508, 15920.68
439.9329, 15982.03
440.4150, 16028.80
440.8971, 16029.54
441.3792, 16018.74
441.8614, 16026.10
442.3435, 16065.76
442.8256, 16106.85
443.3077, 16132.46
443.7898, 16153.04
444.2719, 16187.55
444.7541, 16260.91
445.2362, 16330.23
445.7183, 16378.63
446.2004, 16401.88
446.6825, 16426.48
447.1646, 16460.00
447.6468, 16490.76
448.1289, 16508.06
448.6110, 16497.98
449.0931, 16500.07
449.5752, 16522.72
450.0573, 16560.72
450.5395, 16590.86
451.0216, 16607.88
451.5037, 16629.23
451.9858, 16669.37
452.4679, 16730.28
452.9500, 16771.96
453.4322, 16788.31
453.9143, 16796.96
454.3964, 16827.88
454.8785, 16878.15
455.3606, 16917.23
455.8427, 16925.29
456.3249, 16918.23
456.8070, 16938.69
457.2891, 16985.19
457.7712, 17020.25
458.2533, 16993.92
458.7354, 16941.89
459.2176, 16924.66
459.6997, 16968.81
460.1818, 17020.73
460.6639, 17040.09
461.1460, 17034.03
461.6281, 17018.54
462.1103, 16986.02
462.5924, 16958.01
463.0745, 16948.44
463.5566, 16960.24
464.0387, 16974.39
464.5208, 16993.27
465.0030, 17008.12
465.4851, 17011.10
465.9672, 16991.60
466.4493, 16971.01
466.9314, 16946.96
467.4135, 16922.73
467.8957, 16912.40
468.3778, 16923.49
468.8599, 16939.27
469.3420, 16955.39
469.8241, 16976.45
470.3062, 16976.95
470.7884, 16947.69
471.2705, 16910.53
471.7526, 16893.72
472.2347, 16898.00
472.7168, 16918.72
473.1989, 16965.03
473.6811, 17023.25
474.1632, 17039.06
474.6453, 17011.34
475.1274, 16980.52
475.6095, 16981.00
476.0916, 17001.99
476.5738, 17015.12
477.0559, 17015.17
477.5380, 17011.04
478.0201, 17002.13
478.5022, 16996.06
478.9843, 17010.30
479.4665, 17077.25
479.9486, 17149.90
480.4307, 17188.85
480.9128, 17194.27
481.3949, 17200.76
481.8770, 17234.27
482.3592, 17269.84
482.8413, 17286.96
483.3234, 17257.26
483.8055, 17242.39
484.2876, 17266.59
484.7697, 17313.65
485.2519, 17343.44
485.7340, 17335.90
486.2161, 17331.63
486.6982, 17343.92
487.1803, 17375.68
487.6624, 17398.98
488.1446, 17410.79
488.6267, 17418.03
489.1088, 17425.28
489.5909, 17431.16
490.0730, 17445.24
490.5551, 17470.81
491.0373, 17503.07
491.5194, 17537.76
492.0015, 17574.82
492.4836, 17589.73
492.9657, 17549.26
493.4479, 17476.18
493.9300, 17434.25
494.4121, 17426.35
494.8942, 17442.90
495.3763, 17501.04
495.8585, 17573.25
496.3406, 17610.02
496.8227, 17573.94
497.3048, 17521.63
497.7869, 17489.51
498.2690, 17474.95
498.7512, 17471.28
499.2333, 17480.27
499.7154, 17495.65
500.1975, 17517.94
500.6796, 17553.68
501.1617, 17571.80
501.6439, 17550.08
502.1260, 17514.93
502.6081, 17495.19
503.0902, 17504.65
503.5723, 17510.84
504.0544, 17508.02
504.5366, 17498.48
505.0187, 17493.46
505.5008, 17493.92
505.9829, 17496.80
506.4650, 17499.83
506.9471, 17502.61
507.4293, 17513.78
507.9114, 17536.96
508.3935, 17557.63
508.8756, 17551.83
509.3577, 17523.39
509.8398, 17501.11
510.3220, 17496.05
510.8041, 17499.78
511.2862, 17499.35
511.7683, 17495.52
512.2504, 17492.54
512.7325, 17493.02
513.2147, 17495.81
513.6968, 17499.16
514.1789, 17502.38
514.6610, 17508.96
515.1431, 17527.33
515.6252, 17547.85
516.1074, 17559.08
516.5895, 17551.42
517.0716, 17540.90
517.5537, 17527.61
518.0358, 17513.33
518.5179, 17509.27
519.0001, 17527.15
519.4822, 17543.76
519.9643, 17549.76
520.4464, 17542.41
520.9285, 17532.82
521.4106, 17516.14
521.8928, 17503.50
522.3749, 17512.80
522.8570, 17547.78
523.3391, 17573.64
523.8212, 17582.00
524.3033, 17576.74
524.7855, 17563.37
525.2676, 17542.24
525.7497, 17527.17
526.2318, 17530.45
526.7139, 17544.54
527.1960, 17556.73
527.6782, 17566.65
528.1603, 17569.76
528.6424, 17560.50
529.1245, 17542.46
529.6066, 17520.41
530.0887, 17484.75
530.5709, 17457.85
531.0530, 17454.24
531.5351, 17468.66
532.0172, 17484.48
532.4993, 17503.71
532.9814, 17518.02
533.4636, 17521.87
533.9457, 17511.12
534.4278, 17507.03
534.9099, 17511.72
535.3920, 17521.27
535.8741, 17533.10
536.3563, 17549.18
536.8384, 17561.29
537.3205, 17567.53
537.8026, 17569.70
538.2847, 17574.37
538.7668, 17582.29
539.2490, 17580.68
539.7311, 17552.71
540.2132, 17510.12
540.6953, 17492.47
541.1774, 17500.49
541.6595, 17519.87
542.1417, 17544.58
542.6238, 17571.05
543.1059, 17592.92
543.5880, 17607.66
544.0701, 17619.80
544.5522, 17638.38
545.0344, 17656.10
545.5165, 17658.82
545.9986, 17621.28
546.4807, 17586.72
546.9628, 17571.63
547.4449, 17576.97
547.9271, 17590.74
548.4092, 17630.49
548.8913, 17663.26
549.3734, 17666.65
549.8555, 17610.89
550.3376, 17598.48
550.8198, 17646.08
551.3019, 17720.08
551.7840, 17771.79
552.2661, 17800.69
552.7482, 17810.37
553.2303, 17796.75
553.7125, 17767.57
554.1946, 17735.45
554.6767, 17701.95
555.1588, 17690.36
555.6409, 17740.87
556.1230, 17816.40
556.6052, 17849.85
557.0873, 17830.44
557.5694, 17807.48
558.0515, 17812.85
558.5336, 17837.49
559.0157, 17870.06
559.4979, 17922.46
559.9800, 17965.82
560.4621, 17993.11
560.9442, 18004.00
561.4263, 17999.57
561.9084, 17961.82
562.3906, 17926.20
562.8727, 17898.55
563.3548, 17876.46
563.8369, 17886.75
564.3190, 17943.58
564.8011, 18010.14
565.2833, 18060.23
565.7654, 18093.92
566.2475, 18100.29
566.7296, 18068.48
567.2117, 18028.21
567.6938, 18037.77
568.1760, 18088.83
568.6581, 18130.91
569.1402, 18135.38
569.6223, 18120.95
570.1044, 18106.75
570.5865, 18093.83
571.0687, 18090.90
571.5508, 18109.06
572.0329, 18135.93
572.5150, 18166.17
572.9971, 18206.85
573.4792, 18222.78
573.9614, 18172.02
574.4435, 18103.94
574.9256, 18075.28
575.4077, 18141.76
575.8898, 18182.02
576.3719, 18169.01
576.8541, 18122.04
577.3362, 18109.88
577.8183, 18144.35
578.3004, 18181.08
578.7825, 18202.23
579.2646, 18208.55
579.7468, 18206.83
580.2289, 18195.60
580.7110, 18186.64
581.1931, 18191.31
581.6752, 18206.65
582.1573, 18225.44
582.6395, 18247.30
583.1216, 18269.37
583.6037, 18293.41
584.0858, 18315.02
584.5679, 18326.76
585.0500, 18307.13
585.5322, 18293.79
586.0143, 18314.77
586.4964, 18363.88
586.9785, 18393.41
587.4606, 18373.10
587.9427, 18348.90
588.4249, 18341.68
588.9070, 18356.51
589.3891, 18367.13
589.8712, 18368.19
590.3533, 18372.16
590.8354, 18396.21
591.3176, 18443.88
591.7997, 18478.93
592.2818, 18493.16
592.7639, 18495.69
593.2460, 18501.60
593.7281, 18510.38
594.2103, 18519.33
594.6924, 18527.65
595.1745, 18535.15
595.6566, 18538.28
596.1387, 18538.34
596.6208, 18545.97
597.1030, 18579.40
597.5851, 18615.10
598.0672, 18632.66
598.5493, 18621.10
599.0315, 18615.62
599.5136, 18627.49
599.9957, 18647.98
600.4778, 18667.51
600.9600, 18689.03
601.4421, 18704.05
601.9242, 18708.18
602.4063, 18706.55
602.8884, 18716.28
603.3705, 18741.20
603.8527, 18756.67
604.3348, 18741.71
604.8169, 18709.27
605.2990, 18720.14
605.7811, 18774.11
606.2632, 18825.45
606.7454, 18829.22
607.2275, 18808.97
607.7096, 18800.10
608.1917, 18807.77
608.6738, 18826.21
609.1559, 18861.87
609.6381, 18902.55
610.1202, 18933.88
610.6023, 18954.25
611.0844, 18961.63
611.5665, 18940.32
612.0486, 18904.51
612.5308, 18898.87
613.0129, 18945.08
613.4950, 18987.65
613.9771, 19008.45
614.4592, 19008.32
614.9413, 19011.71
615.4235, 19019.48
615.9056, 19027.00
616.3877, 19024.23
616.8698, 19016.65
617.3519, 19036.68
617.8340, 19093.25
618.3162, 19143.50
618.7983, 19120.51
619.2804, 19064.65
619.7625, 19046.85
620.2446, 19129.08
620.7267, 19204.98
621.2089, 19199.01
621.6910, 19142.27
622.1731, 19110.81
622.6552, 19147.34
623.1373, 19188.51
623.6194, 19219.10
624.1016, 19238.86
624.5837, 19242.62
625.0658, 19218.80
625.5479, 19198.58
626.0300, 19203.80
626.5121, 19236.93
626.9943, 19258.41
627.4764, 19264.35
627.9585, 19270.30
628.4406, 19298.50
628.9227, 19341.74
629.4048, 19378.85
629.8870, 19407.22
630.3691, 19422.25
630.8512, 19406.54
631.3333, 19374.69
631.8154, 19356.79
632.2975, 19378.87
632.7797, 19404.67
633.2618, 19414.06
633.7439, 19409.51
634.2260, 19420.19
634.7081, 19470.51
635.1902, 19514.65
635.6724, 19530.89
636.1545, 19512.26
636.6366, 19517.86
637.1187, 19558.82
637.6008, 19597.64
638.0829, 19584.92
638.5651, 19527.56
639.0472, 19513.60
639.5293, 19563.40
640.0114, 19630.01
640.4935, 19654.68
640.9756, 19651.16
641.4578, 19651.33
641.9399, 19661.96
642.4220, 19686.14
642.9041, 19744.67
643.3862, 19821.10
643.8683, 19865.65
644.3505, 19834.41
644.8326, 19794.79
645.3147, 19772.14
645.7968, 19766.89
646.2789, 19761.10
646.7610, 19745.12
647.2432, 19743.85
647.7253, 19780.82
648.2074, 19860.35
648.6895, 19917.55
649.1716, 19948.54
649.6537, 19966.68
650.1359, 19990.15
650.6180, 20013.97
651.1001, 20020.54
651.5822, 19996.44
652.0643, 19973.67
652.5464, 19989.21
653.0286, 20026.91
653.5107, 20056.32
653.9928, 20054.74
654.4749, 20052.87
654.9570, 20067.96
655.4391, 20095.96
655.9213, 20105.62
656.4034, 20079.81
656.8855, 20056.16
657.3676, 20044.70
657.8497, 20044.95
658.3318, 20075.95
658.8140, 20145.26
659.2961, 20216.36
659.7782, 20257.32
660.2603, 20273.81
660.7424, 20289.61
661.2245, 20306.89
661.7067, 20325.62
662.1888, 20351.67
662.6709, 20377.82
663.1530, 20391.91
663.6351, 20378.21
664.1172, 20369.48
664.5994, 20380.25
665.0815, 20405.94
665.5636, 20437.53
666.0457, 20471.35
666.5278, 20514.82
667.0099, 20583.33
667.4921, 20665.32
667.9742, 20685.33
668.4563, 20621.85
668.9384, 20573.05
669.4205, 20600.60
669.9026, 20687.94
670.3848, 20739.30
670.8669, 20753.99
671.3490, 20777.63
671.8311, 20872.18
672.3132, 20989.02
672.7953, 21053.24
673.2775, 21042.62
673.7596, 21032.71
674.2417, 21062.42
674.7238, 21113.05
675.2059, 21165.98
675.6880, 21205.00
676.1702, 21264.42
676.6523, 21365.64
677.1344, 21479.75
677.6165, 21549.09
678.0986, 21561.60
678.5807, 21577.63
679.0629, 21609.74
679.5450, 21656.84
680.0271, 21712.58
680.5092, 21778.63
680.9913, 21863.40
681.4734, 22004.39
681.9556, 22149.46
682.4377, 22228.54
682.9198, 22245.23
683.4019, 22251.57
683.8840, 22258.81
684.3661, 22276.66
684.8483, 22313.72
685.3304, 22375.12
685.8125, 22437.35
686.2946, 22500.14
686.7767, 22561.30
687.2589, 22619.00
687.7410, 22671.19
688.2231, 22728.04
688.7052, 22792.42
689.1873, 22858.07
689.6694, 22912.03
690.1516, 22959.20
690.6337, 23024.91
691.1158, 23128.68
691.5979, 23229.56
692.0800, 23268.70
692.5621, 23272.45
693.0443, 23300.44
693.5264, 23417.51
694.0085, 23522.94
694.4906, 23562.85
694.9727, 23549.61
695.4548, 23560.16
695.9370, 23607.87
696.4191, 23666.24
696.9012, 23725.66
697.3833, 23786.76
697.8654, 23863.04
698.3475, 23958.16
698.8297, 24047.18
699.3118, 24105.37
699.7939, 24143.65
700.2760, 24199.01
700.7581, 24275.39
701.2402, 24338.08
701.7224, 24344.83
702.2045, 24330.13
702.6866, 24332.99
703.1687, 24372.13
703.6508, 24403.51
704.1329, 24415.73
704.6151, 24412.62
705.0972, 24399.56
705.5793, 24375.82
706.0614, 24343.66
706.5435, 24300.71
707.0256, 24252.03
707.5078, 24206.67
707.9899, 24164.84
708.4720, 24127.70
708.9541, 24105.41
709.4362, 24076.32
709.9183, 23991.42
710.4005, 23866.53
710.8826, 23756.52
711.3647, 23691.22
711.8468, 23649.17
712.3289, 23619.99
712.8110, 23602.38
713.2932, 23589.54
713.7753, 23610.73
714.2574, 23604.74
714.7395, 23528.22
715.2216, 23367.22
715.7037, 23312.82
716.1859, 23391.89
716.6680, 23490.96
717.1501, 23514.73
717.6322, 23480.96
718.1143, 23473.75
718.5964, 23500.57
719.0786, 23541.48
719.5607, 23589.79
720.0428, 23636.08
720.5249, 23666.13
721.0070, 23671.43
721.4891, 23673.41
721.9713, 23662.72
722.4534, 23659.82
722.9355, 23692.73
723.4176, 23782.78
723.8997, 23871.38
724.3818, 23951.38
724.8640, 24029.44
725.3461, 24121.14
725.8282, 24226.94
726.3103, 24320.71
726.7924, 24393.22
727.2745, 24452.12
727.7567, 24516.11
728.2388, 24579.46
728.7209, 24624.80
729.2030, 24609.80
729.6851, 24602.90
730.1672, 24666.16
730.6494, 24786.09
731.1315, 24863.65
731.6136, 24853.25
732.0957, 24824.27
732.5778, 24798.00
733.0599, 24774.37
733.5421, 24734.52
734.0242, 24676.80
734.5063, 24609.66
734.9884, 24535.94
735.4705, 24457.68
735.9526, 24381.69
736.4348, 24308.37
736.9169, 24227.96
737.3990, 24133.88
737.8811, 24028.10
738.3632, 23911.44
738.8453, 23783.90
739.3275, 23650.34
739.8096, 23481.89
740.2917, 23327.45
740.7739, 23232.82
741.2560, 23231.42
741.7381, 23208.49
742.2202, 23155.07
742.7023, 23085.96
743.1844, 23016.57
743.6666, 22948.01
744.1487, 22892.42
744.6308, 22853.72
745.1129, 22827.32
745.5950, 22816.54
746.0771, 22813.28
746.5593, 22802.01
747.0414, 22773.59
747.5235, 22739.44
748.0056, 22695.25
748.4877, 22648.77
748.9698, 22621.02
749.4520, 22620.70
749.9341, 22624.80
750.4162, 22629.02
750.8983, 22633.57
751.3804, 22638.57
751.8625, 22643.95
752.3447, 22652.88
752.8268, 22664.27
753.3089, 22681.62
753.7910, 22715.81
754.2731, 22763.12
754.7552, 22807.25
755.2374, 22837.34
755.7195, 22862.73
756.2016, 22893.23
756.6837, 22930.19
757.1658, 22941.61
757.6479, 22897.18
758.1301, 22866.16
758.6122, 22886.38
759.0943, 22959.75
759.5764, 23017.32
760.0585, 23056.07
760.5406, 23100.62
761.0228, 23180.12
761.5049, 23277.48
761.9870, 23363.56
762.4691, 23436.43
762.9512, 23480.88
763.4333, 23450.34
763.9155, 23409.52
764.3976, 23417.01
764.8797, 23504.77
765.3618, 23586.21
765.8439, 23661.85
766.3260, 23723.17
766.8082, 23758.33
767.2903, 23763.04
767.7724, 23774.00
768.2545, 23794.99
768.7366, 23820.18
769.2188, 23840.43
769.7009, 23859.17
770.1830, 23886.14
770.6651, 23927.43
771.1472, 23968.07
771.6293, 24015.30
772.1115, 24049.79
772.5936, 24045.24
773.0757, 23930.61
773.5578, 23863.35
774.0399, 23883.29
774.5220, 23941.25
775.0042, 23948.45
775.4863, 23898.14
775.9684, 23841.65
776.4505, 23784.52
776.9326, 23739.30
777.4147, 23756.06
777.8969, 23807.63
778.3790, 23810.96
778.8611, 23676.09
779.3432, 23531.94
779.8253, 23460.98
780.3074, 23444.36
780.7896, 23432.87
781.2717, 23421.74
781.7538, 23409.05
782.2359, 23397.82
782.7180, 23384.29
783.2001, 23345.63
783.6823, 23276.81
784.1644, 23229.84
784.6465, 23242.79
785.1286, 23282.05
785.6107, 23274.89
786.0928, 23230.18
786.5750, 23189.64
787.0571, 23170.41
787.5392, 23167.32
788.0213, 23184.57
788.5034, 23219.71
788.9855, 23244.01
789.4677, 23249.34
789.9498, 23250.43
790.4319, 23250.04
790.9140, 23248.92
791.3961, 23259.98
791.8782, 23284.60
792.3604, 23305.13
792.8425, 23292.90
793.3246, 23274.86
793.8067, 23310.24
794.2888, 23395.33
794.7709, 23475.67
795.2531, 23507.01
795.7352, 23532.91
796.2173, 23580.04
796.6994, 23652.85
797.1815, 23733.02
797.6636, 23828.05
798.1458, 23917.33
798.6279, 23985.80
799.1100, 24034.24
799.5921, 24089.56
800.0742, 24151.11
800.5563, 24222.49
801.0385, 24306.31
801.5206, 24402.58
802.0027, 24519.44
802.4848, 24659.44
802.9669, 24783.29
803.4490, 24851.66
803.9312, 24913.62
804.4133, 25006.98
804.8954, 25139.60
805.3775, 25277.59
805.8596, 25427.82
806.3417, 25569.90
806.8239, 25669.71
807.3060, 25738.50
807.7881, 25877.17
808.2702, 26097.41
808.7523, 26310.11
809.2344, 26409.29
809.7166, 26470.75
810.1987, 26585.29
810.6808, 26779.69
811.1629, 26979.13
811.6450, 27163.04
812.1271, 27340.49
812.6093, 27519.02
813.0914, 27704.59
813.5735, 27867.39
814.0556, 28000.41
814.5377, 28131.47
815.0198, 28304.08
815.5020, 28499.80
815.9841, 28662.56
816.4662, 28782.42
816.9483, 28886.76
817.4304, 28986.04
817.9125, 29087.61
818.3947, 29204.15
818.8768, 29361.84
819.3589, 29473.98
819.8410, 29517.95
820.3231, 29533.35
820.8052, 29560.83
821.2874, 29605.25
821.7695, 29605.43
822.2516, 29551.53
822.7337, 29476.99
823.2158, 29414.66
823.6979, 29361.14
824.1801, 29314.92
824.6622, 29281.81
825.1443, 29234.12
825.6264, 29166.23
826.1085, 29072.10
826.5906, 28941.55
827.0728, 28713.23
827.5549, 28574.92
828.0370, 28550.27
828.5191, 28574.34
829.0012, 28580.22
829.4833, 28570.13
829.9655, 28558.38
830.4476, 28543.75
830.9297, 28546.04
831.4118, 28577.59
831.8939, 28640.29
832.3760, 28736.58
832.8582, 28870.47
833.3403, 29032.24
833.8224, 29218.02
834.3045, 29433.17
834.7866, 29679.66
835.2687, 29951.95
835.7509, 30286.54
836.2330, 30697.37
836.7151, 31141.28
837.1972, 31560.17
837.6793, 31974.05
838.1614, 32442.31
838.6436, 32986.29
839.1257, 33554.95
839.6078, 34134.10
840.0899, 34713.13
840.5720, 35281.07
841.0541, 35830.68
841.5363, 36382.51
842.0184, 36925.78
842.5005, 37477.38
842.9826, 38067.59
843.4647, 38689.25
843.9468, 39227.80
844.4290, 39668.85
844.9111, 40049.98
845.3932, 40400.83
845.8753, 40712.73
846.3574, 40990.33
846.8395, 41265.73
847.3217, 41389.53
847.8038, 41251.02
848.2859, 40990.60
848.7680, 40717.16
849.2501, 40456.55
849.7322, 40058.29
850.2144, 39499.39
850.6965, 38875.86
851.1786, 38296.52
851.6607, 37729.38
852.1428, 37096.87
852.6249, 36381.48
853.1071, 35659.27
853.5892, 34966.12
854.0713, 34293.98
854.5534, 33634.12
855.0355, 32983.02
855.5176, 32376.95
855.9998, 31833.34
856.4819, 31300.78
856.9640, 30740.88
857.4461, 30155.18
857.9282, 29623.30
858.4103, 29146.50
858.8925, 28697.54
859.3746, 28257.74
859.8567, 27835.78
860.3388, 27447.68
860.8209, 27097.97
861.3030, 26766.11
861.7852, 26448.10
862.2673, 26150.88
862.7494, 25886.33
863.2315, 25654.00
863.7136, 25410.16
864.1957, 25145.74
864.6779, 24918.60
865.1600, 24787.07
865.6421, 24710.09
866.1242, 24629.33
866.6063, 24540.66
867.0884, 24442.46
867.5706, 24320.28
868.0527, 24199.54
868.5348, 24103.11
869.0169, 24029.86
869.4990, 23932.47
869.9811, 23799.09
870.4633, 23677.97
870.9454, 23595.10
871.4275, 23543.45
871.9096, 23510.62
872.3917, 23493.64
872.8738, 23470.19
873.3560, 23428.39
873.8381, 23373.93
874.3202, 23300.72
874.8023, 23213.26
875.2844, 23148.92
875.7665, 23121.77
876.2487, 23096.96
876.7308, 23059.60
877.2129, 23018.58
877.6950, 23014.94
878.1771, 23045.31
878.6592, 23068.21
879.1414, 23066.22
879.6235, 23044.91
880.1056, 22993.59
880.5877, 22926.99
881.0698, 22884.48
881.5520, 22901.98
882.0341, 22915.39
882.5162, 22903.67
882.9984, 22882.41
883.4805, 22900.92
883.9626, 22963.75
884.4447, 22982.29
884.9268, 22909.75
885.4089, 22824.17
885.8911, 22849.30
886.3732, 22940.39
886.8553, 23008.49
887.3374, 23015.97
887.8195, 23001.86
888.3016, 22971.56
888.7838, 22928.08
889.2659, 22868.53
889.7480, 22780.64
890.2301, 22733.92
890.7122, 22744.54
891.1943, 22777.82
891.6765, 22791.57
892.1586, 22791.07
892.6407, 22785.80
893.1228, 22774.65
893.6049, 22770.51
894.0870, 22787.97
894.5692, 22811.44
895.0513, 22825.14
895.5334, 22822.95
896.0155, 22825.15
896.4976, 22831.66
896.9797, 22842.80
897.4619, 22873.86
897.9440, 22910.44
898.4261, 22884.11
898.9082, 22786.80
899.3903, 22711.34
899.8724, 22740.42
900.3546, 22803.28
900.8367, 22849.34
901.3188, 22871.47
901.8009, 22877.62
902.2830, 22860.40
902.7651, 22841.99
903.2473, 22836.72
903.7294, 22841.48
904.2115, 22833.68
904.6936, 22814.48
905.1757, 22800.19
905.6578, 22808.43
906.1400, 22820.31
906.6221, 22818.83
907.1042, 22805.58
907.5863, 22799.01
908.0684, 22800.41
908.5505, 22810.56
909.0327, 22832.29
909.5148, 22862.06
909.9969, 22891.21
910.4790, 22918.63
910.9611, 22930.17
911.4432, 22908.38
911.9254, 22880.95
912.4075, 22874.63
912.8896, 22883.17
913.3717, 22892.91
913.8538, 22905.55
914.3359, 22912.28
914.8181, 22913.45
915.3002, 22907.08
915.7823, 22883.44
916.2644, 22843.54
916.7465, 22823.28
917.2286, 22835.47
917.7108, 22851.41
918.1929, 22829.80
918.6750, 22797.34
919.1571, 22791.47
919.6392, 22834.21
920.1213, 22876.73
920.6035, 22919.42
921.0856, 22950.95
921.5677, 22953.19
922.0498, 22923.72
922.5319, 22932.63
923.0140, 22986.50
923.4962, 23042.85
923.9783, 23070.50
924.4604, 23075.84
924.9425, 23055.04
925.4246, 23006.05
925.9067, 22984.68
926.3889, 23040.26
926.8710, 23092.93
927.3531, 23109.09
927.8352, 23090.97
928.3173, 23070.85
928.7994, 23048.60
929.2816, 23032.40
929.7637, 23033.63
930.2458, 23039.44
930.7279, 23029.95
931.2100, 23010.59
931.6921, 23000.98
932.1743, 23019.64
932.6564, 23035.28
933.1385, 23038.55
933.6206, 23034.47
934.1027, 23038.60
934.5848, 23051.58
935.0670, 23048.54
935.5491, 23014.93
936.0312, 22979.95
936.5133, 22982.28
936.9954, 23006.33
937.4775, 23026.61
937.9597, 23032.12
938.4418, 23039.57
938.9239, 23053.49
939.4060, 23068.98
939.8881, 23076.60
940.3702, 23075.21
940.8524, 23105.63
941.3345, 23176.44
941.8166, 23230.81
942.2987, 23184.76
942.7808, 23108.02
943.2629, 23093.17
943.7451, 23158.79
944.2272, 23206.19
944.7093, 23197.43
945.1914, 23180.57
945.6735, 23175.95
946.1556, 23182.38
946.6378, 23181.07
947.1199, 23172.08
947.6020, 23173.32
948.0841, 23208.53
948.5662, 23249.27
949.0483, 23265.79
949.5305, 23262.40
950.0126, 23255.31
950.4947, 23243.43
950.9768, 23235.59
951.4589, 23235.51
951.9410, 23238.75
952.4232, 23233.06
952.9053, 23219.59
953.3874, 23210.95
953.8695, 23207.37
954.3516, 23218.21
954.8337, 23282.08
955.3159, 23353.49
955.7980, 23369.33
956.2801, 23253.91
956.7622, 23203.48
957.2443, 23256.23
957.7264, 23331.61
958.2086, 23355.50
958.6907, 23334.12
959.1728, 23322.22
959.6549, 23322.88
960.1370, 23317.24
960.6191, 23272.73
961.1013, 23229.65
961.5834, 23227.00
962.0655, 23268.04
962.5476, 23299.56
963.0297, 23316.80
963.5118, 23327.85
963.9940, 23334.59
964.4761, 23338.07
964.9582, 23336.39
965.4403, 23332.88
965.9224, 23343.70
966.4045, 23401.74
966.8867, 23449.66
967.3688, 23435.77
967.8509, 23393.13
968.3330, 23390.81
968.8151, 23458.35
969.2972, 23494.30
969.7794, 23479.89
970.2615, 23448.67
970.7436, 23441.19
971.2257, 23452.84
971.7078, 23479.21
972.1899, 23524.56
972.6721, 23549.29
973.1542, 23515.52
973.6363, 23464.56
974.1184, 23421.23
974.6005, 23384.41
975.0826, 23378.22
975.5648, 23407.29
976.0469, 23443.16
976.5290, 23468.92
977.0111, 23488.44
977.4932, 23507.30
977.9753, 23526.26
978.4575, 23548.60
978.9396, 23582.64
979.4217, 23612.64
979.9038, 23641.46
980.3859, 23659.89
980.8680, 23636.99
981.3502, 23570.17
981.8323, 23518.78
982.3144, 23495.24
982.7965, 23496.44
983.2786, 23534.44
983.7607, 23589.19
984.2429, 23633.91
984.7250, 23667.04
985.2071, 23675.18
985.6892, 23643.44
986.1713, 23605.91
986.6534, 23583.57
987.1356, 23576.68
987.6177, 23599.30
988.0998, 23650.60
988.5819, 23692.25
989.0640, 23681.06
989.5461, 23661.74
990.0283, 23675.05
990.5104, 23717.30
990.9925, 23741.82
991.4746, 23738.24
991.9567, 23733.99
992.4388, 23738.91
992.9210, 23744.54
993.4031, 23725.89
993.8852, 23691.66
994.3673, 23670.40
994.8494, 23672.34
995.3315, 23688.11
995.8137, 23721.51
996.2958, 23761.47
996.7779, 23796.79
997.2600, 23831.14
997.7421, 23846.32
998.2242, 23839.59
998.7064, 23824.80
999.1885, 23816.14
999.6706, 23806.91
1000.153, 23777.78
1000.635, 23730.84
1001.117, 23702.41
1001.599, 23704.81
1002.081, 23733.93
1002.563, 23805.65
1003.045, 23897.96
1003.528, 23915.73
1004.010, 23861.07
1004.492, 23814.08
1004.974, 23802.35
1005.456, 23812.03
1005.938, 23844.71
1006.420, 23884.11
1006.902, 23905.82
1007.384, 23890.32
1007.867, 23876.87
1008.349, 23861.93
1008.831, 23856.07
1009.313, 23881.30
1009.795, 23925.73
1010.277, 23930.02
1010.759, 23892.37
1011.241, 23858.40
1011.724, 23865.30
1012.206, 23878.04
1012.688, 23867.96
1013.170, 23840.64
1013.652, 23847.05
1014.134, 23897.09
1014.616, 23935.24
1015.098, 23938.45
1015.580, 23929.48
1016.063, 23948.31
1016.545, 23982.75
1017.027, 24008.53
1017.509, 24018.25
1017.991, 24017.84
1018.473, 24006.51
1018.955, 23987.84
1019.437, 23955.83
1019.919, 23910.11
1020.402, 23916.19
1020.884, 23977.86
1021.366, 24030.72
1021.848, 23998.54
1022.330, 23954.89
1022.812, 23973.41
1023.294, 24049.02
1023.776, 24090.36
1024.259, 24073.66
1024.741, 24064.94
1025.223, 24084.88
1025.705, 24119.59
1026.187, 24147.73
1026.669, 24167.30
1027.151, 24169.04
1027.633, 24136.84
1028.115, 24117.91
1028.598, 24146.70
1029.080, 24189.64
1029.562, 24220.21
1030.044, 24241.63
1030.526, 24219.41
1031.008, 24148.60
1031.490, 24091.60
1031.972, 24120.04
1032.455, 24172.30
1032.937, 24167.70
1033.419, 24116.53
1033.901, 24090.82
1034.383, 24123.53
1034.865, 24158.19
1035.347, 24186.22
1035.829, 24207.31
1036.312, 24220.12
1036.794, 24224.98
1037.276, 24219.66
1037.758, 24198.44
1038.240, 24187.18
1038.722, 24221.18
1039.204, 24258.19
1039.686, 24256.57
1040.168, 24208.56
1040.651, 24181.47
1041.133, 24175.74
1041.615, 24187.82
1042.097, 24233.53
1042.579, 24284.23
1043.061, 24291.87
1043.543, 24268.59
1044.025, 24255.10
1044.507, 24274.13
1044.990, 24289.72
1045.472, 24291.31
1045.954, 24292.80
1046.436, 24331.64
1046.918, 24394.61
1047.400, 24389.81
1047.882, 24293.64
1048.364, 24222.34
1048.847, 24291.75
1049.329, 24392.91
1049.811, 24442.27
1050.293, 24437.90
1050.775, 24419.39
1051.257, 24381.84
1051.739, 24356.86
1052.221, 24366.10
1052.703, 24387.29
1053.186, 24379.11
1053.668, 24357.14
1054.150, 24354.55
1054.632, 24413.16
1055.114, 24446.06
1055.596, 24429.38
1056.078, 24405.53
1056.560, 24431.09
1057.042, 24493.38
1057.525, 24501.40
1058.007, 24450.74
1058.489, 24406.14
1058.971, 24417.44
1059.453, 24444.40
1059.935, 24464.47
1060.417, 24478.12
1060.899, 24495.22
1061.382, 24518.99
1061.864, 24525.95
1062.346, 24504.68
1062.828, 24474.90
1063.310, 24454.97
1063.792, 24447.37
1064.274, 24459.33
1064.756, 24506.38
1065.239, 24533.90
1065.721, 24526.09
1066.203, 24516.21
1066.685, 24532.57
1067.167, 24566.35
1067.649, 24566.73
1068.131, 24539.92
1068.613, 24523.67
1069.095, 24539.67
1069.578, 24570.36
1070.060, 24627.01
1070.542, 24685.03
1071.024, 24698.09
1071.506, 24660.46
1071.988, 24628.24
1072.470, 24609.86
1072.952, 24592.32
1073.434, 24541.70
1073.917, 24498.04
1074.399, 24515.28
1074.881, 24603.61
1075.363, 24672.72
1075.845, 24722.77
1076.327, 24737.18
1076.809, 24693.43
1077.291, 24627.23
1077.774, 24638.21
1078.256, 24697.89
1078.738, 24725.98
1079.220, 24664.92
1079.702, 24621.64
1080.184, 24654.34
1080.666, 24702.34
1081.148, 24715.41
1081.630, 24692.83
1082.113, 24681.30
1082.595, 24681.51
1083.077, 24698.12
1083.559, 24767.52
1084.041, 24824.54
1084.523, 24788.58
1085.005, 24696.26
1085.487, 24688.52
1085.969, 24801.66
1086.452, 24882.07
1086.934, 24901.35
1087.416, 24891.93
1087.898, 24879.97
1088.380, 24873.30
1088.862, 24891.68
1089.344, 24943.06
1089.826, 24967.99
1090.309, 24943.24
1090.791, 24904.97
1091.273, 24860.18
1091.755, 24816.50
1092.237, 24799.17
1092.719, 24805.21
1093.201, 24822.45
1093.683, 24849.71
1094.166, 24881.17
1094.648, 24924.40
1095.130, 24963.23
1095.612, 24981.69
1096.094, 24978.22
1096.576, 24957.89
1097.058, 24919.46
1097.540, 24903.01
1098.022, 24971.85
1098.505, 25047.45
1098.987, 25041.24
1099.469, 24979.10
1099.951, 24979.58
1100.433, 25089.45
1100.915, 25137.71
1101.397, 25083.27
1101.879, 24998.74
1102.362, 24966.11
1102.844, 24972.46
1103.326, 25009.80
1103.808, 25082.47
1104.290, 25110.84
1104.772, 25032.52
1105.254, 24964.68
1105.736, 24947.78
1106.219, 24972.29
1106.701, 25018.37
1107.183, 25080.23
1107.665, 25141.45
1108.147, 25210.91
1108.629, 25246.91
1109.111, 25202.97
1109.593, 25134.23
1110.075, 25085.31
1110.557, 25055.02
1111.040, 25064.86
1111.522, 25114.23
1112.004, 25156.38
1112.486, 25154.73
1112.968, 25137.86
1113.450, 25117.13
1113.932, 25100.40
1114.414, 25107.07
1114.897, 25144.12
1115.379, 25183.35
1115.861, 25223.77
1116.343, 25257.41
1116.825, 25267.88
1117.307, 25270.40
1117.789, 25294.31
1118.271, 25340.79
1118.754, 25353.26
1119.236, 25305.32
1119.718, 25253.63
1120.200, 25207.63
1120.682, 25176.29
1121.164, 25183.57
1121.646, 25220.13
1122.128, 25268.82
1122.610, 25339.00
1123.093, 25372.52
1123.575, 25297.35
1124.057, 25228.96
1124.539, 25239.11
1125.021, 25315.21
1125.503, 25351.94
1125.985, 25354.63
1126.467, 25359.72
1126.949, 25406.30
1127.432, 25434.95
1127.914, 25386.80
1128.396, 25315.61
1128.878, 25294.45
1129.360, 25331.25
1129.842, 25362.68
1130.324, 25386.74
1130.806, 25400.86
1131.289, 25386.57
1131.771, 25375.02
1132.253, 25402.14
1132.735, 25458.01
1133.217, 25496.35
1133.699, 25516.28
1134.181, 25511.39
1134.663, 25471.82
1135.146, 25437.48
1135.628, 25480.22
1136.110, 25546.51
1136.592, 25554.13
1137.074, 25489.65
1137.556, 25442.21
1138.038, 25419.29
1138.520, 25422.55
1139.002, 25463.87
1139.484, 25517.15
1139.967, 25515.06
1140.449, 25481.66
1140.931, 25474.72
1141.413, 25521.10
1141.895, 25562.73
1142.377, 25592.80
1142.859, 25603.45
1143.341, 25583.51
1143.824, 25540.06
1144.306, 25492.39
1144.788, 25449.30
1145.270, 25453.03
1145.752, 25595.79
1146.234, 25703.64
1146.716, 25656.79
1147.198, 25574.07
1147.681, 25592.04
1148.163, 25709.84
1148.645, 25747.64
1149.127, 25699.88
1149.609, 25647.22
1150.091, 25637.72
1150.573, 25649.82
1151.055, 25680.99
1151.537, 25721.13
1152.020, 25748.51
1152.502, 25763.57
1152.984, 25754.76
1153.466, 25715.41
1153.948, 25686.57
1154.430, 25730.22
1154.912, 25786.78
1155.394, 25790.35
1155.876, 25739.45
1156.359, 25737.13
1156.841, 25798.43
1157.323, 25842.42
1157.805, 25841.75
1158.287, 25824.86
1158.769, 25826.98
1159.251, 25837.39
1159.733, 25842.74
1160.216, 25841.17
1160.698, 25827.04
1161.180, 25790.00
1161.662, 25769.83
1162.144, 25793.00
1162.626, 25838.12
1163.108, 25878.27
1163.590, 25906.18
1164.073, 25905.57
1164.555, 25838.46
1165.037, 25805.62
1165.519, 25827.02
1166.001, 25859.18
1166.483, 25869.96
1166.965, 25866.16
1167.447, 25863.59
1167.929, 25863.89
1168.411, 25872.72
1168.894, 25894.59
1169.376, 25924.88
1169.858, 25974.20
1170.340, 26015.71
1170.822, 26007.58
1171.304, 25963.83
1171.786, 25938.36
1172.268, 25934.71
1172.751, 25944.63
1173.233, 25990.51
1173.715, 26015.49
1174.197, 25991.02
1174.679, 25942.95
1175.161, 25917.25
1175.643, 25912.47
1176.125, 25921.59
1176.608, 25943.71
1177.090, 25976.90
1177.572, 26034.92
1178.054, 26088.76
1178.536, 26122.13
1179.018, 26139.42
1179.500, 26154.23
1179.982, 26166.80
1180.464, 26177.85
1180.947, 26187.52
1181.429, 26196.25
1181.911, 26211.91
1182.393, 26219.79
1182.875, 26205.52
1183.357, 26170.79
1183.839, 26143.14
1184.321, 26122.91
1184.803, 26114.21
1185.286, 26123.66
1185.768, 26136.35
1186.250, 26132.82
1186.732, 26131.43
1187.214, 26157.82
1187.696, 26217.76
1188.178, 26243.70
1188.660, 26233.90
1189.143, 26236.23
1189.625, 26319.28
1190.107, 26388.36
1190.589, 26330.85
1191.071, 26218.70
1191.553, 26179.78
1192.035, 26238.49
1192.517, 26279.43
1193.000, 26299.36
1193.482, 26294.95
1193.964, 26221.12
1194.446, 26158.08
1194.928, 26210.25
1195.410, 26334.16
1195.892, 26391.53
1196.374, 26362.28
1196.856, 26332.39
1197.339, 26308.98
1197.821, 26296.48
1198.303, 26303.95
1198.785, 26320.99
1199.267, 26347.58
1199.749, 26376.72
1200.231, 26365.88
1200.713, 26293.46
1201.195, 26264.79
1201.678, 26305.51
1202.160, 26370.42
1202.642, 26424.76
1203.124, 26463.34
1203.606, 26473.92
1204.088, 26455.06
1204.570, 26446.95
1205.052, 26452.90
1205.535, 26463.04
1206.017, 26479.02
1206.499, 26486.06
1206.981, 26451.10
1207.463, 26403.40
1207.945, 26380.01
1208.427, 26390.48
1208.909, 26406.21
1209.391, 26426.30
1209.874, 26453.58
1210.356, 26493.65
1210.838, 26532.99
1211.320, 26546.45
1211.802, 26548.49
1212.284, 26563.31
1212.766, 26607.48
1213.248, 26618.21
1213.730, 26589.77
1214.213, 26550.42
1214.695, 26507.38
1215.177, 26471.78
1215.659, 26459.99
1216.141, 26467.19
1216.623, 26487.20
1217.105, 26532.62
1217.587, 26554.22
1218.070, 26547.20
1218.552, 26534.90
1219.034, 26517.58
1219.516, 26516.27
1219.998, 26584.28
1220.480, 26687.81
1220.962, 26747.63
1221.444, 26740.75
1221.927, 26709.27
1222.409, 26645.91
1222.891, 26595.70
1223.373, 26606.87
1223.855, 26645.33
1224.337, 26672.52
1224.819, 26690.14
1225.301, 26708.33
1225.783, 26732.96
1226.266, 26743.97
1226.748, 26737.30
1227.230, 26727.99
1227.712, 26734.53
1228.194, 26743.86
1228.676, 26734.64
1229.158, 26712.86
1229.640, 26711.16
1230.122, 26735.12
1230.605, 26767.06
1231.087, 26807.14
1231.569, 26843.56
1232.051, 26873.29
1232.533, 26887.21
1233.015, 26863.57
1233.497, 26808.77
1233.979, 26782.51
1234.462, 26792.68
1234.944, 26803.18
1235.426, 26805.57
1235.908, 26812.69
1236.390, 26846.65
1236.872, 26886.58
1237.354, 26913.74
1237.836, 26925.44
1238.318, 26918.93
1238.801, 26888.17
1239.283, 26881.43
1239.765, 26915.23
1240.247, 26960.13
1240.729, 26996.23
1241.211, 27019.42
1241.693, 27012.75
1242.175, 26980.21
1242.658, 26999.70
1243.140, 27077.88
1243.622, 27121.61
1244.104, 27093.82
1244.586, 27047.94
1245.068, 27026.96
1245.550, 27018.21
1246.032, 27004.88
1246.515, 26987.55
1246.997, 27004.65
1247.479, 27056.56
1247.961, 27101.32
1248.443, 27123.30
1248.925, 27133.68
1249.407, 27135.25
1249.889, 27133.84
1250.371, 27134.47
1250.854, 27137.22
1251.336, 27145.88
1251.818, 27159.24
1252.300, 27156.27
1252.782, 27109.79
1253.264, 27080.63
1253.746, 27134.79
1254.228, 27200.62
1254.710, 27210.25
1255.193, 27169.25
1255.675, 27171.50
1256.157, 27211.28
1256.639, 27246.17
1257.121, 27253.78
1257.603, 27258.26
1258.085, 27289.71
1258.567, 27303.66
1259.050, 27245.58
1259.532, 27131.65
1260.014, 27116.40
1260.496, 27183.45
1260.978, 27249.52
1261.460, 27292.01
1261.942, 27303.52
1262.424, 27250.75
1262.906, 27207.19
1263.389, 27251.46
1263.871, 27354.90
1264.353, 27395.28
1264.835, 27384.03
1265.317, 27369.44
1265.799, 27367.30
1266.281, 27370.88
1266.763, 27384.15
1267.245, 27393.03
1267.728, 27368.80
1268.210, 27336.82
1268.692, 27379.67
1269.174, 27472.56
1269.656, 27525.86
1270.138, 27473.83
1270.620, 27433.03
1271.102, 27410.37
1271.585, 27401.45
1272.067, 27408.38
1272.549, 27422.98
1273.031, 27427.62
1273.513, 27428.11
1273.995, 27448.14
1274.477, 27513.07
1274.959, 27535.96
1275.442, 27501.59
1275.924, 27470.94
1276.406, 27517.56
1276.888, 27583.28
1277.370, 27610.51
1277.852, 27599.87
1278.334, 27554.96
1278.816, 27455.76
1279.298, 27438.78
1279.781, 27522.32
1280.263, 27612.83
1280.745, 27646.04
1281.227, 27643.20
1281.709, 27588.28
1282.191, 27520.13
1282.673, 27536.19
1283.155, 27641.14
1283.637, 27703.77
1284.120, 27711.23
1284.602, 27712.54
1285.084, 27755.52
1285.566, 27788.31
1286.048, 27771.22
1286.530, 27733.06
1287.012, 27723.88
1287.494, 27737.77
1287.977, 27720.65
1288.459, 27669.76
1288.941, 27639.15
1289.423, 27683.41
1289.905, 27722.30
1290.387, 27731.10
1290.869, 27720.58
1291.351, 27693.36
1291.833, 27662.29
1292.316, 27677.80
1292.798, 27738.84
1293.280, 27776.96
1293.762, 27726.67
1294.244, 27712.82
1294.726, 27768.00
1295.208, 27840.27
1295.690, 27869.27
1296.172, 27863.25
1296.655, 27817.06
1297.137, 27739.22
1297.619, 27709.71
1298.101, 27753.20
1298.583, 27791.02
1299.065, 27809.63
1299.547, 27821.00
1300.029, 27840.84
1300.512, 27858.03
1300.994, 27853.99
1301.476, 27834.28
1301.958, 27838.67
1302.440, 27873.44
1302.922, 27877.79
1303.404, 27837.67
1303.886, 27810.73
1304.369, 27876.45
1304.851, 27945.18
1305.333, 27934.29
1305.815, 27881.58
1306.297, 27873.16
1306.779, 27904.34
1307.261, 27910.15
1307.743, 27881.00
1308.225, 27865.76
1308.708, 27921.37
1309.190, 27962.52
1309.672, 27949.49
1310.154, 27912.53
1310.636, 27907.12
1311.118, 27923.58
1311.600, 27930.75
1312.082, 27925.81
1312.564, 27931.49
1313.047, 27967.80
1313.529, 27997.21
1314.011, 28013.04
1314.493, 28017.33
1314.975, 28003.46
1315.457, 27985.29
##END=



