##NAMES=Spherocobaltite
##RRUFFID=R060497
##IDEAL CHEMISTRY=Co^2+^CO_3_
##LOCALITY=Bou Azzer, Anti Atlas Mountains, Morocco
##OWNER=RRUFF
##SOURCE=Michael Scott
##DESCRIPTION=Group of red rhombohedral crystals
##STATUS=The identification of this mineral is confirmed by single-crystal X-ray diffraction and chemical analysis.
##URL=rruff.info/R060497
##MEASURED CHEMISTRY=(Co_0.68_Mg_0.15_Ni_0.07_Ca_0.05_Fe_0.04_Mn_0.01_)_Î£=1_CO_3_ ; C not measured but estimated by difference and stoichiometry
95.22955, 37.57179
95.71167, 36.86542
96.19379, 35.92473
96.67590, 34.70492
97.15803, 33.69355
97.64014, 33.02050
98.12226, 32.57702
98.60438, 32.20802
99.08649, 31.92637
99.56861, 31.62114
100.0507, 31.09471
100.5328, 30.23473
101.0150, 29.40810
101.4971, 28.96765
101.9792, 28.93160
102.4613, 28.77851
102.9434, 28.00383
103.4255, 27.16549
103.9077, 26.71616
104.3898, 26.83487
104.8719, 27.25491
105.3540, 27.43950
105.8361, 27.25938
106.3182, 27.04803
106.8004, 26.89141
107.2825, 26.75002
107.7646, 26.56052
108.2467, 26.27403
108.7288, 25.90431
109.2109, 25.65505
109.6931, 25.64477
110.1752, 25.63008
110.6573, 25.55419
111.1394, 25.41919
111.6215, 25.24493
112.1037, 25.03965
112.5858, 24.79145
113.0679, 24.63024
113.5500, 24.52314
114.0321, 24.51224
114.5142, 24.69705
114.9964, 25.09200
115.4785, 25.48010
115.9606, 25.55261
116.4427, 25.32969
116.9248, 25.17116
117.4069, 25.22651
117.8891, 25.39812
118.3712, 25.47208
118.8533, 25.35922
119.3354, 25.21369
119.8175, 25.20346
120.2996, 25.31517
120.7818, 25.40935
121.2639, 25.31955
121.7460, 25.03276
122.2281, 24.92129
122.7102, 25.28300
123.1923, 25.69181
123.6745, 25.94624
124.1566, 26.00690
124.6387, 25.93380
125.1208, 25.77712
125.6029, 25.40775
126.0850, 25.24495
126.5672, 25.52305
127.0493, 25.87139
127.5314, 25.94979
128.0135, 25.62902
128.4956, 25.07770
128.9778, 24.76424
129.4599, 24.91894
129.9420, 25.08146
130.4241, 25.22408
130.9062, 25.35472
131.3883, 25.50083
131.8705, 25.68715
132.3526, 25.88931
132.8347, 25.97040
133.3168, 25.85356
133.7989, 25.72379
134.2810, 25.65423
134.7632, 25.63879
135.2453, 25.62725
135.7274, 25.53540
136.2095, 25.44146
136.6916, 25.57061
137.1737, 26.17944
137.6559, 26.86880
138.1380, 27.20208
138.6201, 27.11922
139.1022, 26.96215
139.5843, 26.85733
140.0664, 26.83283
140.5486, 26.97441
141.0307, 27.46919
141.5128, 28.13498
141.9949, 28.36609
142.4770, 27.76275
142.9591, 27.32090
143.4413, 27.56472
143.9234, 28.24876
144.4055, 28.91619
144.8876, 29.20608
145.3697, 29.11463
145.8518, 29.20173
146.3340, 29.74602
146.8161, 30.23232
147.2982, 30.47396
147.7803, 30.50617
148.2624, 30.47582
148.7445, 30.52182
149.2267, 30.65117
149.7088, 30.83896
150.1909, 30.97662
150.6730, 31.23682
151.1551, 31.81980
151.6372, 32.70522
152.1194, 33.61074
152.6015, 34.19215
153.0836, 34.30763
153.5657, 34.39703
154.0478, 34.34063
154.5300, 34.31412
155.0121, 34.52761
155.4942, 35.04384
155.9763, 35.68650
156.4584, 36.18167
156.9405, 36.51309
157.4227, 36.89582
157.9048, 37.40060
158.3869, 37.99635
158.8690, 38.63949
159.3511, 39.37178
159.8332, 40.06274
160.3154, 40.52772
160.7975, 40.76050
161.2796, 41.01561
161.7617, 41.46960
162.2438, 42.11107
162.7259, 42.75902
163.2081, 43.46073
163.6902, 44.07671
164.1723, 44.41048
164.6544, 44.45238
165.1365, 44.54270
165.6186, 45.12663
166.1008, 46.34539
166.5829, 47.41053
167.0650, 48.20730
167.5471, 48.80544
168.0292, 49.11721
168.5113, 49.14843
168.9935, 49.14332
169.4756, 49.55382
169.9577, 50.74589
170.4398, 51.65653
170.9219, 52.04323
171.4040, 52.25110
171.8862, 52.50453
172.3683, 52.89790
172.8504, 53.45966
173.3325, 54.27396
173.8146, 55.85893
174.2967, 57.06220
174.7789, 57.60494
175.2610, 57.83472
175.7431, 58.11176
176.2252, 58.59551
176.7073, 59.27645
177.1894, 60.13916
177.6716, 61.42043
178.1537, 62.57723
178.6358, 63.43084
179.1179, 64.09573
179.6000, 64.79754
180.0822, 65.63741
180.5643, 66.59477
181.0464, 67.59720
181.5285, 68.67155
182.0106, 69.75616
182.4927, 70.75850
182.9749, 71.72147
183.4570, 72.86552
183.9391, 74.40685
184.4212, 76.13201
184.9033, 77.55929
185.3854, 78.55679
185.8676, 79.46305
186.3497, 80.50306
186.8318, 81.67625
187.3139, 83.01368
187.7960, 84.74403
188.2781, 86.55489
188.7603, 88.06149
189.2424, 89.12025
189.7245, 90.02680
190.2066, 91.17038
190.6887, 92.61423
191.1708, 94.07686
191.6530, 95.45911
192.1351, 96.81412
192.6172, 98.16106
193.0993, 99.48497
193.5814, 100.8636
194.0635, 102.4617
194.5457, 104.3956
195.0278, 106.3222
195.5099, 108.1192
195.9920, 109.8879
196.4741, 111.7365
196.9562, 113.7160
197.4384, 115.7745
197.9205, 117.7882
198.4026, 119.7951
198.8847, 121.6761
199.3668, 123.3620
199.8489, 124.9426
200.3311, 126.5563
200.8132, 128.2790
201.2953, 130.0221
201.7774, 131.4140
202.2595, 132.4583
202.7417, 133.1035
203.2238, 133.2293
203.7059, 132.9771
204.1880, 132.5520
204.6701, 132.0681
205.1522, 131.4741
205.6344, 130.5164
206.1165, 129.4406
206.5986, 127.7687
207.0807, 125.3251
207.5628, 122.2141
208.0449, 118.5504
208.5271, 114.3285
209.0092, 109.6903
209.4913, 105.2874
209.9734, 101.2333
210.4555, 97.22229
210.9376, 93.07473
211.4198, 88.88194
211.9019, 84.87004
212.3840, 81.22945
212.8661, 77.84151
213.3482, 74.34380
213.8303, 70.65842
214.3125, 67.02153
214.7946, 63.47272
215.2767, 60.04842
215.7588, 57.06911
216.2409, 54.82215
216.7230, 53.02705
217.2052, 51.02881
217.6873, 48.70668
218.1694, 46.45227
218.6515, 44.58992
219.1336, 43.10158
219.6157, 41.70641
220.0979, 40.26794
220.5800, 38.89761
221.0621, 37.70766
221.5442, 36.72099
222.0263, 35.87358
222.5084, 35.15346
222.9906, 34.57388
223.4727, 33.93950
223.9548, 33.07058
224.4369, 32.19978
224.9190, 31.53492
225.4011, 31.11813
225.8833, 30.76261
226.3654, 30.20133
226.8475, 29.36471
227.3296, 28.67060
227.8117, 28.28642
228.2939, 28.02359
228.7760, 27.80564
229.2581, 27.60954
229.7402, 27.41619
230.2223, 27.19464
230.7044, 26.92833
231.1866, 26.68534
231.6687, 26.44658
232.1508, 26.24935
232.6329, 26.15152
233.1150, 26.14968
233.5971, 26.15606
234.0793, 26.05024
234.5614, 25.81038
235.0435, 25.50179
235.5256, 24.94979
236.0077, 24.46546
236.4898, 24.30691
236.9720, 24.48627
237.4541, 24.76814
237.9362, 24.82554
238.4183, 24.53579
238.9004, 24.31105
239.3825, 24.11641
239.8647, 23.99823
240.3468, 24.04948
240.8289, 24.24987
241.3110, 24.43982
241.7931, 24.40699
242.2752, 24.02451
242.7574, 23.78331
243.2395, 23.74580
243.7216, 23.77914
244.2037, 23.84166
244.6858, 23.90758
245.1679, 23.91570
245.6501, 23.78119
246.1322, 23.43747
246.6143, 23.23350
247.0964, 23.21401
247.5785, 23.28260
248.0606, 23.40554
248.5428, 23.56619
249.0249, 23.72598
249.5070, 23.84891
249.9891, 23.93019
250.4712, 23.98944
250.9533, 24.01084
251.4355, 24.02438
251.9176, 24.03382
252.3997, 24.04592
252.8818, 24.09671
253.3639, 24.22575
253.8461, 24.43637
254.3282, 24.61807
254.8103, 24.75954
255.2924, 24.88224
255.7745, 25.00850
256.2566, 25.13505
256.7387, 25.22207
257.2209, 25.21881
257.7030, 25.14733
258.1851, 25.15402
258.6672, 25.26113
259.1493, 25.42761
259.6314, 25.66561
260.1136, 25.96243
260.5957, 26.20232
261.0778, 26.27617
261.5599, 26.25531
262.0420, 26.36463
262.5241, 26.67626
263.0063, 27.03482
263.4884, 27.34861
263.9705, 27.61947
264.4526, 27.85919
264.9348, 28.04687
265.4169, 28.22290
265.8990, 28.46036
266.3811, 28.78626
266.8632, 29.12199
267.3453, 29.37335
267.8275, 29.56054
268.3096, 29.86506
268.7917, 30.43455
269.2738, 31.07950
269.7559, 31.52036
270.2380, 31.71373
270.7202, 31.91882
271.2023, 32.32252
271.6844, 32.90127
272.1665, 33.50272
272.6486, 34.08252
273.1307, 34.68172
273.6129, 35.34036
274.0950, 36.06197
274.5771, 36.80156
275.0592, 37.55919
275.5413, 38.32491
276.0234, 39.00747
276.5056, 39.48426
276.9877, 40.03143
277.4698, 40.85468
277.9519, 41.92161
278.4340, 43.07442
278.9161, 44.21147
279.3983, 45.35292
279.8804, 46.63774
280.3625, 48.17360
280.8446, 49.68809
281.3267, 50.86987
281.8088, 51.88865
282.2910, 53.16724
282.7731, 55.04700
283.2552, 57.35131
283.7373, 59.48520
284.2194, 61.35480
284.7015, 63.22518
285.1837, 65.15063
285.6658, 67.18136
286.1479, 69.42152
286.6300, 71.93669
287.1121, 74.65489
287.5942, 77.36787
288.0764, 79.95621
288.5585, 82.84457
289.0406, 86.36240
289.5227, 90.15491
290.0048, 93.84830
290.4869, 97.35287
290.9691, 100.7017
291.4512, 103.9049
291.9333, 106.8336
292.4154, 110.0226
292.8975, 113.4595
293.3796, 117.2811
293.8618, 121.8030
294.3439, 127.1039
294.8260, 132.5033
295.3081, 136.9937
295.7902, 140.3083
296.2723, 143.9542
296.7545, 148.3677
297.2366, 153.0526
297.7187, 157.6900
298.2008, 162.2683
298.6829, 167.0568
299.1650, 172.3587
299.6472, 178.2490
300.1293, 184.0581
300.6114, 190.0755
301.0935, 195.6436
301.5756, 200.1270
302.0577, 203.7905
302.5399, 207.6055
303.0220, 212.5334
303.5041, 218.4847
303.9862, 223.6232
304.4683, 227.4982
304.9504, 231.0054
305.4326, 234.7042
305.9147, 238.2836
306.3968, 241.1912
306.8789, 243.1369
307.3610, 244.1336
307.8431, 244.1170
308.3253, 242.5586
308.8074, 240.7442
309.2895, 239.5046
309.7716, 238.1001
310.2537, 235.6749
310.7358, 231.8392
311.2180, 226.8241
311.7001, 221.0860
312.1822, 214.2713
312.6643, 207.3704
313.1465, 200.7215
313.6286, 193.9682
314.1107, 186.7141
314.5928, 178.8672
315.0749, 170.7429
315.5570, 162.7449
316.0392, 154.7967
316.5213, 147.2859
317.0034, 140.5517
317.4855, 133.9868
317.9676, 127.1605
318.4497, 120.1142
318.9319, 113.3403
319.4140, 107.4043
319.8961, 102.3957
320.3782, 97.43168
320.8603, 92.39982
321.3424, 87.55770
321.8246, 82.91991
322.3067, 78.54230
322.7888, 74.49634
323.2709, 70.91480
323.7530, 67.74126
324.2351, 64.66361
324.7173, 61.56040
325.1994, 58.74430
325.6815, 56.29601
326.1636, 54.14619
326.6457, 52.18090
327.1278, 50.36448
327.6100, 48.68121
328.0921, 47.10016
328.5742, 45.67777
329.0563, 44.23088
329.5384, 42.64214
330.0205, 41.05139
330.5027, 39.56974
330.9848, 38.22315
331.4669, 37.00208
331.9490, 35.90490
332.4311, 34.95088
332.9132, 34.03750
333.3954, 33.14476
333.8775, 32.29305
334.3596, 31.48067
334.8417, 30.71752
335.3238, 30.05429
335.8059, 29.64233
336.2881, 29.48880
336.7702, 29.02451
337.2523, 27.94513
337.7344, 26.86943
338.2165, 26.04529
338.6986, 25.44182
339.1808, 24.94999
339.6629, 24.50150
340.1450, 24.11541
340.6271, 23.90141
341.1092, 24.02982
341.5913, 23.99431
342.0735, 23.50476
342.5556, 22.79699
343.0377, 22.14186
343.5198, 21.63752
344.0019, 21.23033
344.4840, 20.83881
344.9662, 20.45251
345.4483, 20.11606
345.9304, 19.81182
346.4125, 19.58563
346.8946, 19.52777
347.3767, 19.64895
347.8589, 19.76082
348.3410, 19.67429
348.8231, 19.39338
349.3052, 19.08515
349.7873, 18.71823
350.2694, 18.39165
350.7516, 18.21197
351.2337, 18.14145
351.7158, 18.02433
352.1979, 17.71576
352.6800, 17.28407
353.1621, 16.95302
353.6443, 16.73381
354.1264, 16.60121
354.6085, 16.63272
355.0906, 16.72116
355.5727, 16.67595
356.0548, 16.34604
356.5370, 15.96262
357.0191, 15.87039
357.5012, 16.09716
357.9833, 16.31386
358.4654, 16.42914
358.9475, 16.43200
359.4297, 16.27548
359.9118, 15.91462
360.3939, 15.58702
360.8760, 15.49764
361.3581, 15.60489
361.8402, 15.72105
362.3224, 15.87490
362.8045, 15.90588
363.2866, 15.54392
363.7687, 14.83933
364.2509, 14.29645
364.7330, 14.19467
365.2151, 14.35290
365.6972, 14.48825
366.1793, 14.58034
366.6614, 14.63169
367.1436, 14.61716
367.6257, 14.56142
368.1078, 14.54239
368.5899, 14.66240
369.0720, 14.74560
369.5541, 14.59833
370.0363, 14.25650
370.5184, 13.96790
371.0005, 13.87396
371.4826, 13.88106
371.9647, 13.74748
372.4468, 13.36395
372.9290, 13.12580
373.4111, 13.32859
373.8932, 13.75512
374.3753, 14.00270
374.8574, 13.95957
375.3395, 13.76703
375.8217, 13.57983
376.3038, 13.39646
376.7859, 13.23532
377.2680, 13.05810
377.7501, 12.93117
378.2322, 12.98136
378.7144, 13.18182
379.1965, 13.28640
379.6786, 13.07895
380.1607, 12.59796
380.6428, 12.30035
381.1249, 12.28504
381.6071, 12.31541
382.0892, 12.33868
382.5713, 12.34532
383.0534, 12.31165
383.5355, 12.22340
384.0176, 12.11908
384.4998, 12.08259
384.9819, 12.16826
385.4640, 12.23734
385.9461, 12.31112
386.4282, 12.35219
386.9103, 12.29809
387.3925, 12.15610
387.8746, 12.02008
388.3567, 11.99789
388.8388, 12.11220
389.3209, 12.17657
389.8030, 12.18409
390.2852, 12.15844
390.7673, 12.11291
391.2494, 12.04067
391.7315, 11.91481
392.2136, 11.71430
392.6957, 11.47057
393.1779, 11.30734
393.6600, 11.25425
394.1421, 11.24998
394.6242, 11.33468
395.1063, 11.43569
395.5884, 11.50622
396.0706, 11.52753
396.5527, 11.47918
397.0348, 11.28041
397.5169, 10.82812
397.9990, 10.64262
398.4811, 11.03091
398.9633, 11.41450
399.4454, 11.58164
399.9275, 11.55204
400.4096, 11.42358
400.8917, 11.23204
401.3738, 11.00940
401.8560, 10.90430
402.3381, 10.98294
402.8202, 11.05600
403.3023, 11.04926
403.7844, 11.01674
404.2665, 11.03425
404.7487, 11.13048
405.2308, 11.20066
405.7129, 11.09377
406.1950, 10.79874
406.6771, 10.51560
407.1592, 10.21398
407.6414, 10.01094
408.1235, 10.04702
408.6056, 10.27658
409.0877, 10.45270
409.5698, 10.33326
410.0519, 10.07446
410.5341, 10.10695
411.0162, 10.53590
411.4983, 10.88492
411.9804, 10.74467
412.4626, 10.35883
412.9447, 10.13546
413.4268, 10.20488
413.9089, 10.33669
414.3910, 10.35373
414.8731, 10.27526
415.3553, 10.18968
415.8374, 10.11702
416.3195, 10.06250
416.8016, 10.04846
417.2837, 10.07961
417.7658, 10.07726
418.2480, 9.984548
418.7301, 9.866574
419.2122, 9.803077
419.6943, 9.800823
420.1764, 9.803386
420.6585, 9.750421
421.1407, 9.658068
421.6228, 9.684109
422.1049, 9.975392
422.5870, 10.21294
423.0691, 10.22940
423.5512, 10.11217
424.0334, 10.02250
424.5155, 10.02540
424.9976, 10.07589
425.4797, 10.09428
425.9618, 10.09295
426.4439, 10.02365
426.9261, 9.814703
427.4082, 9.595455
427.8903, 9.442048
428.3724, 9.365083
428.8545, 9.356294
429.3366, 9.419725
429.8188, 9.549535
430.3009, 9.608135
430.7830, 9.535310
431.2651, 9.452525
431.7472, 9.334715
432.2293, 9.234020
432.7115, 9.233071
433.1936, 9.358805
433.6757, 9.523478
434.1578, 9.580271
434.6399, 9.502977
435.1220, 9.410252
435.6042, 9.214252
436.0863, 9.087950
436.5684, 9.151359
437.0505, 9.367910
437.5326, 9.609726
438.0147, 9.819712
438.4969, 9.978634
438.9790, 9.998348
439.4611, 9.822631
439.9432, 9.649400
440.4253, 9.575278
440.9074, 9.538762
441.3896, 9.472585
441.8717, 9.356562
442.3538, 9.245605
442.8359, 9.186719
443.3180, 9.175445
443.8001, 9.192251
444.2823, 9.244162
444.7644, 9.303985
445.2465, 9.363797
445.7286, 9.417314
446.2107, 9.416276
446.6928, 9.288540
447.1750, 9.140059
447.6571, 9.082042
448.1392, 9.110235
448.6213, 9.165043
449.1034, 9.227092
449.5855, 9.284460
450.0677, 9.302668
450.5498, 9.277356
451.0319, 9.232191
451.5140, 9.165571
451.9961, 9.085567
452.4782, 8.980807
452.9604, 8.855524
453.4425, 8.778683
453.9246, 8.840131
454.4067, 9.065836
454.8888, 9.147333
455.3709, 8.955539
455.8531, 8.786409
456.3352, 8.777358
456.8173, 8.857766
457.2994, 8.889438
457.7815, 8.807881
458.2636, 8.682851
458.7458, 8.668074
459.2279, 8.836028
459.7100, 8.964803
460.1921, 9.053339
460.6742, 9.102344
461.1564, 9.099882
461.6385, 9.055187
462.1206, 8.989996
462.6027, 8.898943
463.0848, 8.805480
463.5670, 8.852779
464.0491, 9.135014
464.5312, 9.365248
465.0133, 9.470991
465.4954, 9.468341
465.9775, 9.334729
466.4597, 9.054342
466.9418, 8.773860
467.4239, 8.630014
467.9060, 8.609167
468.3881, 8.623077
468.8702, 8.674429
469.3524, 8.728993
469.8345, 8.766277
470.3166, 8.785491
470.7987, 8.776893
471.2808, 8.656360
471.7629, 8.570743
472.2451, 8.718445
472.7272, 9.045259
473.2093, 9.270956
473.6914, 9.271516
474.1735, 9.123296
474.6556, 8.944299
475.1378, 8.695969
475.6199, 8.546660
476.1020, 8.597355
476.5841, 8.705151
477.0662, 8.747739
477.5483, 8.717365
478.0305, 8.663932
478.5126, 8.618975
478.9947, 8.586700
479.4768, 8.606472
479.9589, 8.712847
480.4410, 8.830812
480.9232, 9.004544
481.4053, 9.157567
481.8874, 9.172814
482.3695, 9.040570
482.8516, 8.906780
483.3337, 8.981052
483.8159, 9.307224
484.2980, 9.464347
484.7801, 9.314692
485.2622, 9.142710
485.7443, 9.047643
486.2264, 8.996059
486.7086, 8.930004
487.1907, 8.825815
487.6728, 8.695910
488.1549, 8.510556
488.6370, 8.256880
489.1191, 8.190581
489.6013, 8.518903
490.0834, 8.883055
490.5655, 8.946074
491.0476, 8.745966
491.5297, 8.542241
492.0118, 8.385718
492.4940, 8.311447
492.9761, 8.440490
493.4582, 8.757448
493.9403, 8.945462
494.4224, 8.799427
494.9045, 8.460447
495.3867, 8.295890
495.8688, 8.364722
496.3509, 8.420910
496.8330, 8.360278
497.3151, 8.286152
497.7972, 8.340335
498.2794, 8.520592
498.7615, 8.678774
499.2436, 8.678523
499.7257, 8.531734
500.2078, 8.456991
500.6899, 8.497464
501.1721, 8.558497
501.6542, 8.667636
502.1363, 8.769058
502.6184, 8.793306
503.1005, 8.727473
503.5826, 8.631021
504.0648, 8.579411
504.5469, 8.578800
505.0290, 8.557155
505.5111, 8.449238
505.9932, 8.405416
506.4753, 8.551902
506.9575, 8.778788
507.4396, 8.901805
507.9217, 8.835147
508.4038, 8.706579
508.8859, 8.668076
509.3680, 8.715552
509.8502, 8.786061
510.3323, 8.901081
510.8144, 8.978987
511.2965, 8.915450
511.7787, 8.735159
512.2607, 8.559230
512.7429, 8.404658
513.2250, 8.276788
513.7071, 8.187810
514.1892, 8.131115
514.6713, 8.067989
515.1534, 7.971204
515.6356, 7.888633
516.1177, 7.924823
516.5998, 8.177149
517.0819, 8.329498
517.5640, 8.287658
518.0461, 8.214118
518.5283, 8.215054
519.0104, 8.286393
519.4925, 8.385988
519.9746, 8.493837
520.4567, 8.587330
520.9388, 8.574999
521.4210, 8.392261
521.9031, 8.221646
522.3852, 8.055875
522.8673, 7.928758
523.3494, 7.847670
523.8315, 7.823420
524.3137, 7.895866
524.7958, 8.180056
525.2779, 8.574387
525.7600, 8.686677
526.2421, 8.447605
526.7242, 8.183252
527.2064, 7.964127
527.6885, 7.841393
528.1706, 7.913644
528.6527, 8.228942
529.1348, 8.508188
529.6169, 8.597792
530.0991, 8.564617
530.5812, 8.505629
531.0633, 8.433621
531.5454, 8.356645
532.0275, 8.279924
532.5096, 8.203219
532.9918, 8.126498
533.4739, 8.029387
533.9560, 7.958331
534.4381, 7.945322
534.9202, 7.951125
535.4024, 7.927202
535.8845, 7.868318
536.3666, 7.809837
536.8488, 7.786486
537.3309, 7.798095
537.8130, 7.830719
538.2951, 7.926072
538.7772, 7.986350
539.2593, 7.958241
539.7415, 7.901939
540.2236, 7.877040
540.7057, 7.899587
541.1878, 7.955499
541.6699, 8.060445
542.1520, 8.198773
542.6342, 8.250781
543.1163, 8.179667
543.5984, 8.091017
544.0805, 8.030478
544.5626, 8.004299
545.0447, 8.042875
545.5269, 8.218669
546.0090, 8.328430
546.4911, 8.188984
546.9732, 7.915625
547.4553, 7.726137
547.9374, 7.666196
548.4196, 7.683710
548.9017, 7.743840
549.3838, 7.849026
549.8659, 7.885562
550.3480, 7.743033
550.8301, 7.675602
551.3123, 7.832748
551.7944, 8.068059
552.2765, 8.203360
552.7586, 8.191164
553.2407, 8.100954
553.7228, 7.995951
554.2050, 7.871161
554.6871, 7.829171
555.1692, 7.937685
555.6513, 8.034537
556.1334, 8.055452
556.6155, 8.034450
557.0977, 8.015545
557.5798, 8.011097
558.0619, 8.003268
558.5440, 7.983209
559.0261, 7.947404
559.5082, 7.850019
559.9904, 7.652303
560.4725, 7.546048
560.9546, 7.742349
561.4367, 8.167121
561.9188, 8.423335
562.4009, 8.411830
562.8831, 8.350698
563.3652, 8.292173
563.8473, 8.243978
564.3294, 8.211841
564.8115, 8.198870
565.2936, 8.223203
565.7758, 8.319310
566.2579, 8.488178
566.7400, 8.519046
567.2221, 8.244521
567.7042, 8.029548
568.1863, 7.922372
568.6685, 7.910301
569.1506, 8.032188
569.6327, 8.273466
570.1148, 8.471190
570.5969, 8.410501
571.0790, 8.144901
571.5612, 8.038137
572.0433, 8.162212
572.5254, 8.245901
573.0075, 8.059867
573.4896, 7.790043
573.9717, 7.729814
574.4539, 7.956475
574.9360, 8.194840
575.4181, 8.295354
575.9002, 8.339211
576.3823, 8.468234
576.8644, 8.685941
577.3466, 8.844312
577.8287, 8.832758
578.3108, 8.680552
578.7929, 8.531264
579.2750, 8.320566
579.7571, 8.200567
580.2393, 8.259635
580.7214, 8.353305
581.2035, 8.353786
581.6856, 8.269490
582.1677, 8.205485
582.6498, 8.245652
583.1320, 8.360799
583.6141, 8.451006
584.0962, 8.511317
584.5783, 8.566317
585.0604, 8.661448
585.5425, 8.720808
586.0247, 8.637889
586.5068, 8.427838
586.9889, 8.292889
587.4710, 8.355959
587.9531, 8.516468
588.4352, 8.710947
588.9174, 8.914486
589.3995, 8.985515
589.8816, 8.834335
590.3637, 8.604507
590.8458, 8.551364
591.3279, 8.765874
591.8101, 8.905219
592.2922, 8.926669
592.7743, 8.916860
593.2564, 8.907747
593.7385, 8.904107
594.2206, 8.918605
594.7028, 8.957650
595.1849, 8.976710
595.6670, 8.851834
596.1491, 8.535254
596.6312, 8.449725
597.1133, 8.832684
597.5955, 9.175059
598.0776, 9.108274
598.5597, 8.829785
599.0418, 8.734827
599.5239, 9.002568
600.0060, 9.302197
600.4882, 9.386032
600.9703, 9.300515
601.4524, 9.124523
601.9345, 8.867748
602.4166, 8.645011
602.8987, 8.561991
603.3809, 8.610290
603.8630, 8.673342
604.3451, 8.743313
604.8272, 8.835914
605.3093, 9.007475
605.7914, 9.169906
606.2736, 9.227358
606.7557, 9.176117
607.2378, 9.089601
607.7199, 9.024087
608.2020, 8.977731
608.6841, 8.946956
609.1663, 8.943805
609.6484, 8.920667
610.1305, 8.819807
610.6126, 8.725343
611.0947, 8.716743
611.5768, 8.793852
612.0590, 8.884322
612.5411, 8.980932
613.0232, 9.059752
613.5053, 9.124523
613.9874, 9.156235
614.4695, 9.028720
614.9517, 8.653638
615.4338, 8.252700
615.9159, 8.217037
616.3980, 8.732807
616.8801, 8.972658
617.3622, 8.727362
617.8444, 8.463105
618.3265, 8.356506
618.8086, 8.368561
619.2907, 8.437688
619.7728, 8.539127
620.2549, 8.627371
620.7371, 8.632062
621.2192, 8.557037
621.7013, 8.513041
622.1834, 8.539648
622.6655, 8.517980
623.1476, 8.286272
623.6298, 7.992281
624.1119, 7.900243
624.5940, 8.100567
625.0761, 8.292624
625.5582, 8.310170
626.0403, 8.260026
626.5225, 8.302042
627.0046, 8.429590
627.4867, 8.477133
627.9688, 8.317445
628.4509, 8.050813
628.9330, 8.018013
629.4152, 8.442415
629.8973, 8.693521
630.3794, 8.731228
630.8615, 8.636554
631.3436, 8.362084
631.8257, 7.997049
632.3079, 7.732798
632.7900, 7.668656
633.2721, 7.722013
633.7542, 7.814290
634.2364, 7.935810
634.7185, 7.988212
635.2006, 7.939157
635.6827, 7.856025
636.1649, 7.773871
636.6470, 7.703941
637.1291, 7.708666
637.6112, 7.852950
638.0933, 7.993657
638.5754, 8.117172
639.0576, 8.194354
639.5397, 8.173795
640.0218, 8.061195
640.5039, 7.920496
640.9860, 7.793299
641.4681, 7.690811
641.9503, 7.677182
642.4324, 7.801430
642.9145, 7.891324
643.3966, 7.872834
643.8787, 7.837649
644.3608, 7.848308
644.8430, 7.899406
645.3251, 7.948684
645.8072, 7.983927
646.2893, 8.005066
646.7714, 8.001348
647.2535, 7.982528
647.7357, 8.003238
648.2178, 8.086087
648.6999, 8.115313
649.1820, 7.929739
649.6641, 7.508510
650.1462, 7.300631
650.6284, 7.532701
651.1105, 7.683599
651.5926, 7.594036
652.0747, 7.407944
652.5568, 7.242300
653.0389, 7.130051
653.5211, 7.085778
654.0032, 7.128486
654.4853, 7.244268
654.9674, 7.429673
655.4495, 7.699687
655.9316, 7.859927
656.4138, 7.807023
656.8959, 7.662451
657.3780, 7.575869
657.8601, 7.544930
658.3422, 7.517989
658.8243, 7.502769
659.3065, 7.475241
659.7886, 7.395406
660.2707, 7.302933
660.7528, 7.265170
661.2349, 7.300009
661.7170, 7.370021
662.1992, 7.441257
662.6813, 7.512077
663.1634, 7.540966
663.6455, 7.515046
664.1276, 7.472560
664.6097, 7.400629
665.0919, 7.333575
665.5740, 7.293482
666.0561, 7.283407
666.5382, 7.321113
667.0203, 7.483584
667.5024, 7.646290
667.9846, 7.670609
668.4667, 7.578224
668.9488, 7.431330
669.4309, 7.246472
669.9130, 7.100441
670.3951, 7.110776
670.8773, 7.308516
671.3594, 7.409690
671.8415, 7.274458
672.3236, 7.207082
672.8057, 7.335435
673.2878, 7.526177
673.7700, 7.673853
674.2521, 7.746058
674.7342, 7.698048
675.2163, 7.341158
675.6984, 6.895286
676.1805, 6.888422
676.6627, 7.303148
677.1448, 7.628646
677.6269, 7.660767
678.1090, 7.556849
678.5911, 7.529108
679.0732, 7.595671
679.5554, 7.639230
680.0375, 7.604693
680.5196, 7.610957
681.0017, 7.749426
681.4838, 7.931430
681.9659, 8.057446
682.4481, 8.098728
682.9302, 8.062969
683.4123, 7.906303
683.8944, 7.687168
684.3765, 7.666511
684.8586, 7.881401
685.3408, 8.079846
685.8229, 8.189567
686.3050, 8.230763
686.7871, 8.171478
687.2692, 8.014523
687.7513, 8.022214
688.2335, 8.464134
688.7156, 8.835695
689.1977, 8.779004
689.6798, 8.506124
690.1619, 8.341234
690.6440, 8.367107
691.1262, 8.481061
691.6083, 8.588428
692.0904, 8.691824
692.5725, 8.814426
693.0546, 8.968979
693.5367, 9.105357
694.0189, 9.229033
694.5010, 9.310479
694.9831, 9.280518
695.4652, 9.162837
695.9473, 9.142609
696.4294, 9.326794
696.9116, 9.572857
697.3937, 9.822050
697.8758, 10.05307
698.3579, 10.22102
698.8400, 10.31923
699.3221, 10.38287
699.8043, 10.42861
700.2864, 10.47491
700.7685, 10.67750
701.2506, 11.12823
701.7327, 11.53964
702.2148, 11.84510
702.6970, 12.09974
703.1791, 12.31929
703.6612, 12.51308
704.1433, 12.71197
704.6254, 12.90580
705.1075, 13.13425
705.5897, 13.45631
706.0718, 13.83031
706.5539, 14.15646
707.0360, 14.42072
707.5181, 14.68160
708.0002, 14.97441
708.4824, 15.31973
708.9645, 15.83329
709.4466, 16.62961
709.9287, 17.38116
710.4108, 17.99482
710.8929, 18.61947
711.3751, 19.40245
711.8572, 20.26275
712.3393, 20.93858
712.8214, 21.22561
713.3035, 21.60428
713.7856, 22.66040
714.2678, 24.06883
714.7499, 25.12422
715.2320, 25.74026
715.7141, 26.28260
716.1962, 26.97294
716.6783, 27.78739
717.1605, 28.66138
717.6426, 29.65574
718.1247, 30.58358
718.6068, 31.41790
719.0889, 32.21392
719.5710, 32.88042
720.0532, 33.56284
720.5353, 34.51966
721.0174, 35.84499
721.4995, 37.29928
721.9816, 38.80920
722.4637, 40.27877
722.9459, 41.53915
723.4280, 42.57911
723.9101, 43.36985
724.3922, 43.86299
724.8743, 44.24816
725.3564, 44.92802
725.8386, 46.14096
726.3207, 46.78961
726.8028, 46.61970
727.2849, 46.20044
727.7670, 45.60892
728.2491, 44.90941
728.7313, 44.23276
729.2134, 43.57842
729.6955, 42.65612
730.1776, 41.07760
730.6597, 39.20469
731.1418, 37.64399
731.6240, 36.34050
732.1061, 34.87870
732.5882, 33.10356
733.0704, 31.23939
733.5525, 29.53931
734.0346, 28.00351
734.5167, 26.63008
734.9988, 25.56811
735.4810, 24.47681
735.9631, 23.21015
736.4452, 21.97460
736.9273, 20.96806
737.4094, 20.17143
737.8915, 19.37429
738.3737, 18.43677
738.8558, 17.50397
739.3379, 16.70183
739.8200, 16.03228
740.3021, 15.52132
740.7842, 15.17271
741.2664, 14.85472
741.7485, 14.45461
742.2306, 14.00072
742.7127, 13.64279
743.1948, 13.49132
743.6769, 13.23255
744.1591, 12.77139
744.6412, 12.28417
745.1233, 11.83869
745.6054, 11.44198
746.0875, 11.10537
746.5696, 10.84995
747.0518, 10.58638
747.5339, 10.19914
748.0160, 9.781773
748.4981, 9.498708
748.9802, 9.353137
749.4623, 9.287770
749.9445, 9.284105
750.4266, 9.274214
750.9087, 9.115816
751.3908, 8.755291
751.8729, 8.502474
752.3550, 8.417301
752.8372, 8.361138
753.3193, 8.326573
753.8014, 8.275256
754.2835, 8.156534
754.7656, 7.965636
755.2477, 7.768144
755.7299, 7.543447
756.2120, 7.368476
756.6941, 7.379305
757.1762, 7.490547
757.6583, 7.476373
758.1404, 7.281631
758.6226, 7.060556
759.1047, 6.966628
759.5868, 6.980773
760.0689, 6.964718
760.5510, 6.893586
761.0331, 6.861659
761.5153, 6.945572
761.9974, 7.013324
762.4795, 6.941967
762.9616, 6.776703
763.4437, 6.668154
763.9258, 6.689301
764.4080, 6.695726
764.8901, 6.567797
765.3722, 6.420716
765.8543, 6.413857
766.3364, 6.523097
766.8185, 6.594824
767.3007, 6.542673
767.7828, 6.448112
768.2649, 6.479752
768.7470, 6.645967
769.2291, 6.687597
769.7112, 6.542715
770.1934, 6.407437
770.6755, 6.352450
771.1576, 6.378535
771.6397, 6.511121
772.1218, 6.776055
772.6039, 6.961881
773.0861, 6.985885
773.5682, 6.975765
774.0503, 7.007545
774.5324, 7.043592
775.0145, 7.015094
775.4966, 6.915969
775.9788, 6.810143
776.4609, 6.741838
776.9430, 6.712265
777.4251, 6.748038
777.9072, 6.846248
778.3893, 6.868489
778.8715, 6.754466
779.3536, 6.669713
779.8357, 6.789592
780.3178, 7.069420
780.7999, 7.201530
781.2820, 7.030653
781.7642, 6.939764
782.2463, 7.006823
782.7284, 7.102975
783.2105, 7.191195
783.6926, 7.236506
784.1747, 7.156561
784.6569, 6.904541
785.1390, 6.687018
785.6211, 6.758781
786.1032, 6.965808
786.5853, 6.980747
787.0674, 6.814569
787.5496, 6.698444
788.0317, 6.736969
788.5138, 6.829706
788.9959, 6.824982
789.4780, 6.709880
789.9601, 6.687401
790.4423, 6.837102
790.9244, 6.951609
791.4065, 6.958470
791.8886, 6.931299
792.3707, 6.911510
792.8528, 6.907555
793.3350, 6.941136
793.8171, 7.027367
794.2992, 7.142267
794.7813, 7.358432
795.2634, 7.549376
795.7455, 7.479524
796.2277, 7.181006
796.7098, 6.911691
797.1919, 6.823214
797.6740, 6.880888
798.1561, 7.068569
798.6382, 7.396737
799.1204, 7.551469
799.6025, 7.461576
800.0846, 7.354067
800.5667, 7.341957
801.0488, 7.377965
801.5309, 7.365736
802.0131, 7.287448
802.4952, 7.276446
802.9773, 7.459632
803.4594, 7.579744
803.9415, 7.432481
804.4236, 7.215200
804.9058, 7.198558
805.3879, 7.391596
805.8700, 7.562311
806.3521, 7.549599
806.8342, 7.438191
807.3163, 7.322753
807.7985, 7.216774
808.2806, 7.195985
808.7627, 7.275629
809.2448, 7.348024
809.7269, 7.333647
810.2090, 7.260958
810.6912, 7.213206
811.1733, 7.175339
811.6554, 7.198828
812.1375, 7.370393
812.6196, 7.503238
813.1017, 7.475549
813.5839, 7.393712
814.0660, 7.414020
814.5481, 7.561203
815.0302, 7.679126
815.5123, 7.681664
815.9944, 7.648190
816.4766, 7.632173
816.9587, 7.629415
817.4408, 7.629109
817.9229, 7.628462
818.4050, 7.629204
818.8871, 7.632269
819.3693, 7.638677
819.8514, 7.655555
820.3335, 7.683932
820.8156, 7.689476
821.2977, 7.651781
821.7798, 7.639449
822.2620, 7.712997
822.7441, 7.839252
823.2262, 7.922214
823.7083, 7.958993
824.1904, 7.959514
824.6725, 7.891107
825.1547, 7.822854
825.6368, 7.782114
826.1189, 7.762446
826.6010, 7.751064
827.0831, 7.746381
827.5652, 7.760144
828.0474, 7.853416
828.5295, 7.927446
829.0116, 7.786461
829.4937, 7.539468
829.9758, 7.516701
830.4579, 7.768347
830.9401, 7.991807
831.4222, 7.941417
831.9044, 7.723847
832.3865, 7.677230
832.8686, 7.853990
833.3507, 7.936430
833.8328, 7.870477
834.3149, 7.761693
834.7971, 7.595854
835.2792, 7.458063
835.7613, 7.524800
836.2434, 7.846138
836.7255, 8.086692
837.2076, 8.153379
837.6898, 8.171748
838.1719, 8.204914
838.6540, 8.222701
839.1361, 8.143524
839.6182, 7.988819
840.1003, 7.924042
840.5825, 8.103591
841.0646, 8.340428
841.5467, 8.366575
842.0288, 8.236822
842.5109, 8.107615
842.9930, 8.004677
843.4752, 7.949353
843.9573, 7.956747
844.4394, 8.012180
844.9215, 8.084233
845.4036, 8.170477
845.8857, 8.298747
846.3679, 8.555993
846.8500, 8.700131
847.3321, 8.533846
847.8142, 8.287767
848.2963, 8.211101
848.7784, 8.299405
849.2606, 8.380297
849.7427, 8.381502
850.2248, 8.420128
850.7069, 8.611726
851.1890, 8.812710
851.6711, 8.839985
852.1533, 8.738130
852.6354, 8.697669
853.1175, 8.814578
853.5996, 8.993161
854.0817, 9.158030
854.5638, 9.293212
855.0460, 9.356032
855.5281, 9.344590
856.0102, 9.243009
856.4923, 9.033941
856.9744, 8.830212
857.4565, 8.781064
857.9387, 8.881239
858.4208, 8.980357
858.9029, 9.043955
859.3850, 9.194704
859.8671, 9.553599
860.3492, 9.898601
860.8314, 10.04744
861.3135, 10.05710
861.7956, 10.08375
862.2777, 10.16572
862.7598, 10.20821
863.2419, 10.12399
863.7241, 10.05406
864.2062, 10.10446
864.6883, 10.23265
865.1704, 10.37897
865.6525, 10.51941
866.1346, 10.60957
866.6168, 10.62003
867.0989, 10.55594
867.5810, 10.37425
868.0631, 10.12307
868.5452, 9.990015
869.0273, 10.00593
869.5095, 10.02546
869.9916, 9.939097
870.4737, 9.794329
870.9558, 9.712549
871.4379, 9.699586
871.9200, 9.726792
872.4022, 9.841473
872.8843, 9.889019
873.3664, 9.796764
873.8485, 9.604623
874.3306, 9.329037
874.8127, 8.961355
875.2949, 8.717658
875.7770, 8.685297
876.2591, 8.684406
876.7412, 8.656994
877.2233, 8.646601
877.7054, 8.729818
878.1876, 8.863173
878.6697, 8.902360
879.1518, 8.760280
879.6339, 8.652570
880.1160, 8.811299
880.5981, 9.070673
881.0803, 9.230590
881.5624, 9.278483
882.0445, 9.213620
882.5266, 9.042782
883.0087, 8.844580
883.4908, 8.687365
883.9730, 8.581013
884.4551, 8.588250
884.9372, 8.717041
885.4193, 8.818751
885.9014, 8.864194
886.3835, 8.892105
886.8657, 8.947033
887.3478, 8.988486
887.8299, 8.885219
888.3120, 8.495585
888.7941, 8.342835
889.2762, 8.628321
889.7584, 8.903743
890.2405, 9.062095
890.7226, 9.129043
891.2047, 9.121679
891.6868, 9.047425
892.1689, 8.938923
892.6511, 8.719973
893.1332, 8.584409
893.6153, 8.693671
894.0974, 8.889468
894.5795, 9.031450
895.0616, 9.102219
895.5438, 9.095012
896.0259, 9.007504
896.5080, 8.940036
896.9901, 9.025792
897.4722, 9.202017
897.9543, 9.334199
898.4365, 9.421276
898.9186, 9.464094
899.4007, 9.462056
899.8828, 9.463553
900.3649, 9.512558
900.8470, 9.596158
901.3292, 9.685287
901.8113, 9.804952
902.2934, 9.783614
902.7755, 9.520591
903.2576, 9.314384
903.7397, 9.348840
904.2219, 9.500588
904.7040, 9.573011
905.1861, 9.554059
905.6682, 9.543796
906.1503, 9.567093
906.6324, 9.568187
907.1146, 9.500333
907.5967, 9.433338
908.0788, 9.386179
908.5609, 9.391377
909.0430, 9.545400
909.5251, 9.929811
910.0073, 10.25511
910.4894, 10.34880
910.9715, 10.30639
911.4536, 10.16369
911.9357, 9.978030
912.4178, 9.844132
912.9000, 9.785586
913.3821, 9.766276
913.8642, 9.750614
914.3463, 9.765944
914.8284, 9.915540
915.3105, 10.14973
915.7927, 10.22201
916.2748, 10.10299
916.7569, 9.952172
917.2390, 9.849008
917.7211, 9.799519
918.2032, 9.810093
918.6854, 9.879955
919.1675, 10.05663
919.6496, 10.41025
920.1317, 10.64905
920.6138, 10.67127
921.0959, 10.59542
921.5781, 10.48394
922.0602, 10.35772
922.5423, 10.32723
923.0244, 10.52209
923.5065, 10.56712
923.9886, 10.23888
924.4708, 9.994943
924.9529, 10.09511
925.4350, 10.36048
925.9171, 10.58541
926.3992, 10.73911
926.8813, 10.84791
927.3635, 10.88378
927.8456, 10.92309
928.3277, 11.03940
928.8098, 11.16086
929.2919, 11.17655
929.7740, 11.12644
930.2562, 11.15696
930.7383, 11.32704
931.2205, 11.49552
931.7026, 11.47638
932.1847, 11.38600
932.6668, 11.46049
933.1489, 11.65935
933.6310, 11.83300
934.1132, 11.94414
934.5953, 11.98815
935.0774, 11.94874
935.5595, 11.89116
936.0416, 11.99835
936.5237, 12.27265
937.0059, 12.41868
937.4880, 12.39947
937.9701, 12.39063
938.4522, 12.46205
938.9343, 12.57231
939.4164, 12.67921
939.8986, 12.78173
940.3807, 12.86324
940.8628, 12.93773
941.3449, 12.96017
941.8270, 12.82083
942.3091, 12.75286
942.7913, 12.98145
943.2734, 13.31369
943.7555, 13.41614
944.2376, 13.23796
944.7197, 13.12671
945.2018, 13.07301
945.6840, 13.17867
946.1661, 13.65086
946.6482, 14.16298
947.1303, 14.41080
947.6124, 14.43284
948.0945, 14.41904
948.5767, 14.41780
949.0588, 14.46873
949.5409, 14.64799
950.0230, 14.84666
950.5051, 14.93386
950.9872, 14.96712
951.4694, 15.07856
951.9515, 15.28136
952.4336, 15.46784
952.9157, 15.56534
953.3978, 15.60698
953.8799, 15.60380
954.3621, 15.59058
954.8442, 15.68852
955.3263, 15.88547
955.8084, 16.02461
956.2905, 16.04364
956.7726, 16.06651
957.2548, 16.24895
957.7369, 16.54222
958.2190, 16.71077
958.7011, 16.74424
959.1832, 16.90108
959.6653, 17.25464
960.1475, 17.55405
960.6296, 17.63563
961.1117, 17.61336
961.5938, 17.69348
962.0759, 17.88326
962.5580, 18.11609
963.0402, 18.46315
963.5223, 18.69612
964.0044, 18.68357
964.4865, 18.64140
964.9686, 18.72553
965.4507, 18.90968
965.9329, 19.12393
966.4150, 19.43275
966.8971, 19.59639
967.3792, 19.43777
967.8613, 19.32767
968.3434, 19.45322
968.8256, 19.65294
969.3077, 19.71491
969.7898, 19.68411
970.2719, 19.84585
970.7540, 20.43445
971.2361, 20.88189
971.7183, 20.91695
972.2004, 20.75738
972.6825, 20.34014
973.1646, 19.95238
973.6467, 20.14631
974.1288, 20.92894
974.6110, 21.55594
975.0931, 21.52908
975.5752, 21.28010
976.0573, 21.05989
976.5394, 20.96174
977.0215, 21.25072
977.5037, 21.79009
977.9858, 22.10365
978.4679, 22.03225
978.9500, 21.88272
979.4321, 21.99789
979.9142, 22.19337
980.3964, 21.98516
980.8785, 21.53424
981.3606, 21.48881
981.8427, 21.90391
982.3248, 22.32186
982.8069, 22.50186
983.2891, 22.50772
983.7712, 22.37885
984.2533, 22.15426
984.7354, 22.15214
985.2175, 22.38070
985.6996, 22.54874
986.1818, 22.59809
986.6639, 22.54528
987.1460, 22.38627
987.6281, 22.16712
988.1102, 21.97592
988.5923, 21.79501
989.0745, 21.79934
989.5566, 22.08980
990.0387, 22.26043
990.5208, 22.15997
991.0029, 21.96669
991.4850, 21.78120
991.9672, 21.64307
992.4493, 21.72746
992.9314, 22.24211
993.4135, 22.47486
993.8956, 22.15204
994.3777, 21.91433
994.8599, 22.06103
995.3420, 22.30347
995.8241, 22.35719
996.3062, 22.25718
996.7883, 22.23466
997.2704, 22.36506
997.7526, 22.47078
998.2347, 22.55599
998.7168, 22.57995
999.1989, 22.45762
999.6810, 22.30301
1000.163, 22.29173
1000.645, 22.40955
1001.127, 22.41870
1001.609, 22.10143
1002.092, 21.90157
1002.574, 22.08314
1003.056, 22.36682
1003.538, 22.60322
1004.020, 22.75464
1004.502, 22.75513
1004.984, 22.61476
1005.466, 22.51473
1005.949, 22.61420
1006.431, 22.69560
1006.913, 22.50933
1007.395, 22.28312
1007.877, 22.33606
1008.359, 22.57346
1008.841, 22.69834
1009.323, 22.62903
1009.805, 22.55035
1010.288, 22.62516
1010.770, 22.74049
1011.252, 22.75869
1011.734, 22.71906
1012.216, 22.62642
1012.698, 22.54211
1013.180, 22.71294
1013.662, 23.22348
1014.145, 23.69211
1014.627, 23.67255
1015.109, 23.39702
1015.591, 23.31421
1016.073, 23.37570
1016.555, 23.39859
1017.037, 23.37844
1017.519, 23.51311
1018.001, 23.90531
1018.484, 24.31398
1018.966, 24.40470
1019.448, 24.26168
1019.930, 24.14564
1020.412, 24.06703
1020.894, 24.16518
1021.376, 24.45928
1021.858, 24.66173
1022.341, 24.59742
1022.823, 24.41653
1023.305, 24.30685
1023.787, 24.29165
1024.269, 24.72075
1024.751, 25.63950
1025.233, 26.04820
1025.715, 25.66652
1026.198, 25.39558
1026.680, 25.85359
1027.162, 26.62393
1027.644, 26.88486
1028.126, 26.61970
1028.608, 26.65748
1029.090, 27.09474
1029.572, 27.34635
1030.054, 27.21502
1030.536, 27.08993
1031.019, 27.23251
1031.501, 27.56729
1031.983, 27.96657
1032.465, 28.46394
1032.947, 28.72544
1033.429, 28.64226
1033.911, 28.60986
1034.393, 28.72845
1034.876, 28.88656
1035.358, 28.97677
1035.840, 29.07193
1036.322, 29.38109
1036.804, 30.01165
1037.286, 30.33691
1037.768, 30.20932
1038.250, 30.03170
1038.733, 29.72641
1039.215, 29.59439
1039.697, 29.94555
1040.179, 30.60335
1040.661, 31.10824
1041.143, 31.38948
1041.625, 31.78544
1042.107, 32.54281
1042.589, 33.07534
1043.072, 33.16876
1043.554, 33.09841
1044.036, 32.96567
1044.518, 32.82840
1045.000, 32.81581
1045.482, 32.93757
1045.964, 33.16234
1046.446, 33.61837
1046.928, 34.00145
1047.411, 34.18590
1047.893, 34.31610
1048.375, 34.43265
1048.857, 34.59356
1049.339, 34.92691
1049.821, 35.46625
1050.303, 36.06727
1050.785, 36.96436
1051.268, 37.58216
1051.750, 37.43740
1052.232, 37.21537
1052.714, 37.51416
1053.196, 38.14302
1053.678, 38.58812
1054.160, 38.73096
1054.642, 38.99720
1055.125, 39.36659
1055.607, 40.02985
1056.089, 41.42805
1056.571, 42.81172
1057.053, 43.46502
1057.535, 43.65432
1058.017, 44.02005
1058.499, 44.68424
1058.981, 45.41216
1059.464, 45.95582
1059.946, 46.77329
1060.428, 48.28716
1060.910, 49.94423
1061.392, 51.26105
1061.874, 52.36805
1062.356, 53.69049
1062.838, 55.33030
1063.320, 56.65713
1063.803, 57.05130
1064.285, 57.59816
1064.767, 58.60495
1065.249, 60.12012
1065.731, 62.45867
1066.213, 65.22512
1066.695, 67.66412
1067.177, 69.62820
1067.660, 71.67277
1068.142, 73.90977
1068.624, 76.40679
1069.106, 79.31339
1069.588, 82.36459
1070.070, 85.18211
1070.552, 88.04993
1071.034, 91.56493
1071.516, 95.80357
1071.999, 100.2875
1072.481, 104.5090
1072.963, 109.3404
1073.445, 115.4647
1073.927, 122.1311
1074.409, 128.7700
1074.891, 135.4888
1075.373, 142.4636
1075.855, 149.7480
1076.338, 157.5226
1076.820, 165.8054
1077.302, 174.7648
1077.784, 184.8359
1078.266, 195.2169
1078.748, 205.1538
1079.230, 215.0594
1079.713, 225.2736
1080.195, 235.9967
1080.677, 247.7522
1081.159, 260.9112
1081.641, 274.6318
1082.123, 288.7638
1082.605, 302.9128
1083.087, 316.5609
1083.569, 330.0834
1084.052, 343.8531
1084.534, 358.0651
1085.016, 373.2925
1085.498, 390.5383
1085.980, 406.4017
1086.462, 420.2900
1086.944, 431.4023
1087.426, 438.7375
1087.908, 443.3712
1088.391, 446.6720
1088.873, 448.4932
1089.355, 447.8142
1089.837, 444.5157
1090.319, 437.9458
1090.801, 427.4577
1091.283, 414.0840
1091.765, 397.6320
1092.248, 379.1961
1092.730, 359.0759
1093.212, 337.9711
1093.694, 316.7897
1094.176, 295.6413
1094.658, 275.9239
1095.140, 258.9058
1095.622, 242.5784
1096.104, 225.7134
1096.587, 209.3373
1097.069, 194.2047
1097.551, 180.2907
1098.033, 167.3497
1098.515, 155.3317
1098.997, 144.5352
1099.479, 135.3201
1099.961, 126.9625
1100.443, 119.2873
1100.926, 112.2555
1101.408, 106.0116
1101.890, 100.3806
1102.372, 95.20393
1102.854, 90.46401
1103.336, 85.93914
1103.818, 81.54941
1104.300, 77.47182
1104.783, 73.76462
1105.265, 70.36256
1105.747, 67.29375
1106.229, 64.45087
1106.711, 61.65879
1107.193, 58.94313
1107.675, 56.56980
1108.157, 54.76583
1108.640, 52.90773
1109.122, 50.68789
1109.604, 48.68476
1110.086, 47.37590
1110.568, 46.17276
1111.050, 44.40673
1111.532, 42.25731
1112.014, 40.44799
1112.496, 39.13348
1112.979, 37.82019
1113.461, 36.47927
1113.943, 35.15810
1114.425, 33.81557
1114.907, 32.55302
1115.389, 31.49485
1115.871, 30.55209
1116.353, 29.49374
1116.835, 28.26343
1117.318, 27.26441
1117.800, 26.73842
1118.282, 25.98818
1118.764, 24.74408
1119.246, 23.50744
1119.728, 22.53528
1120.210, 21.74763
1120.692, 21.03943
1121.175, 20.40783
1121.657, 19.83190
1122.139, 19.32959
1122.621, 18.82860
1123.103, 18.35724
1123.585, 17.79316
1124.067, 17.03779
1124.549, 16.26050
1125.031, 15.64224
1125.514, 15.17151
1125.996, 14.80219
1126.478, 14.54617
1126.960, 14.34712
1127.442, 14.23545
1127.924, 14.01583
1128.406, 13.59340
1128.888, 13.19571
1129.370, 13.01013
1129.853, 12.95412
1130.335, 12.84451
1130.817, 12.68100
1131.299, 12.47606
1131.781, 12.22444
1132.263, 12.03802
1132.745, 11.94580
1133.227, 11.77298
1133.710, 11.40368
1134.192, 11.02324
1134.674, 10.93748
1135.156, 11.04520
1135.638, 10.87679
1136.120, 10.48387
1136.602, 10.28673
1137.084, 10.31667
1137.567, 10.35788
1138.049, 10.32375
1138.531, 10.23147
1139.013, 10.09428
1139.495, 9.917078
1139.977, 9.634182
1140.459, 9.339828
1140.941, 9.390908
1141.423, 9.687206
1141.906, 9.753902
1142.388, 9.505030
1142.870, 9.260376
1143.352, 9.221543
1143.834, 9.247329
1144.316, 9.216814
1144.798, 9.109563
1145.280, 8.802545
1145.762, 8.433612
1146.245, 8.280635
1146.727, 8.343405
1147.209, 8.492881
1147.691, 8.676586
1148.173, 8.768437
1148.655, 8.595636
1149.137, 8.377932
1149.619, 8.324821
1150.102, 8.319993
1150.584, 8.185195
1151.066, 8.007174
1151.548, 8.032248
1152.030, 8.269052
1152.512, 8.371890
1152.994, 8.086776
1153.476, 7.852015
1153.958, 7.964677
1154.441, 8.107787
1154.923, 8.069931
1155.405, 7.938669
1155.887, 7.794337
1156.369, 7.667520
1156.851, 7.627098
1157.333, 7.721044
1157.815, 7.761598
1158.297, 7.633064
1158.780, 7.547953
1159.262, 7.609649
1159.744, 7.701982
1160.226, 7.762706
1160.708, 7.787016
1161.190, 7.786779
1161.672, 7.767876
1162.154, 7.615399
1162.637, 7.125307
1163.119, 6.895167
1163.601, 7.116992
1164.083, 7.343760
1164.565, 7.412291
1165.047, 7.379512
1165.529, 7.284457
1166.011, 7.148449
1166.494, 7.058204
1166.976, 7.019063
1167.458, 6.998255
1167.940, 6.996456
1168.422, 7.007226
1168.904, 7.025880
1169.386, 7.080315
1169.868, 7.197769
1170.350, 7.326807
1170.833, 7.391513
1171.315, 7.388210
1171.797, 7.256331
1172.279, 7.014320
1172.761, 6.866568
1173.243, 6.834767
1173.725, 6.889307
1174.207, 7.014485
1174.689, 7.085969
1175.172, 6.964537
1175.654, 6.803175
1176.136, 6.935310
1176.618, 7.196443
1177.100, 7.166596
1177.582, 6.939674
1178.064, 6.832720
1178.547, 6.889201
1179.029, 6.961998
1179.511, 6.980927
1179.993, 6.969913
1180.475, 6.911061
1180.957, 6.872489
1181.439, 6.979884
1181.921, 7.103028
1182.403, 7.030324
1182.885, 6.851985
1183.368, 6.809974
1183.850, 6.941163
1184.332, 7.029621
1184.814, 6.967943
1185.296, 6.882459
1185.778, 6.838356
1186.260, 6.769678
1186.742, 6.555038
1187.225, 6.358991
1187.707, 6.422137
1188.189, 6.660121
1188.671, 6.723464
1189.153, 6.494678
1189.635, 6.423339
1190.117, 6.723603
1190.599, 6.898365
1191.082, 6.808247
1191.564, 6.668085
1192.046, 6.569328
1192.528, 6.510048
1193.010, 6.491300
1193.492, 6.510378
1193.974, 6.548402
1194.456, 6.613549
1194.938, 6.650674
1195.421, 6.650904
1195.903, 6.671346
1196.385, 6.739318
1196.867, 6.749046
1197.349, 6.611005
1197.831, 6.411830
1198.313, 6.299064
1198.795, 6.265882
1199.277, 6.301254
1199.760, 6.390305
1200.242, 6.455154
1200.724, 6.488505
1201.206, 6.513578
1201.688, 6.540538
1202.170, 6.582054
1202.652, 6.664388
1203.134, 6.724942
1203.617, 6.689218
1204.099, 6.578892
1204.581, 6.334523
1205.063, 6.083340
1205.545, 6.118189
1206.027, 6.379438
1206.509, 6.480876
1206.991, 6.265648
1207.474, 6.125526
1207.956, 6.362391
1208.438, 6.604016
1208.920, 6.639841
1209.402, 6.622796
1209.884, 6.679245
1210.366, 6.763176
1210.848, 6.796513
1211.330, 6.775209
1211.813, 6.727601
1212.295, 6.617039
1212.777, 6.562576
1213.259, 6.648531
1213.741, 6.651403
1214.223, 6.446651
1214.705, 6.253066
1215.187, 6.228022
1215.669, 6.303739
1216.152, 6.376188
1216.634, 6.438097
1217.116, 6.298412
1217.598, 5.915847
1218.080, 5.913580
1218.562, 6.375103
1219.044, 6.723209
1219.526, 6.755774
1220.009, 6.682194
1220.491, 6.669531
1220.973, 6.669161
1221.455, 6.575706
1221.937, 6.438833
1222.419, 6.404703
1222.901, 6.430588
1223.383, 6.376620
1223.865, 6.259055
1224.348, 6.231842
1224.830, 6.336985
1225.312, 6.393600
1225.794, 6.223889
1226.276, 6.068427
1226.758, 6.142388
1227.240, 6.279696
1227.722, 6.372130
1228.204, 6.409256
1228.687, 6.346462
1229.169, 6.231204
1229.651, 6.212678
1230.133, 6.330753
1230.615, 6.472311
1231.097, 6.694655
1231.579, 6.823355
1232.061, 6.806121
1232.544, 6.707859
1233.026, 6.509940
1233.508, 6.293929
1233.990, 6.116932
1234.472, 6.013377
1234.954, 6.172465
1235.436, 6.665404
1235.918, 6.922107
1236.401, 6.928541
1236.883, 6.820868
1237.365, 6.618777
1237.847, 6.512292
1238.329, 6.607996
1238.811, 6.733842
1239.293, 6.695715
1239.775, 6.544862
1240.257, 6.315761
1240.740, 6.089623
1241.222, 6.081262
1241.704, 6.237213
1242.186, 6.427717
1242.668, 6.593176
1243.150, 6.637579
1243.632, 6.514241
1244.114, 6.337700
1244.596, 6.078852
1245.079, 5.924260
1245.561, 6.086798
1246.043, 6.309960
1246.525, 6.403189
1247.007, 6.394656
1247.489, 6.330852
1247.971, 6.225803
1248.453, 6.117235
1248.936, 5.920266
1249.418, 5.960559
1249.900, 6.467396
1250.382, 6.764828
1250.864, 6.663606
1251.346, 6.427272
1251.828, 6.145891
1252.310, 5.944213
1252.792, 6.013748
1253.275, 6.275229
1253.757, 6.416880
1254.239, 6.440733
1254.721, 6.326143
1255.203, 6.099691
1255.685, 5.988309
1256.167, 6.030324
1256.649, 6.101861
1257.131, 6.139102
1257.614, 6.100692
1258.096, 5.856980
1258.578, 5.627964
1259.060, 5.730437
1259.542, 5.947214
1260.024, 6.018128
1260.506, 5.997188
1260.988, 6.012331
1261.471, 6.070455
1261.953, 6.110938
1262.435, 6.124947
1262.917, 6.086877
1263.399, 5.914662
1263.881, 5.798997
1264.363, 5.799718
1264.845, 5.862075
1265.328, 5.994751
1265.810, 6.135337
1266.292, 6.224609
1266.774, 6.256946
1267.256, 6.181052
1267.738, 5.970980
1268.220, 5.961428
1268.702, 6.161464
1269.184, 6.258362
1269.667, 6.197907
1270.149, 6.116073
1270.631, 6.075457
1271.113, 6.063528
1271.595, 6.074996
1272.077, 6.090586
1272.559, 6.053131
1273.041, 6.023252
1273.523, 6.167264
1274.006, 6.345661
1274.488, 6.249640
1274.970, 5.956745
1275.452, 5.820372
1275.934, 5.935638
1276.416, 6.027640
1276.898, 5.938955
1277.380, 5.897131
1277.863, 6.009859
1278.345, 6.124804
1278.827, 6.140760
1279.309, 6.163166
1279.791, 6.335297
1280.273, 6.528817
1280.755, 6.423238
1281.237, 6.024327
1281.719, 5.864249
1282.202, 5.965942
1282.684, 5.944407
1283.166, 5.763848
1283.648, 5.680235
1284.130, 5.771383
##END=



