##NAMES=Stephanite
##RRUFFID=R050143
##IDEAL CHEMISTRY=Ag^1+^_5_Sb^3+^S^2-^_4_
##LOCALITY=Proano mine, Fresnillo, Zacatecas, Mexico
##OWNER=RRUFF
##SOURCE=Dave Bunk Minerals
##DESCRIPTION=Group of black pseudohexagonal crystals
##STATUS=The identification of this mineral has been confirmed by X-ray diffraction and chemical analysis
##URL=rruff.info/R050143
##MEASURED CHEMISTRY=Ag_5.00_Sb_1.00_S_4.00_
110.915, 934.734
111.397, 959.568
111.879, 985.572
112.362, 1030.424
112.844, 1106.106
113.326, 1184.336
113.808, 1248.017
114.290, 1308.355
114.772, 1399.393
115.254, 1564.218
115.736, 1743.493
116.218, 1898.651
116.701, 2022.655
117.183, 2118.840
117.665, 2186.353
118.147, 2225.548
118.629, 2242.908
119.111, 2230.929
119.593, 2200.997
120.075, 2166.815
120.558, 2129.470
121.040, 2092.037
121.522, 2051.893
122.004, 2006.923
122.486, 1976.003
122.968, 1990.224
123.450, 2029.733
123.932, 2052.896
124.414, 2019.386
124.897, 1962.767
125.379, 1926.419
125.861, 1919.694
126.343, 1925.241
126.825, 1925.639
127.307, 1921.926
127.789, 1919.494
128.271, 1925.683
128.753, 1936.241
129.236, 1938.220
129.718, 1921.374
130.200, 1901.617
130.682, 1915.255
131.164, 1963.088
131.646, 2016.010
132.128, 2045.926
132.610, 2055.093
133.093, 2065.791
133.575, 2086.710
134.057, 2114.412
134.539, 2131.695
135.021, 2135.644
135.503, 2138.589
135.985, 2160.072
136.467, 2202.982
136.949, 2239.549
137.432, 2255.747
137.914, 2250.136
138.396, 2254.195
138.878, 2271.406
139.360, 2294.367
139.842, 2308.494
140.324, 2311.846
140.806, 2311.421
141.288, 2311.236
141.771, 2313.501
142.253, 2310.491
142.735, 2316.714
143.217, 2320.695
143.699, 2322.556
144.181, 2315.945
144.663, 2320.273
145.145, 2321.229
145.628, 2324.158
146.110, 2333.902
146.592, 2341.992
147.074, 2348.518
147.556, 2348.789
148.038, 2357.135
148.520, 2362.991
149.002, 2381.121
149.484, 2388.803
149.967, 2388.947
150.449, 2376.989
150.931, 2348.253
151.413, 2334.584
151.895, 2352.074
152.377, 2379.011
152.859, 2391.872
153.342, 2368.048
153.824, 2349.694
154.306, 2352.090
154.788, 2387.872
155.270, 2407.966
155.752, 2388.720
156.234, 2352.788
156.716, 2337.019
157.198, 2370.360
157.680, 2409.090
158.163, 2433.738
158.645, 2433.303
159.127, 2434.136
159.609, 2448.080
160.091, 2468.948
160.573, 2480.596
161.055, 2465.575
161.538, 2446.338
162.020, 2437.111
162.502, 2444.753
162.984, 2458.205
163.466, 2479.253
163.948, 2504.848
164.430, 2520.599
164.912, 2511.065
165.394, 2492.157
165.876, 2478.217
166.359, 2472.062
166.841, 2473.573
167.323, 2485.626
167.805, 2507.602
168.287, 2530.432
168.769, 2548.246
169.251, 2563.632
169.733, 2580.063
170.216, 2596.069
170.698, 2615.512
171.180, 2644.105
171.662, 2682.653
172.144, 2720.031
172.626, 2744.129
173.108, 2761.555
173.590, 2784.672
174.072, 2813.082
174.555, 2852.939
175.037, 2912.922
175.519, 2994.657
176.001, 3090.654
176.483, 3189.010
176.965, 3294.641
177.447, 3419.189
177.929, 3560.898
178.412, 3727.177
178.894, 3935.358
179.376, 4191.909
179.858, 4470.629
180.340, 4744.103
180.822, 5011.042
181.304, 5280.508
181.786, 5544.748
182.268, 5811.805
182.751, 6095.085
183.233, 6391.296
183.715, 6709.368
184.197, 7045.645
184.679, 7404.894
185.161, 7812.689
185.643, 8322.736
186.125, 8903.791
186.607, 9501.381
187.090, 10179.710
187.572, 10788.440
188.054, 11029.550
188.536, 10898.300
189.018, 10467.440
189.500, 9672.078
189.982, 8574.808
190.464, 7528.790
190.947, 6608.610
191.429, 5811.118
191.911, 5168.223
192.393, 4687.011
192.875, 4314.292
193.357, 4005.781
193.839, 3761.834
194.321, 3569.629
194.803, 3433.739
195.286, 3345.992
195.768, 3256.769
196.250, 3163.865
196.732, 3077.727
197.214, 3010.770
197.696, 2964.031
198.178, 2925.240
198.661, 2891.152
199.143, 2861.651
199.625, 2834.259
200.107, 2807.698
200.589, 2785.504
201.071, 2776.036
201.553, 2782.209
202.035, 2782.635
202.517, 2762.818
202.999, 2720.923
203.482, 2704.300
203.964, 2719.988
204.446, 2750.419
204.928, 2767.880
205.410, 2771.242
205.892, 2765.548
206.374, 2747.621
206.857, 2713.054
207.339, 2698.438
207.821, 2711.252
208.303, 2736.742
208.785, 2742.047
209.267, 2719.215
209.749, 2699.011
210.231, 2698.017
210.713, 2721.878
211.195, 2738.960
211.678, 2748.096
212.160, 2750.465
212.642, 2750.400
213.124, 2751.660
213.606, 2742.169
214.088, 2708.902
214.570, 2637.522
215.052, 2596.072
215.535, 2597.408
216.017, 2627.318
216.499, 2638.610
216.981, 2624.179
217.463, 2604.765
217.945, 2590.669
218.427, 2580.761
218.909, 2580.417
219.391, 2594.246
219.874, 2617.490
220.356, 2629.657
220.838, 2624.826
221.320, 2618.246
221.802, 2619.477
222.284, 2631.173
222.766, 2644.518
223.248, 2660.393
223.731, 2677.762
224.213, 2688.187
224.695, 2684.347
225.177, 2684.248
225.659, 2702.041
226.141, 2748.510
226.623, 2788.639
227.105, 2818.969
227.587, 2839.842
228.070, 2853.069
228.552, 2852.377
229.034, 2851.812
229.516, 2860.884
229.998, 2879.564
230.480, 2908.297
230.962, 2950.348
231.444, 3003.974
231.926, 3049.278
232.409, 3073.615
232.891, 3103.716
233.373, 3163.544
233.855, 3271.383
234.337, 3371.724
234.819, 3448.849
235.301, 3506.120
235.783, 3588.031
236.266, 3690.673
236.748, 3822.327
237.230, 3990.297
237.712, 4205.147
238.194, 4439.321
238.676, 4685.048
239.158, 4941.193
239.640, 5241.375
240.122, 5597.023
240.605, 5984.649
241.087, 6382.233
241.569, 6788.106
242.051, 7216.374
242.533, 7675.918
243.015, 8162.576
243.497, 8648.630
243.980, 9113.970
244.462, 9599.790
244.944, 10144.260
245.426, 10761.110
245.908, 11409.760
246.390, 12081.380
246.872, 12778.610
247.354, 13525.850
247.836, 14370.060
248.318, 15207.380
248.801, 15962.390
249.283, 16710.980
249.765, 17226.590
250.247, 17501.260
250.729, 17534.480
251.211, 17158.461
251.693, 16272.620
252.176, 15105.610
252.658, 13831.850
253.140, 12340.590
253.622, 10973.980
254.104, 9779.251
254.586, 8751.984
255.068, 7868.488
255.550, 7148.234
256.032, 6548.448
256.514, 6040.199
256.997, 5639.772
257.479, 5291.001
257.961, 4983.929
258.443, 4717.285
258.925, 4489.894
259.407, 4312.497
259.889, 4160.018
260.371, 4005.087
260.854, 3835.437
261.336, 3694.773
261.818, 3596.528
262.300, 3539.348
262.782, 3474.456
263.264, 3398.045
263.746, 3321.649
264.228, 3258.202
264.711, 3210.674
265.193, 3165.290
265.675, 3119.041
266.157, 3072.538
266.639, 3028.797
267.121, 2989.556
267.603, 2950.639
268.085, 2904.169
268.567, 2845.063
269.050, 2801.046
269.532, 2783.073
270.014, 2786.680
270.496, 2775.054
270.978, 2742.829
271.460, 2707.301
271.942, 2684.503
272.424, 2678.083
272.906, 2665.964
273.389, 2641.757
273.871, 2608.479
274.353, 2581.230
274.835, 2558.878
275.317, 2545.794
275.799, 2550.377
276.281, 2575.760
276.763, 2592.747
277.246, 2596.441
277.728, 2587.947
278.210, 2566.292
278.692, 2526.459
279.174, 2492.828
279.656, 2493.804
280.138, 2531.486
280.620, 2548.146
281.103, 2527.458
281.585, 2483.689
282.067, 2461.605
282.549, 2463.328
283.031, 2473.030
283.513, 2480.852
283.995, 2486.797
284.477, 2489.426
284.959, 2487.010
285.441, 2482.737
285.924, 2485.111
286.406, 2494.524
286.888, 2505.104
287.370, 2513.008
287.852, 2518.425
288.334, 2523.811
288.816, 2530.673
289.298, 2535.966
289.781, 2532.485
290.263, 2520.392
290.745, 2506.976
291.227, 2497.591
291.709, 2491.061
292.191, 2481.569
292.673, 2467.216
293.155, 2452.157
293.638, 2443.112
294.120, 2439.746
294.602, 2438.479
295.084, 2443.370
295.566, 2448.972
296.048, 2436.468
296.530, 2399.752
297.012, 2358.877
297.494, 2343.226
297.977, 2348.060
298.459, 2352.327
298.941, 2342.144
299.423, 2324.085
299.905, 2309.548
300.387, 2299.196
300.869, 2293.028
301.351, 2289.301
301.833, 2289.282
302.316, 2296.700
302.798, 2325.269
303.280, 2357.708
303.762, 2368.621
304.244, 2354.769
304.726, 2333.703
305.208, 2314.923
305.690, 2300.387
306.173, 2293.871
306.655, 2308.395
307.137, 2325.499
307.619, 2321.663
308.101, 2295.439
308.583, 2274.537
309.065, 2291.531
309.547, 2324.156
310.030, 2339.723
310.512, 2302.109
310.994, 2259.766
311.476, 2253.606
311.958, 2282.857
312.440, 2308.054
312.922, 2300.766
313.404, 2280.255
313.886, 2267.709
314.369, 2276.659
314.851, 2289.582
315.333, 2299.948
315.815, 2307.488
316.297, 2311.198
316.779, 2310.961
317.261, 2306.582
317.743, 2297.558
318.225, 2267.112
318.708, 2249.955
319.190, 2269.715
319.672, 2316.842
320.154, 2348.133
320.636, 2333.212
321.118, 2310.524
321.600, 2303.320
322.082, 2330.906
322.565, 2352.683
323.047, 2359.370
323.529, 2354.326
324.011, 2347.654
324.493, 2338.056
324.975, 2329.297
325.457, 2323.083
325.939, 2321.029
326.422, 2318.814
326.904, 2311.342
327.386, 2303.790
327.868, 2307.129
328.350, 2303.189
328.832, 2313.788
329.314, 2320.857
329.796, 2324.587
330.278, 2314.976
330.760, 2322.592
331.243, 2323.304
331.725, 2323.734
332.207, 2333.774
332.689, 2326.104
333.171, 2335.992
333.653, 2337.587
334.135, 2359.625
334.617, 2360.182
335.100, 2370.996
335.582, 2379.319
336.064, 2385.287
336.546, 2381.841
337.028, 2390.551
337.510, 2394.390
337.992, 2400.640
338.474, 2417.147
338.957, 2434.033
339.439, 2432.986
339.921, 2410.236
340.403, 2393.635
340.885, 2388.458
341.367, 2392.551
341.849, 2397.131
342.331, 2401.010
342.813, 2411.834
343.296, 2444.670
343.778, 2497.792
344.260, 2522.384
344.742, 2504.399
345.224, 2468.180
345.706, 2465.763
346.188, 2496.630
346.670, 2527.203
347.152, 2536.257
347.635, 2528.362
348.117, 2517.861
348.599, 2503.721
349.081, 2494.857
349.563, 2508.450
350.045, 2539.567
350.527, 2568.028
351.009, 2583.987
351.491, 2590.305
351.974, 2589.307
352.456, 2580.404
352.938, 2572.162
353.420, 2577.693
353.902, 2589.363
354.384, 2592.343
354.866, 2586.252
355.349, 2612.225
355.831, 2630.413
356.313, 2641.237
356.795, 2622.637
357.277, 2642.032
357.759, 2646.200
358.241, 2657.907
358.723, 2658.040
359.205, 2688.823
359.688, 2712.167
360.170, 2728.470
360.652, 2716.647
361.134, 2740.650
361.616, 2753.313
362.098, 2770.526
362.580, 2794.981
363.062, 2825.784
363.544, 2866.979
364.027, 2914.161
364.509, 2958.356
364.991, 2994.598
365.473, 3029.775
365.955, 3065.126
366.437, 3098.385
366.919, 3139.384
367.401, 3141.399
367.884, 3127.756
368.366, 3163.255
368.848, 3186.825
369.330, 3199.107
369.812, 3166.293
370.294, 3191.711
370.776, 3193.792
371.258, 3194.918
371.741, 3228.532
372.223, 3223.936
372.705, 3178.859
373.187, 3130.913
373.669, 3063.996
374.151, 2982.199
374.633, 2916.447
375.115, 2869.057
375.597, 2831.660
376.079, 2792.609
376.562, 2743.512
377.044, 2711.226
377.526, 2702.390
378.008, 2687.865
378.490, 2667.952
378.972, 2626.522
379.454, 2612.877
379.936, 2588.094
380.419, 2568.827
380.901, 2529.092
381.383, 2477.738
381.865, 2427.651
382.347, 2393.338
382.829, 2374.781
383.311, 2374.370
383.793, 2410.263
384.276, 2459.733
384.758, 2468.054
385.240, 2434.485
385.722, 2398.542
386.204, 2402.099
386.686, 2427.689
387.168, 2438.459
387.650, 2413.781
388.132, 2381.459
388.615, 2371.016
389.097, 2378.443
389.579, 2386.396
390.061, 2384.700
390.543, 2378.183
391.025, 2370.031
391.507, 2357.950
391.989, 2351.651
392.471, 2362.958
392.954, 2383.400
393.436, 2396.582
393.918, 2391.216
394.400, 2381.368
394.882, 2372.481
395.364, 2364.473
395.846, 2361.311
396.328, 2370.820
396.810, 2382.835
397.293, 2386.710
397.775, 2369.299
398.257, 2355.802
398.739, 2351.396
399.221, 2356.084
399.703, 2363.705
400.185, 2378.349
400.668, 2392.226
401.150, 2400.725
401.632, 2401.908
402.114, 2400.655
402.596, 2394.001
403.078, 2385.773
403.560, 2388.812
404.042, 2410.270
404.524, 2427.635
405.007, 2428.434
405.489, 2409.065
405.971, 2402.567
406.453, 2414.115
406.935, 2429.011
407.417, 2422.402
407.899, 2392.318
408.381, 2371.809
408.863, 2374.323
409.346, 2393.917
409.828, 2409.664
410.310, 2421.821
410.792, 2427.598
411.274, 2411.144
411.756, 2436.782
412.238, 2452.204
412.720, 2457.956
413.203, 2425.081
413.685, 2442.085
414.167, 2439.101
414.649, 2435.296
415.131, 2459.321
415.613, 2432.063
416.095, 2455.647
416.577, 2458.936
417.060, 2471.513
417.542, 2463.978
418.024, 2462.654
418.506, 2481.450
418.988, 2466.728
419.470, 2465.084
419.952, 2451.248
420.434, 2426.160
420.916, 2416.001
421.398, 2445.731
421.881, 2484.290
422.363, 2509.302
422.845, 2501.905
423.327, 2497.594
423.809, 2504.089
424.291, 2517.836
424.773, 2527.111
425.255, 2520.589
425.738, 2520.329
426.220, 2536.853
426.702, 2580.273
427.184, 2608.661
427.666, 2616.052
428.148, 2613.325
428.630, 2614.734
429.112, 2621.705
429.595, 2628.041
430.077, 2628.816
430.559, 2626.390
431.041, 2644.550
431.523, 2688.932
432.005, 2735.194
432.487, 2755.591
432.969, 2752.277
433.451, 2775.857
433.934, 2834.635
434.416, 2864.209
434.898, 2955.224
435.380, 3031.327
435.862, 3093.313
436.344, 3098.916
436.826, 3177.341
437.308, 3226.577
437.790, 3290.257
438.273, 3339.515
438.755, 3403.905
439.237, 3480.755
439.719, 3564.411
440.201, 3658.367
440.683, 3754.205
441.165, 3846.305
441.647, 3935.039
442.129, 4022.839
442.612, 4113.047
443.094, 4200.270
443.576, 4279.281
444.058, 4341.742
444.540, 4409.842
445.022, 4498.868
445.504, 4595.988
445.987, 4677.725
446.469, 4750.203
446.951, 4798.540
447.433, 4818.579
447.915, 4810.313
448.397, 4776.655
448.879, 4708.197
449.361, 4622.757
449.843, 4534.715
450.326, 4444.086
450.808, 4349.269
451.290, 4251.043
451.772, 4148.428
452.254, 4039.625
452.736, 3923.031
453.218, 3808.709
453.700, 3700.378
454.182, 3598.971
454.665, 3505.609
455.147, 3421.237
455.629, 3344.297
456.111, 3274.769
456.593, 3212.609
457.075, 3156.171
457.557, 3108.074
458.039, 3063.555
458.522, 3011.303
459.004, 2952.901
459.486, 2906.339
459.968, 2894.658
460.450, 2896.471
460.932, 2886.771
461.414, 2859.878
461.896, 2824.579
462.379, 2774.579
462.861, 2721.374
463.343, 2685.639
463.825, 2694.087
464.307, 2704.633
464.789, 2693.588
465.271, 2658.819
465.753, 2639.281
466.235, 2660.839
466.717, 2689.437
467.200, 2701.223
467.682, 2679.101
468.164, 2660.568
468.646, 2649.353
469.128, 2641.989
469.610, 2628.413
470.092, 2602.172
470.574, 2581.479
471.057, 2574.474
471.539, 2582.259
472.021, 2589.336
472.503, 2596.665
472.985, 2601.133
473.467, 2599.747
473.949, 2592.492
474.431, 2578.698
474.914, 2555.355
475.396, 2528.466
475.878, 2510.696
476.360, 2501.615
476.842, 2497.906
477.324, 2500.294
477.806, 2505.983
478.288, 2511.063
478.770, 2515.599
479.253, 2516.918
479.735, 2510.695
480.217, 2500.264
480.699, 2490.661
481.181, 2481.182
481.663, 2475.404
482.145, 2477.096
482.627, 2484.931
483.109, 2491.657
483.592, 2493.142
484.074, 2493.730
484.556, 2497.385
485.038, 2513.235
485.520, 2513.665
486.002, 2473.731
486.484, 2424.958
486.966, 2409.476
487.448, 2448.611
487.931, 2487.458
488.413, 2516.932
488.895, 2537.073
489.377, 2544.927
489.859, 2537.922
490.341, 2525.176
490.823, 2510.954
491.306, 2495.175
491.788, 2483.967
492.270, 2477.428
492.752, 2476.708
493.234, 2488.824
493.716, 2511.211
494.198, 2526.555
494.680, 2527.363
495.162, 2516.230
495.645, 2492.478
496.127, 2457.079
496.609, 2425.648
497.091, 2410.545
497.573, 2404.865
498.055, 2399.670
498.537, 2390.636
499.019, 2387.531
499.501, 2398.900
499.984, 2419.348
500.466, 2439.726
500.948, 2465.925
501.430, 2483.110
501.912, 2482.798
502.394, 2463.661
502.876, 2447.554
503.358, 2442.088
503.841, 2435.474
504.323, 2419.742
504.805, 2385.220
505.287, 2360.889
505.769, 2349.760
506.251, 2347.823
506.733, 2345.975
507.215, 2342.142
507.698, 2347.732
508.180, 2373.632
508.662, 2413.679
509.144, 2426.015
509.626, 2408.373
510.108, 2388.203
510.590, 2395.610
511.072, 2420.635
511.554, 2431.153
512.036, 2418.711
512.519, 2399.063
513.001, 2385.676
513.483, 2378.323
513.965, 2376.430
514.447, 2387.022
514.929, 2397.387
515.411, 2397.628
515.893, 2387.817
516.375, 2377.718
516.858, 2370.076
517.340, 2364.188
517.822, 2359.652
518.304, 2357.721
518.786, 2355.030
519.268, 2343.374
519.750, 2332.755
520.232, 2340.985
520.715, 2383.804
521.197, 2419.818
521.679, 2438.762
522.161, 2441.217
522.643, 2436.054
523.125, 2420.735
523.607, 2405.630
524.089, 2398.989
524.571, 2400.542
525.054, 2402.904
525.536, 2405.445
526.018, 2408.454
526.500, 2413.624
526.982, 2419.921
527.464, 2423.601
527.946, 2426.195
528.429, 2423.223
528.911, 2403.064
529.393, 2369.092
529.875, 2342.397
530.357, 2339.616
530.839, 2347.439
531.321, 2356.997
531.803, 2370.395
532.286, 2375.076
532.768, 2358.350
533.250, 2333.359
533.732, 2317.231
534.214, 2308.135
534.696, 2313.453
535.178, 2344.213
535.660, 2393.869
536.142, 2418.739
536.625, 2408.245
537.107, 2392.189
537.589, 2385.202
538.071, 2388.630
538.553, 2391.685
539.035, 2395.280
539.517, 2395.988
539.999, 2387.480
540.481, 2370.994
540.964, 2356.060
541.446, 2342.891
541.928, 2335.538
542.410, 2343.364
542.892, 2363.773
543.374, 2386.159
543.856, 2409.623
544.338, 2429.199
544.820, 2439.857
545.303, 2440.979
545.785, 2437.034
546.267, 2429.027
546.749, 2417.472
547.231, 2402.698
547.713, 2377.801
548.195, 2358.286
548.677, 2348.407
549.159, 2345.233
549.642, 2341.922
550.124, 2335.172
550.606, 2333.777
551.088, 2343.135
551.570, 2362.855
552.052, 2370.063
552.534, 2360.913
553.016, 2350.725
553.499, 2355.263
553.981, 2372.673
554.463, 2379.877
554.945, 2374.199
555.427, 2349.677
555.909, 2371.907
556.391, 2382.788
556.873, 2382.930
557.356, 2340.172
557.838, 2352.812
558.320, 2343.249
558.802, 2332.778
559.284, 2353.214
559.766, 2316.696
560.248, 2336.642
560.730, 2334.049
561.213, 2326.230
561.695, 2330.809
562.177, 2321.833
562.659, 2312.218
563.141, 2315.415
563.623, 2344.226
564.105, 2363.867
564.587, 2366.127
565.069, 2358.190
565.552, 2363.504
566.034, 2386.961
566.516, 2403.722
566.998, 2401.712
567.480, 2383.355
567.962, 2359.647
568.444, 2329.966
568.926, 2307.151
569.408, 2304.736
569.891, 2317.560
570.373, 2337.326
570.855, 2366.330
571.337, 2390.096
571.819, 2388.116
572.301, 2374.103
572.783, 2371.414
573.265, 2413.671
573.747, 2445.712
574.230, 2432.470
574.712, 2381.180
575.194, 2347.329
575.676, 2351.783
576.158, 2365.253
576.640, 2377.719
577.122, 2391.368
577.604, 2394.052
578.086, 2380.763
578.569, 2363.683
579.051, 2353.552
579.533, 2350.277
580.015, 2358.378
580.497, 2383.450
580.979, 2412.467
581.461, 2419.362
581.943, 2406.126
582.426, 2386.507
582.908, 2359.440
583.390, 2333.564
583.872, 2319.603
584.354, 2317.418
584.836, 2324.521
585.318, 2350.417
585.800, 2378.019
586.282, 2392.694
586.765, 2386.743
587.247, 2382.001
587.729, 2385.732
588.211, 2392.985
588.693, 2397.682
589.175, 2398.753
589.657, 2398.540
590.140, 2397.058
590.622, 2394.559
591.104, 2391.234
591.586, 2386.205
592.068, 2383.844
592.550, 2389.644
593.032, 2401.049
593.514, 2396.417
593.996, 2374.917
594.479, 2354.472
594.961, 2350.330
595.443, 2358.363
595.925, 2374.018
596.407, 2401.217
596.889, 2419.480
597.371, 2401.579
597.853, 2367.194
598.335, 2345.685
598.818, 2362.760
599.300, 2378.085
599.782, 2374.237
600.264, 2355.718
600.746, 2346.389
601.228, 2352.834
601.710, 2362.937
602.192, 2374.827
602.674, 2389.558
603.157, 2390.523
603.639, 2370.418
604.121, 2354.047
604.603, 2372.959
605.085, 2423.884
605.567, 2444.589
606.049, 2422.551
606.531, 2385.986
607.013, 2367.956
607.496, 2365.177
607.978, 2369.708
608.460, 2387.795
608.942, 2402.948
609.424, 2393.242
609.906, 2367.477
610.388, 2355.662
610.870, 2389.116
611.353, 2423.185
611.835, 2432.437
612.317, 2409.468
612.799, 2399.474
613.281, 2414.253
613.763, 2432.725
614.245, 2440.722
614.727, 2436.495
615.209, 2426.126
615.692, 2405.247
616.174, 2386.509
616.656, 2393.271
617.138, 2424.023
617.620, 2451.172
618.102, 2467.741
618.584, 2475.412
619.067, 2471.557
619.549, 2459.354
620.031, 2451.386
620.513, 2455.848
620.995, 2466.483
621.477, 2450.451
621.959, 2471.137
622.441, 2482.910
622.923, 2486.250
623.406, 2455.894
623.888, 2469.048
624.370, 2464.765
624.852, 2459.768
625.334, 2479.046
625.816, 2469.774
626.298, 2473.206
626.780, 2471.559
627.263, 2472.072
627.745, 2478.101
628.227, 2484.488
628.709, 2475.892
629.191, 2454.775
629.673, 2439.862
630.155, 2449.364
630.637, 2465.760
631.119, 2462.585
631.602, 2445.779
632.084, 2461.088
632.566, 2468.601
633.048, 2468.738
633.530, 2439.405
634.012, 2448.126
634.494, 2441.597
634.976, 2434.442
635.458, 2448.520
635.941, 2437.627
636.423, 2468.499
636.905, 2479.793
637.387, 2456.216
637.869, 2420.681
638.351, 2422.992
638.833, 2465.028
639.315, 2493.092
639.797, 2483.876
640.280, 2454.336
640.762, 2435.571
641.244, 2427.018
641.726, 2426.494
642.208, 2441.341
642.690, 2457.849
643.172, 2459.233
643.654, 2444.250
644.137, 2439.265
644.619, 2473.701
645.101, 2509.546
645.583, 2519.227
646.065, 2478.271
646.547, 2452.048
647.029, 2444.922
647.511, 2449.148
647.994, 2456.759
648.476, 2468.297
648.958, 2480.313
649.440, 2493.790
649.922, 2504.790
650.404, 2500.998
650.886, 2484.931
651.368, 2473.788
651.851, 2484.001
652.333, 2498.251
652.815, 2487.716
653.297, 2458.674
653.779, 2444.613
654.261, 2482.169
654.743, 2525.607
655.225, 2545.332
655.707, 2534.658
656.190, 2523.553
656.672, 2512.644
657.154, 2505.025
657.636, 2502.747
658.118, 2506.341
658.600, 2515.719
659.082, 2535.439
659.564, 2552.780
660.046, 2544.017
660.529, 2511.853
661.011, 2487.270
661.493, 2477.924
661.975, 2480.014
662.457, 2496.159
662.939, 2520.285
663.421, 2535.260
663.903, 2527.956
664.385, 2513.094
664.868, 2491.818
665.350, 2467.506
665.832, 2460.645
666.314, 2502.139
666.796, 2538.150
667.278, 2542.330
667.760, 2508.374
668.242, 2490.994
668.724, 2494.275
669.207, 2505.938
669.689, 2517.296
670.171, 2528.299
670.653, 2541.803
671.135, 2559.316
671.617, 2573.245
672.099, 2570.033
672.581, 2557.159
673.064, 2550.223
673.546, 2554.242
674.028, 2564.854
674.510, 2587.803
674.992, 2614.554
675.474, 2628.095
675.956, 2612.517
676.438, 2596.370
676.920, 2587.143
677.403, 2583.626
677.885, 2580.503
678.367, 2577.902
678.849, 2575.555
679.331, 2572.290
679.813, 2568.766
680.295, 2570.296
680.778, 2576.760
681.260, 2588.884
681.742, 2617.489
682.224, 2649.140
682.706, 2653.460
683.188, 2624.856
683.670, 2598.452
684.152, 2600.797
684.634, 2615.300
685.117, 2626.077
685.599, 2630.623
686.081, 2630.072
686.563, 2615.800
687.045, 2600.629
687.527, 2600.718
688.009, 2621.036
688.491, 2645.760
688.973, 2678.528
689.456, 2708.147
689.938, 2696.213
690.420, 2646.104
690.902, 2614.168
691.384, 2637.278
691.866, 2683.042
692.348, 2702.152
692.830, 2700.575
693.312, 2704.716
693.795, 2741.167
694.277, 2778.032
694.759, 2792.933
695.241, 2783.350
695.723, 2775.216
696.205, 2770.947
696.687, 2769.951
697.169, 2772.398
697.652, 2779.021
698.134, 2785.580
698.616, 2791.828
699.098, 2798.905
699.580, 2811.143
700.062, 2826.326
700.544, 2830.435
701.026, 2818.539
701.508, 2807.175
701.991, 2818.500
702.473, 2840.748
702.955, 2854.907
703.437, 2843.787
703.919, 2837.487
704.401, 2818.367
704.883, 2831.447
705.365, 2836.711
705.847, 2834.579
706.330, 2802.896
706.812, 2809.370
707.294, 2800.554
707.776, 2791.111
708.258, 2802.956
708.740, 2775.572
709.222, 2784.991
709.705, 2783.819
710.187, 2766.637
710.669, 2735.772
711.151, 2710.615
711.633, 2704.588
712.115, 2709.575
712.597, 2724.640
713.079, 2751.504
713.561, 2761.693
714.044, 2730.653
714.526, 2692.533
715.008, 2669.948
715.490, 2670.310
715.972, 2663.269
716.454, 2647.109
716.936, 2626.462
717.418, 2600.229
717.901, 2569.963
718.383, 2565.197
718.865, 2595.524
719.347, 2631.808
719.829, 2642.691
720.311, 2634.682
720.793, 2619.407
721.275, 2591.716
721.757, 2570.276
722.240, 2566.477
722.722, 2574.312
723.204, 2581.902
723.686, 2594.298
724.168, 2596.596
724.650, 2579.458
725.132, 2551.765
725.614, 2548.404
726.096, 2573.376
726.579, 2593.936
727.061, 2592.873
727.543, 2579.498
728.025, 2579.067
728.507, 2589.155
728.989, 2592.622
729.471, 2565.556
729.953, 2536.884
730.435, 2536.034
730.918, 2564.523
731.400, 2582.373
731.882, 2565.245
732.364, 2545.918
732.846, 2543.426
733.328, 2563.722
733.810, 2568.303
734.292, 2551.674
734.775, 2532.597
735.257, 2526.365
735.739, 2532.029
736.221, 2548.096
736.703, 2577.207
737.185, 2596.743
737.667, 2567.552
738.149, 2598.498
738.631, 2614.846
739.114, 2617.381
739.596, 2564.730
740.078, 2583.340
740.560, 2573.392
741.042, 2562.273
741.524, 2590.913
742.006, 2546.289
742.489, 2574.297
742.971, 2573.313
743.453, 2585.598
743.935, 2569.149
744.417, 2561.575
744.899, 2582.744
745.381, 2587.997
745.863, 2568.240
746.345, 2551.238
746.828, 2512.236
747.310, 2562.020
747.792, 2590.251
748.274, 2598.089
748.756, 2524.451
749.238, 2556.022
749.720, 2545.431
750.202, 2533.110
750.684, 2579.489
751.167, 2517.701
751.649, 2563.149
752.131, 2565.791
752.613, 2588.024
753.095, 2567.833
753.577, 2560.746
754.059, 2596.096
754.541, 2607.948
755.023, 2582.875
755.506, 2606.353
755.988, 2543.083
756.470, 2555.936
756.952, 2563.546
757.434, 2594.323
757.916, 2610.214
758.398, 2615.079
758.880, 2610.259
759.362, 2595.097
759.845, 2570.549
760.327, 2532.511
760.809, 2498.772
761.291, 2484.235
761.773, 2487.378
762.255, 2510.536
762.737, 2557.771
763.219, 2596.009
763.702, 2590.448
764.184, 2565.040
764.666, 2545.282
765.148, 2535.940
765.630, 2533.526
766.112, 2541.113
766.594, 2553.028
767.076, 2564.953
767.558, 2579.242
768.041, 2582.928
768.523, 2571.040
769.005, 2555.608
769.487, 2556.833
769.969, 2570.721
770.451, 2582.224
770.933, 2586.312
771.416, 2587.709
771.898, 2594.237
772.380, 2600.145
772.862, 2595.573
773.344, 2561.938
773.826, 2536.132
774.308, 2527.351
774.790, 2531.016
775.272, 2539.282
775.755, 2553.784
776.237, 2566.475
776.719, 2576.047
777.201, 2581.763
777.683, 2577.845
778.165, 2567.056
778.647, 2562.596
779.129, 2582.733
779.612, 2602.186
780.094, 2570.856
780.576, 2609.141
781.058, 2630.527
781.540, 2635.923
782.022, 2577.437
782.504, 2601.441
782.986, 2592.387
783.468, 2581.978
783.951, 2617.592
784.433, 2568.397
784.915, 2603.282
785.397, 2604.604
785.879, 2621.287
786.361, 2597.836
786.843, 2567.864
787.325, 2605.697
787.807, 2627.070
788.290, 2632.870
788.772, 2576.446
789.254, 2600.370
789.736, 2592.095
790.218, 2582.499
790.700, 2617.731
791.182, 2570.358
791.664, 2604.880
792.146, 2606.711
792.629, 2600.964
793.111, 2599.186
793.593, 2581.673
794.075, 2585.498
794.557, 2610.659
795.039, 2629.720
795.521, 2614.600
796.003, 2593.026
796.485, 2588.997
796.968, 2608.690
797.450, 2620.461
797.932, 2620.266
798.414, 2612.196
798.896, 2594.319
799.378, 2564.171
799.860, 2558.287
800.343, 2581.055
800.825, 2601.385
801.307, 2582.439
801.789, 2544.171
802.271, 2526.522
802.753, 2534.789
803.235, 2546.869
803.717, 2546.086
804.199, 2546.027
804.682, 2560.821
805.164, 2607.227
805.646, 2623.887
806.128, 2593.802
806.610, 2556.994
807.092, 2547.423
807.574, 2564.668
808.056, 2578.935
808.539, 2588.842
809.021, 2592.710
809.503, 2586.226
809.985, 2573.684
810.467, 2558.131
810.949, 2536.347
811.431, 2528.642
811.913, 2556.333
812.395, 2593.773
812.878, 2618.809
813.360, 2626.756
813.842, 2632.722
814.324, 2638.146
814.806, 2638.512
815.288, 2626.433
815.770, 2604.230
816.252, 2581.912
816.734, 2558.972
817.217, 2547.369
817.699, 2571.801
818.181, 2606.967
818.663, 2622.373
819.145, 2578.962
819.627, 2635.549
820.109, 2667.862
820.591, 2677.206
821.073, 2594.786
821.556, 2630.860
822.038, 2619.447
822.520, 2606.087
823.002, 2658.838
823.484, 2589.765
823.966, 2641.469
824.448, 2644.960
824.930, 2670.517
825.413, 2648.293
825.895, 2640.828
826.377, 2681.157
826.859, 2695.022
827.341, 2667.299
827.823, 2613.104
828.305, 2673.339
828.787, 2705.797
829.269, 2711.972
829.752, 2613.136
830.234, 2649.898
830.716, 2632.319
831.198, 2612.512
831.680, 2638.437
832.162, 2638.791
832.644, 2640.711
833.127, 2645.315
833.609, 2648.448
834.091, 2624.408
834.573, 2654.243
835.055, 2671.001
835.537, 2675.383
836.019, 2630.327
836.501, 2649.111
836.983, 2642.311
837.466, 2634.461
837.948, 2648.143
838.430, 2632.155
838.912, 2654.382
839.394, 2667.332
839.876, 2671.504
840.358, 2640.608
840.840, 2654.996
841.322, 2651.236
841.805, 2646.732
842.287, 2667.493
842.769, 2641.697
843.251, 2662.058
843.733, 2663.993
844.215, 2674.362
844.697, 2666.471
845.179, 2664.219
845.661, 2680.233
846.144, 2686.133
846.626, 2676.140
847.108, 2667.897
847.590, 2679.650
848.072, 2666.657
848.554, 2646.619
849.036, 2633.266
849.518, 2628.011
850.000, 2627.066
850.483, 2633.688
850.965, 2626.481
851.447, 2636.861
851.929, 2642.972
852.411, 2645.043
852.893, 2630.975
853.375, 2637.747
853.857, 2636.167
854.340, 2634.246
854.822, 2643.951
855.304, 2632.230
855.786, 2640.611
856.268, 2623.968
856.750, 2605.911
857.232, 2611.505
857.714, 2640.909
858.196, 2656.890
858.679, 2658.739
859.161, 2653.383
859.643, 2636.923
860.125, 2621.771
860.607, 2628.878
861.089, 2660.498
861.571, 2681.765
862.054, 2671.974
862.536, 2654.800
863.018, 2640.401
863.500, 2628.461
863.982, 2629.637
864.464, 2647.005
864.946, 2662.920
865.428, 2662.046
865.910, 2652.276
866.393, 2653.808
866.875, 2665.750
867.357, 2675.642
867.839, 2668.539
868.321, 2664.340
868.803, 2682.038
869.285, 2721.668
869.767, 2733.889
870.250, 2703.083
870.732, 2678.296
871.214, 2683.935
871.696, 2710.721
872.178, 2723.279
872.660, 2723.007
873.142, 2722.408
873.624, 2735.999
874.106, 2746.204
874.589, 2732.910
875.071, 2702.117
875.553, 2680.171
876.035, 2672.580
876.517, 2676.041
876.999, 2695.619
877.481, 2723.792
877.963, 2733.767
878.445, 2725.259
878.928, 2716.500
879.410, 2714.380
879.892, 2715.728
880.374, 2718.785
880.856, 2722.035
881.338, 2721.972
881.820, 2712.025
882.302, 2704.966
882.784, 2707.819
883.267, 2714.229
883.749, 2710.689
884.231, 2693.817
884.713, 2686.856
885.195, 2696.369
885.677, 2713.059
886.159, 2726.837
886.641, 2736.447
887.123, 2738.214
887.606, 2726.152
888.088, 2715.370
888.570, 2714.289
889.052, 2717.380
889.534, 2716.307
890.016, 2704.298
890.498, 2710.149
890.981, 2743.356
891.463, 2775.390
891.945, 2758.583
892.427, 2711.925
892.909, 2696.752
893.391, 2727.060
893.873, 2761.525
894.355, 2776.030
894.837, 2779.489
895.320, 2779.783
895.802, 2778.238
896.284, 2770.406
896.766, 2751.645
897.248, 2734.863
897.730, 2731.142
898.212, 2738.432
898.694, 2745.540
899.177, 2752.040
899.659, 2756.765
900.141, 2760.376
900.623, 2760.787
901.105, 2753.440
901.587, 2737.834
902.069, 2730.539
902.551, 2736.781
903.033, 2745.778
903.516, 2752.737
903.998, 2758.589
904.480, 2774.336
904.962, 2798.865
905.444, 2810.057
905.926, 2776.908
906.408, 2738.968
906.890, 2742.072
907.372, 2774.727
907.855, 2794.784
908.337, 2780.108
908.819, 2763.370
909.301, 2748.305
909.783, 2737.257
910.265, 2740.305
910.747, 2757.301
911.229, 2768.397
911.711, 2764.537
912.194, 2757.390
912.676, 2763.724
913.158, 2776.060
913.640, 2781.281
914.122, 2765.807
914.604, 2755.124
915.086, 2755.404
915.568, 2760.306
916.050, 2760.406
916.533, 2754.590
917.015, 2763.798
917.497, 2794.178
917.979, 2821.674
918.461, 2810.090
918.943, 2782.693
919.425, 2774.247
919.907, 2795.506
920.390, 2817.274
920.872, 2837.073
921.354, 2849.047
921.836, 2848.024
922.318, 2832.400
922.800, 2816.874
923.282, 2800.485
923.765, 2791.295
924.247, 2803.931
924.729, 2823.037
925.211, 2822.350
925.693, 2803.065
926.175, 2790.228
926.657, 2800.354
927.139, 2812.366
927.621, 2817.235
928.104, 2816.412
928.586, 2819.502
929.068, 2827.442
929.550, 2829.896
930.032, 2818.374
930.514, 2803.517
930.996, 2804.747
931.478, 2815.995
931.960, 2822.031
932.443, 2810.597
932.925, 2800.692
933.407, 2802.193
933.889, 2806.129
934.371, 2795.132
934.853, 2764.880
935.335, 2755.021
935.817, 2778.131
936.299, 2800.056
936.782, 2781.890
937.264, 2810.667
937.746, 2828.049
938.228, 2834.649
938.710, 2798.170
939.192, 2817.318
939.674, 2814.173
940.156, 2810.114
940.638, 2837.090
941.121, 2806.878
941.603, 2833.362
942.085, 2837.214
942.567, 2851.425
943.049, 2843.205
943.531, 2841.914
944.013, 2863.059
944.495, 2871.781
944.978, 2860.979
945.460, 2875.847
945.942, 2844.851
946.424, 2857.830
946.906, 2845.967
947.388, 2863.376
947.870, 2876.472
948.352, 2866.225
948.834, 2850.790
949.317, 2859.823
949.799, 2881.957
950.281, 2873.545
950.763, 2888.100
951.245, 2897.080
951.727, 2900.784
952.209, 2883.414
952.692, 2893.258
953.174, 2892.195
953.656, 2890.685
954.138, 2904.359
954.620, 2890.053
955.102, 2903.487
955.584, 2905.847
956.066, 2913.275
956.548, 2909.730
957.031, 2896.397
957.513, 2911.120
957.995, 2919.032
958.477, 2920.501
958.959, 2896.223
959.441, 2905.191
959.923, 2900.836
960.405, 2895.935
960.888, 2909.581
961.370, 2889.048
961.852, 2902.401
962.334, 2902.228
962.816, 2908.245
963.298, 2900.856
963.780, 2897.608
964.262, 2907.770
964.744, 2910.507
965.227, 2901.576
965.709, 2907.986
966.191, 2886.985
966.673, 2890.038
967.155, 2891.434
967.637, 2863.051
968.119, 2822.843
968.601, 2802.707
969.083, 2812.441
969.566, 2836.885
970.048, 2886.436
970.530, 2928.738
971.012, 2921.609
971.494, 2880.569
971.976, 2864.406
972.458, 2876.677
972.940, 2892.243
973.422, 2905.356
973.905, 2907.555
974.387, 2880.702
974.869, 2828.566
975.351, 2820.204
975.833, 2870.441
976.315, 2913.700
976.797, 2920.694
977.279, 2907.274
977.761, 2901.491
978.244, 2902.528
978.726, 2908.168
979.208, 2933.542
979.690, 2944.367
980.172, 2909.163
980.654, 2862.047
981.136, 2851.804
981.619, 2886.641
982.101, 2907.258
982.583, 2905.588
983.065, 2898.763
983.547, 2911.373
984.029, 2927.981
984.511, 2921.548
984.993, 2884.863
985.475, 2861.870
985.958, 2876.282
986.440, 2897.436
986.922, 2913.097
987.404, 2923.829
987.886, 2933.475
988.368, 2942.245
988.850, 2954.086
989.332, 2981.299
989.815, 3004.084
990.297, 2997.559
990.779, 2972.367
991.261, 2955.544
991.743, 2961.784
992.225, 2960.855
992.707, 2943.157
993.189, 2925.872
993.671, 2945.397
994.154, 2990.193
994.636, 3005.400
995.118, 2976.964
995.600, 2944.770
996.082, 2930.513
996.564, 2928.220
997.046, 2936.392
997.528, 2957.159
998.010, 2967.698
998.493, 2966.620
998.975, 2959.730
999.457, 2945.151
999.939, 2929.525
1000.421, 2930.143
1000.903, 2943.297
1001.385, 2954.459
1001.867, 2960.885
1002.349, 2959.524
1002.832, 2940.056
1003.314, 2916.542
1003.796, 2917.234
1004.278, 2944.442
1004.760, 2960.697
1005.242, 2957.534
1005.724, 2948.995
1006.206, 2951.703
1006.689, 2957.849
1007.171, 2956.377
1007.653, 2942.211
1008.135, 2934.569
1008.617, 2939.490
1009.099, 2945.252
1009.581, 2944.242
1010.063, 2938.140
1010.545, 2938.748
1011.028, 2945.109
1011.510, 2949.476
1011.992, 2937.902
1012.474, 2954.228
1012.956, 2963.781
1013.438, 2966.926
1013.920, 2944.468
1014.402, 2955.071
1014.885, 2952.426
1015.367, 2949.237
1015.849, 2964.492
1016.331, 2945.758
1016.813, 2960.722
1017.295, 2962.234
1017.777, 2969.902
1018.259, 2964.240
1018.741, 2962.694
1019.224, 2963.203
1019.706, 2952.631
1020.188, 2969.227
1020.670, 2979.228
1021.152, 2982.988
1021.634, 2961.818
1022.116, 2972.841
1022.598, 2970.962
1023.081, 2968.557
1023.563, 2984.111
1024.045, 2966.567
1024.527, 2981.836
1025.009, 2981.608
1025.491, 2978.948
1025.973, 2988.999
1026.455, 2995.963
1026.938, 3000.016
1027.420, 2992.398
1027.902, 2999.841
1028.384, 3001.249
1028.866, 3002.408
1029.348, 3011.972
1029.830, 3006.050
1030.312, 3015.480
1030.794, 3018.781
1031.276, 3024.888
1031.759, 3024.928
1032.241, 3026.837
1032.723, 3034.821
1033.205, 3039.441
1033.687, 3038.776
1034.169, 3038.692
1034.651, 3027.011
1035.133, 3017.500
1035.616, 3011.768
1036.098, 3008.854
1036.580, 3007.284
1037.062, 3007.337
1037.544, 3013.120
1038.026, 3025.021
1038.508, 3034.231
1038.990, 3029.578
1039.473, 3023.553
1039.955, 3025.832
1040.437, 3036.178
1040.919, 3045.904
1041.401, 3056.401
1041.883, 3060.577
1042.365, 3054.867
1042.847, 3043.551
1043.329, 3029.807
1043.812, 3016.780
1044.294, 3010.383
1044.776, 3016.547
1045.258, 3022.216
1045.740, 3020.737
1046.222, 3022.845
1046.704, 3045.098
1047.186, 3085.049
1047.668, 3088.646
1048.151, 3055.947
1048.633, 3017.302
1049.115, 2972.830
1049.597, 2948.077
1050.079, 2975.731
1050.561, 3043.405
1051.043, 3082.623
1051.525, 3085.382
1052.008, 3082.778
1052.490, 3079.174
1052.972, 3078.707
1053.454, 3094.394
1053.936, 3115.477
1054.418, 3122.470
1054.900, 3109.248
1055.382, 3088.283
1055.865, 3047.730
1056.347, 3017.057
1056.829, 3014.146
1057.311, 3036.282
1057.793, 3069.231
1058.275, 3109.692
1058.757, 3123.595
1059.239, 3063.545
1059.721, 2999.579
1060.203, 2976.843
1060.686, 2983.541
1061.168, 2991.588
1061.650, 2998.383
1062.132, 3012.906
1062.614, 3036.926
1063.096, 3065.069
1063.578, 3102.466
1064.060, 3134.544
1064.543, 3132.280
1065.025, 3112.848
1065.507, 3138.957
1065.989, 3154.012
1066.471, 3158.605
1066.953, 3121.408
1067.435, 3138.176
1067.917, 3133.316
1068.400, 3127.572
1068.882, 3151.935
1069.364, 3120.816
1069.846, 3144.701
1070.328, 3146.629
1070.810, 3158.607
1071.292, 3148.824
1071.774, 3145.763
1072.256, 3164.468
1072.739, 3171.123
1073.221, 3158.835
1073.703, 3171.451
1074.185, 3139.573
1074.667, 3150.355
1075.149, 3137.476
1075.631, 3122.050
1076.113, 3100.313
1076.596, 3088.677
1077.078, 3092.457
1077.560, 3102.667
1078.042, 3106.701
1078.524, 3105.940
1079.006, 3105.998
1079.488, 3108.762
1079.970, 3103.745
1080.453, 3097.214
1080.935, 3108.887
1081.417, 3116.141
1081.899, 3119.213
1082.381, 3105.574
1082.863, 3113.513
1083.345, 3112.804
1083.827, 3111.742
1084.309, 3122.717
1084.792, 3111.512
1085.274, 3122.297
1085.756, 3124.302
1086.238, 3130.326
1086.720, 3127.649
1087.202, 3127.660
1087.684, 3129.009
1088.166, 3118.778
1088.648, 3093.411
1089.131, 3079.144
1089.613, 3076.101
1090.095, 3078.621
1090.577, 3089.464
1091.059, 3100.140
1091.541, 3110.756
1092.023, 3118.283
1092.505, 3112.767
1092.988, 3098.129
1093.470, 3095.605
1093.952, 3110.755
1094.434, 3124.544
1094.916, 3117.015
1095.398, 3110.090
1095.880, 3124.158
1096.362, 3156.491
1096.844, 3167.152
1097.327, 3154.908
1097.809, 3141.883
1098.291, 3137.421
1098.773, 3136.658
1099.255, 3139.608
1099.737, 3140.768
1100.219, 3130.066
1100.701, 3084.070
1101.183, 3075.600
1101.666, 3115.912
1102.148, 3162.796
1102.630, 3182.470
1103.112, 3184.162
1103.594, 3188.377
1104.076, 3193.352
1104.558, 3187.625
1105.040, 3150.492
1105.523, 3123.032
1106.005, 3113.826
1106.487, 3118.724
1106.969, 3133.222
1107.451, 3156.307
1107.933, 3186.856
1108.415, 3226.603
1108.897, 3250.608
1109.380, 3230.414
1109.862, 3248.832
1110.344, 3257.879
1110.826, 3258.058
1111.308, 3222.810
1111.790, 3233.309
1112.272, 3225.475
1112.754, 3216.888
1113.236, 3233.827
1113.719, 3203.725
1114.201, 3220.257
1114.683, 3218.177
1115.165, 3224.616
1115.647, 3212.608
1116.129, 3206.297
1116.611, 3218.440
1117.093, 3220.364
1117.575, 3196.855
1118.058, 3187.593
1118.540, 3166.014
1119.022, 3154.202
1119.504, 3165.636
1119.986, 3180.166
1120.468, 3200.526
1120.950, 3215.070
1121.432, 3206.109
1121.915, 3180.227
1122.397, 3155.994
1122.879, 3135.342
1123.361, 3122.498
1123.843, 3125.816
1124.325, 3130.473
1124.807, 3126.520
1125.289, 3121.554
1125.771, 3138.765
1126.254, 3175.779
1126.736, 3211.890
1127.218, 3246.555
1127.700, 3259.266
1128.182, 3205.048
1128.664, 3143.998
1129.146, 3134.241
1129.628, 3174.666
1130.110, 3191.311
1130.593, 3182.187
1131.075, 3173.553
1131.557, 3180.093
1132.039, 3188.702
1132.521, 3181.881
1133.003, 3168.740
1133.485, 3163.223
1133.967, 3166.648
1134.450, 3183.307
1134.932, 3219.609
1135.414, 3246.881
1135.896, 3234.372
1136.378, 3204.109
1136.860, 3189.031
1137.342, 3188.320
1137.824, 3196.704
1138.307, 3190.209
1138.789, 3231.609
1139.271, 3221.125
1139.753, 3237.265
1140.235, 3246.942
1140.717, 3250.504
1141.199, 3229.634
1141.681, 3240.312
1142.163, 3238.348
1142.646, 3235.868
1143.128, 3250.986
1143.610, 3233.670
1144.092, 3248.510
1144.574, 3250.513
1145.056, 3258.392
1145.538, 3253.549
1146.020, 3252.635
1146.502, 3264.446
1146.985, 3269.215
1147.467, 3256.441
1147.949, 3247.334
1148.431, 3248.752
1148.913, 3258.224
1149.395, 3274.651
1149.877, 3271.862
1150.359, 3220.380
1150.842, 3177.120
1151.324, 3202.644
1151.806, 3251.789
1152.288, 3268.523
1152.770, 3244.569
1153.252, 3218.915
1153.734, 3190.295
1154.216, 3172.703
1154.698, 3178.386
1155.181, 3197.410
1155.663, 3226.002
1156.145, 3259.330
1156.627, 3287.789
1157.109, 3323.660
1157.591, 3312.503
1158.073, 3237.910
1158.555, 3167.476
1159.037, 3178.018
1159.520, 3225.040
1160.002, 3253.591
1160.484, 3261.255
1160.966, 3257.135
1161.448, 3232.823
1161.930, 3218.282
1162.412, 3220.979
1162.894, 3231.215
1163.377, 3236.743
1163.859, 3238.858
1164.341, 3242.477
1164.823, 3249.036
1165.305, 3240.786
1165.787, 3187.815
1166.269, 3160.053
1166.751, 3189.292
1167.234, 3248.164
1167.716, 3278.183
1168.198, 3283.991
1168.680, 3277.533
1169.162, 3259.682
1169.644, 3236.903
1170.126, 3186.133
1170.608, 3161.193
1171.090, 3206.808
1171.573, 3299.015
1172.055, 3320.483
1172.537, 3283.897
1173.019, 3246.733
1173.501, 3223.720
1173.983, 3219.360
1174.465, 3250.502
1174.947, 3289.468
1175.430, 3318.029
1175.912, 3335.717
1176.394, 3329.154
1176.876, 3301.294
1177.358, 3279.947
1177.840, 3283.593
1178.322, 3295.872
1178.804, 3318.826
1179.286, 3340.054
1179.769, 3339.105
1180.251, 3315.282
1180.733, 3305.642
1181.215, 3312.541
1181.697, 3324.492
1182.179, 3336.678
1182.661, 3347.597
1183.143, 3358.707
1183.625, 3366.899
1184.108, 3361.771
1184.590, 3342.051
1185.072, 3331.303
1185.554, 3333.621
1186.036, 3341.011
1186.518, 3351.861
1187.000, 3360.574
1187.482, 3360.924
1187.965, 3354.189
1188.447, 3350.315
1188.929, 3349.942
1189.411, 3346.017
1189.893, 3336.844
1190.375, 3323.450
1190.857, 3296.254
1191.339, 3272.696
1191.822, 3276.643
1192.304, 3310.741
1192.786, 3323.128
1193.268, 3310.435
1193.750, 3301.325
1194.232, 3308.292
1194.714, 3321.427
1195.196, 3335.558
1195.678, 3345.369
1196.161, 3341.660
1196.643, 3319.717
1197.125, 3303.932
1197.607, 3294.621
1198.089, 3289.399
1198.571, 3286.405
1199.053, 3287.459
1199.535, 3295.796
1200.017, 3309.440
1200.500, 3325.469
1200.982, 3347.031
1201.464, 3362.635
1201.946, 3372.531
1202.428, 3376.009
1202.910, 3364.479
1203.392, 3352.360
1203.874, 3368.552
1204.357, 3398.244
1204.839, 3399.239
1205.321, 3346.487
1205.803, 3313.774
1206.285, 3306.706
1206.767, 3314.845
1207.249, 3339.996
1207.731, 3366.945
1208.214, 3370.342
1208.696, 3355.617
1209.178, 3352.973
1209.660, 3370.241
1210.142, 3387.621
1210.624, 3403.064
1211.106, 3416.840
1211.588, 3437.144
1212.070, 3451.450
1212.552, 3431.504
1213.035, 3380.795
1213.517, 3367.521
1213.999, 3417.091
1214.481, 3443.089
1214.963, 3421.106
1215.445, 3389.871
1215.927, 3403.347
1216.409, 3437.826
1216.892, 3467.234
1217.374, 3488.157
1217.856, 3478.967
1218.338, 3423.490
1218.820, 3388.278
1219.302, 3398.063
1219.784, 3425.769
1220.266, 3439.659
1220.749, 3442.469
1221.231, 3435.802
1221.713, 3417.768
1222.195, 3406.213
1222.677, 3401.645
1223.159, 3404.263
1223.641, 3415.776
1224.123, 3431.562
1224.605, 3454.855
1225.088, 3473.604
1225.570, 3465.202
1226.052, 3410.274
1226.534, 3387.606
1227.016, 3405.197
1227.498, 3427.014
1227.980, 3432.669
1228.462, 3435.551
1228.944, 3467.328
1229.427, 3505.156
1229.909, 3507.445
1230.391, 3440.972
1230.873, 3416.609
1231.355, 3443.551
1231.837, 3472.608
1232.319, 3469.180
1232.801, 3455.691
1233.284, 3463.585
1233.766, 3482.406
1234.248, 3492.043
1234.730, 3486.624
1235.212, 3477.576
1235.694, 3462.578
1236.176, 3457.539
1236.658, 3484.320
1237.141, 3518.809
1237.623, 3533.345
1238.105, 3534.129
1238.587, 3536.133
1239.069, 3543.866
1239.551, 3536.873
1240.033, 3510.816
1240.515, 3498.876
1240.997, 3551.729
1241.479, 3610.907
1241.962, 3609.510
1242.444, 3570.062
1242.926, 3561.380
1243.408, 3596.158
1243.890, 3606.758
1244.372, 3586.023
1244.854, 3561.511
1245.336, 3552.617
1245.819, 3553.692
1246.301, 3567.500
1246.783, 3586.202
1247.265, 3585.871
1247.747, 3562.476
1248.229, 3553.381
1248.711, 3562.810
1249.193, 3584.161
1249.676, 3634.965
1250.158, 3673.757
1250.640, 3656.055
1251.122, 3603.626
1251.604, 3575.802
1252.086, 3572.988
1252.568, 3564.162
1253.050, 3543.684
1253.532, 3532.084
1254.015, 3547.885
1254.497, 3574.949
1254.979, 3613.514
1255.461, 3651.876
1255.943, 3655.468
1256.425, 3627.132
1256.907, 3600.225
1257.389, 3579.375
1257.871, 3571.872
1258.354, 3601.669
1258.836, 3624.777
1259.318, 3617.044
1259.800, 3587.903
1260.282, 3554.363
1260.764, 3521.508
1261.246, 3518.437
1261.728, 3555.347
1262.211, 3586.047
1262.693, 3581.201
1263.175, 3571.382
1263.657, 3568.764
1264.139, 3571.329
1264.621, 3576.083
1265.103, 3581.327
1265.585, 3580.592
1266.068, 3571.168
1266.550, 3564.674
1267.032, 3563.914
1267.514, 3569.820
1267.996, 3587.719
1268.478, 3606.671
1268.960, 3596.258
1269.442, 3568.680
1269.924, 3545.590
1270.407, 3525.263
1270.889, 3547.777
1271.371, 3645.641
1271.853, 3720.134
1272.335, 3726.554
1272.817, 3692.375
1273.299, 3642.472
1273.781, 3596.008
1274.264, 3589.745
1274.746, 3645.660
1275.228, 3678.506
1275.710, 3679.549
1276.192, 3681.250
1276.674, 3703.175
1277.156, 3723.882
1277.638, 3683.193
1278.120, 3738.261
1278.603, 3770.089
1279.085, 3779.917
1279.567, 3701.873
1280.049, 3737.298
1280.531, 3727.250
1281.013, 3715.337
1281.495, 3766.733
1281.977, 3701.469
1282.459, 3751.861
1282.942, 3756.089
1283.424, 3781.443
1283.906, 3761.043
1284.388, 3754.774
1284.870, 3794.275
1285.352, 3808.434
1285.834, 3782.766
1286.316, 3809.463
1286.799, 3742.605
1287.281, 3757.843
1287.763, 3808.502
1288.245, 3785.135
1288.727, 3812.669
1289.209, 3773.361
1289.691, 3790.488
1290.173, 3788.813
1290.656, 3762.590
1291.138, 3732.277
1291.620, 3709.877
1292.102, 3694.433
1292.584, 3677.098
1293.066, 3662.249
1293.548, 3666.408
1294.030, 3722.100
1294.512, 3746.189
1294.995, 3717.813
1295.477, 3679.863
1295.959, 3652.186
1296.441, 3640.182
1296.923, 3673.200
1297.405, 3727.732
1297.887, 3753.359
1298.369, 3720.235
1298.851, 3709.137
1299.334, 3716.145
1299.816, 3733.125
1300.298, 3758.289
1300.780, 3781.009
##END=



