##NAMES=Sternbergite
##RRUFFID=R110137
##IDEAL CHEMISTRY=Ag^1+^Fe_2_S^2-^_3_
##LOCALITY=Joachimsthal, Bohemia, Czechoslovakia
##OWNER=RRUFF
##SOURCE=William W. Pinch
##DESCRIPTION=Black sectile single crystals with good cleavage, some with purple iridescence, associated with stephanite.
##STATUS=The identification of this mineral has been confirmed only by single crystal X-ray diffraction.
##URL=rruff.info/R110137
9.001007e+001, 0.000000e+000
9.049219e+001, 3.808482e+001
9.097430e+001, 3.861840e+001
9.145642e+001, 3.847474e+001
9.193854e+001, 3.771297e+001
9.242065e+001, 3.682635e+001
9.290277e+001, 3.614313e+001
9.338489e+001, 3.562762e+001
9.386700e+001, 3.521491e+001
9.434912e+001, 3.505038e+001
9.483124e+001, 3.492881e+001
9.531335e+001, 3.432124e+001
9.579547e+001, 3.316796e+001
9.627759e+001, 3.194016e+001
9.675970e+001, 3.109186e+001
9.724182e+001, 3.062347e+001
9.772394e+001, 3.046215e+001
9.820605e+001, 3.083390e+001
9.868817e+001, 3.165714e+001
9.917029e+001, 3.184346e+001
9.965240e+001, 3.124397e+001
1.001345e+002, 3.023033e+001
1.006166e+002, 2.950306e+001
1.010988e+002, 2.909359e+001
1.015809e+002, 2.880413e+001
1.020630e+002, 2.852559e+001
1.025451e+002, 2.823712e+001
1.030272e+002, 2.809710e+001
1.035093e+002, 2.828074e+001
1.039915e+002, 2.860430e+001
1.044736e+002, 2.815913e+001
1.049557e+002, 2.637442e+001
1.054378e+002, 2.465236e+001
1.059199e+002, 2.406501e+001
1.064020e+002, 2.552519e+001
1.068842e+002, 2.640432e+001
1.073663e+002, 2.616786e+001
1.078484e+002, 2.479863e+001
1.083305e+002, 2.386032e+001
1.088126e+002, 2.353588e+001
1.092947e+002, 2.354708e+001
1.097769e+002, 2.364151e+001
1.102590e+002, 2.403340e+001
1.107411e+002, 2.429083e+001
1.112232e+002, 2.432548e+001
1.117053e+002, 2.410370e+001
1.121874e+002, 2.380597e+001
1.126696e+002, 2.326539e+001
1.131517e+002, 2.269926e+001
1.136338e+002, 2.238920e+001
1.141159e+002, 2.305953e+001
1.145980e+002, 2.343404e+001
1.150801e+002, 2.285489e+001
1.155623e+002, 2.058730e+001
1.160444e+002, 1.898266e+001
1.165265e+002, 1.945749e+001
1.170086e+002, 2.104816e+001
1.174907e+002, 2.174142e+001
1.179728e+002, 1.965271e+001
1.184550e+002, 1.716574e+001
1.189371e+002, 1.585112e+001
1.194192e+002, 1.664964e+001
1.199013e+002, 1.772304e+001
1.203834e+002, 1.818533e+001
1.208655e+002, 1.814714e+001
1.213477e+002, 1.804097e+001
1.218298e+002, 1.806969e+001
1.223119e+002, 1.816736e+001
1.227940e+002, 1.827655e+001
1.232761e+002, 1.852555e+001
1.237582e+002, 1.864898e+001
1.242404e+002, 1.826829e+001
1.247225e+002, 1.742916e+001
1.252046e+002, 1.669320e+001
1.256867e+002, 1.670672e+001
1.261688e+002, 1.711817e+001
1.266509e+002, 1.728963e+001
1.271331e+002, 1.670546e+001
1.276152e+002, 1.583094e+001
1.280973e+002, 1.532740e+001
1.285794e+002, 1.520298e+001
1.290615e+002, 1.535103e+001
1.295436e+002, 1.584100e+001
1.300258e+002, 1.658031e+001
1.305079e+002, 1.715251e+001
1.309900e+002, 1.737081e+001
1.314721e+002, 1.727747e+001
1.319542e+002, 1.696490e+001
1.324363e+002, 1.639915e+001
1.329185e+002, 1.573150e+001
1.334006e+002, 1.511604e+001
1.338827e+002, 1.455003e+001
1.343648e+002, 1.417643e+001
1.348469e+002, 1.409995e+001
1.353290e+002, 1.430639e+001
1.358112e+002, 1.464820e+001
1.362933e+002, 1.521294e+001
1.367754e+002, 1.578468e+001
1.372575e+002, 1.576571e+001
1.377396e+002, 1.503366e+001
1.382217e+002, 1.425596e+001
1.387039e+002, 1.384511e+001
1.391860e+002, 1.384260e+001
1.396681e+002, 1.395558e+001
1.401502e+002, 1.428854e+001
1.406323e+002, 1.469301e+001
1.411144e+002, 1.439785e+001
1.415966e+002, 1.303859e+001
1.420787e+002, 1.167235e+001
1.425608e+002, 1.123700e+001
1.430429e+002, 1.222016e+001
1.435250e+002, 1.273390e+001
1.440071e+002, 1.230390e+001
1.444893e+002, 1.098831e+001
1.449714e+002, 1.018915e+001
1.454535e+002, 1.008017e+001
1.459356e+002, 1.032747e+001
1.464177e+002, 1.062410e+001
1.468998e+002, 1.094018e+001
1.473820e+002, 1.137002e+001
1.478641e+002, 1.208422e+001
1.483462e+002, 1.321005e+001
1.488283e+002, 1.367274e+001
1.493104e+002, 1.294302e+001
1.497925e+002, 1.180148e+001
1.502747e+002, 1.114759e+001
1.507568e+002, 1.163076e+001
1.512389e+002, 1.194703e+001
1.517210e+002, 1.169053e+001
1.522031e+002, 1.051588e+001
1.526852e+002, 9.871399e+000
1.531674e+002, 1.023791e+001
1.536495e+002, 1.104262e+001
1.541316e+002, 1.145757e+001
1.546137e+002, 1.091171e+001
1.550958e+002, 1.040515e+001
1.555779e+002, 1.029428e+001
1.560601e+002, 1.083510e+001
1.565422e+002, 1.123102e+001
1.570243e+002, 1.128893e+001
1.575064e+002, 1.112938e+001
1.579885e+002, 1.098580e+001
1.584706e+002, 1.092766e+001
1.589528e+002, 1.088256e+001
1.594349e+002, 1.081216e+001
1.599170e+002, 1.067756e+001
1.603991e+002, 1.057623e+001
1.608812e+002, 1.046514e+001
1.613633e+002, 1.039805e+001
1.618455e+002, 1.051603e+001
1.623276e+002, 1.123380e+001
1.628097e+002, 1.192775e+001
1.632918e+002, 1.216044e+001
1.637739e+002, 1.129767e+001
1.642560e+002, 1.069120e+001
1.647382e+002, 1.103466e+001
1.652203e+002, 1.215813e+001
1.657024e+002, 1.341142e+001
1.661845e+002, 1.499600e+001
1.666666e+002, 1.634735e+001
1.671487e+002, 1.688662e+001
1.676309e+002, 1.546976e+001
1.681130e+002, 1.424089e+001
1.685951e+002, 1.476102e+001
1.690772e+002, 1.679420e+001
1.695593e+002, 1.892137e+001
1.700414e+002, 2.046774e+001
1.705236e+002, 2.159037e+001
1.710057e+002, 2.245226e+001
1.714878e+002, 2.290120e+001
1.719699e+002, 2.328533e+001
1.724520e+002, 2.395899e+001
1.729341e+002, 2.489709e+001
1.734163e+002, 2.574455e+001
1.738984e+002, 2.602425e+001
1.743805e+002, 2.606937e+001
1.748626e+002, 2.642197e+001
1.753447e+002, 2.763178e+001
1.758268e+002, 2.907166e+001
1.763090e+002, 3.000839e+001
1.767911e+002, 3.043022e+001
1.772732e+002, 3.073339e+001
1.777553e+002, 3.099784e+001
1.782374e+002, 3.124746e+001
1.787195e+002, 3.168174e+001
1.792017e+002, 3.284672e+001
1.796838e+002, 3.409343e+001
1.801659e+002, 3.416913e+001
1.806480e+002, 3.300126e+001
1.811301e+002, 3.177118e+001
1.816122e+002, 3.155377e+001
1.820944e+002, 3.219986e+001
1.825765e+002, 3.323688e+001
1.830586e+002, 3.486855e+001
1.835407e+002, 3.668230e+001
1.840228e+002, 3.781300e+001
1.845049e+002, 3.818958e+001
1.849871e+002, 3.820443e+001
1.854692e+002, 3.814226e+001
1.859513e+002, 3.804448e+001
1.864334e+002, 3.814981e+001
1.869155e+002, 3.866290e+001
1.873976e+002, 3.947409e+001
1.878798e+002, 4.024740e+001
1.883619e+002, 4.097360e+001
1.888440e+002, 4.164229e+001
1.893261e+002, 4.216490e+001
1.898082e+002, 4.256124e+001
1.902903e+002, 4.303844e+001
1.907725e+002, 4.373271e+001
1.912546e+002, 4.461845e+001
1.917367e+002, 4.550273e+001
1.922188e+002, 4.639034e+001
1.927009e+002, 4.725062e+001
1.931830e+002, 4.807773e+001
1.936652e+002, 4.887263e+001
1.941473e+002, 4.944732e+001
1.946294e+002, 4.954040e+001
1.951115e+002, 4.920667e+001
1.955936e+002, 4.917919e+001
1.960757e+002, 4.954923e+001
1.965579e+002, 5.014989e+001
1.970400e+002, 5.067828e+001
1.975221e+002, 5.112801e+001
1.980042e+002, 5.157421e+001
1.984863e+002, 5.210307e+001
1.989684e+002, 5.271526e+001
1.994506e+002, 5.319448e+001
1.999327e+002, 5.352635e+001
2.004148e+002, 5.371611e+001
2.008969e+002, 5.366983e+001
2.013790e+002, 5.331169e+001
2.018611e+002, 5.312029e+001
2.023433e+002, 5.348445e+001
2.028254e+002, 5.446980e+001
2.033075e+002, 5.523611e+001
2.037896e+002, 5.573458e+001
2.042717e+002, 5.596527e+001
2.047538e+002, 5.575606e+001
2.052360e+002, 5.491787e+001
2.057181e+002, 5.432973e+001
2.062002e+002, 5.467279e+001
2.066823e+002, 5.614034e+001
2.071644e+002, 5.726387e+001
2.076465e+002, 5.789861e+001
2.081287e+002, 5.813203e+001
2.086108e+002, 5.816211e+001
2.090929e+002, 5.787933e+001
2.095750e+002, 5.769262e+001
2.100571e+002, 5.793433e+001
2.105392e+002, 5.874740e+001
2.110214e+002, 5.931910e+001
2.115035e+002, 5.956722e+001
2.119856e+002, 5.953429e+001
2.124677e+002, 5.932174e+001
2.129498e+002, 5.883466e+001
2.134319e+002, 5.838283e+001
2.139140e+002, 5.816467e+001
2.143962e+002, 5.823958e+001
2.148783e+002, 5.833700e+001
2.153604e+002, 5.842853e+001
2.158425e+002, 5.852713e+001
2.163246e+002, 5.872076e+001
2.168067e+002, 5.912749e+001
2.172889e+002, 5.940630e+001
2.177710e+002, 5.933335e+001
2.182531e+002, 5.881892e+001
2.187352e+002, 5.819616e+001
2.192173e+002, 5.741444e+001
2.196994e+002, 5.653434e+001
2.201816e+002, 5.587266e+001
2.206637e+002, 5.542353e+001
2.211458e+002, 5.517609e+001
2.216279e+002, 5.517743e+001
2.221100e+002, 5.558722e+001
2.225921e+002, 5.581410e+001
2.230743e+002, 5.575900e+001
2.235564e+002, 5.548399e+001
2.240385e+002, 5.527654e+001
2.245206e+002, 5.517718e+001
2.250027e+002, 5.509055e+001
2.254848e+002, 5.496315e+001
2.259670e+002, 5.479629e+001
2.264491e+002, 5.458175e+001
2.269312e+002, 5.426162e+001
2.274133e+002, 5.388826e+001
2.278954e+002, 5.372475e+001
2.283775e+002, 5.390459e+001
2.288597e+002, 5.410433e+001
2.293418e+002, 5.409965e+001
2.298239e+002, 5.372739e+001
2.303060e+002, 5.353102e+001
2.307881e+002, 5.358493e+001
2.312702e+002, 5.384867e+001
2.317524e+002, 5.415720e+001
2.322345e+002, 5.460459e+001
2.327166e+002, 5.495663e+001
2.331987e+002, 5.507535e+001
2.336808e+002, 5.493512e+001
2.341629e+002, 5.458892e+001
2.346451e+002, 5.384513e+001
2.351272e+002, 5.288025e+001
2.356093e+002, 5.249493e+001
2.360914e+002, 5.299012e+001
2.365735e+002, 5.365001e+001
2.370556e+002, 5.408960e+001
2.375378e+002, 5.424942e+001
2.380199e+002, 5.432298e+001
2.385020e+002, 5.433015e+001
2.389841e+002, 5.426122e+001
2.394662e+002, 5.404803e+001
2.399483e+002, 5.354278e+001
2.404305e+002, 5.309811e+001
2.409126e+002, 5.292617e+001
2.413947e+002, 5.322211e+001
2.418768e+002, 5.334796e+001
2.423589e+002, 5.315413e+001
2.428410e+002, 5.277832e+001
2.433232e+002, 5.272612e+001
2.438053e+002, 5.315770e+001
2.442874e+002, 5.369395e+001
2.447695e+002, 5.416484e+001
2.452516e+002, 5.463513e+001
2.457337e+002, 5.487259e+001
2.462159e+002, 5.467690e+001
2.466980e+002, 5.426710e+001
2.471801e+002, 5.441566e+001
2.476622e+002, 5.556242e+001
2.481443e+002, 5.660298e+001
2.486264e+002, 5.696227e+001
2.491086e+002, 5.629644e+001
2.495907e+002, 5.574928e+001
2.500728e+002, 5.518849e+001
2.505549e+002, 5.479826e+001
2.510370e+002, 5.517620e+001
2.515191e+002, 5.688479e+001
2.520013e+002, 5.847295e+001
2.524834e+002, 5.925708e+001
2.529655e+002, 5.883732e+001
2.534476e+002, 5.864158e+001
2.539297e+002, 5.870927e+001
2.544118e+002, 5.898386e+001
2.548940e+002, 5.937257e+001
2.553761e+002, 5.998243e+001
2.558582e+002, 6.051804e+001
2.563403e+002, 6.082288e+001
2.568224e+002, 6.078841e+001
2.573046e+002, 6.084016e+001
2.577867e+002, 6.083651e+001
2.582688e+002, 6.100403e+001
2.587509e+002, 6.192229e+001
2.592330e+002, 6.406684e+001
2.597151e+002, 6.596641e+001
2.601973e+002, 6.698930e+001
2.606794e+002, 6.688937e+001
2.611615e+002, 6.695301e+001
2.616436e+002, 6.728445e+001
2.621257e+002, 6.768932e+001
2.626078e+002, 6.783038e+001
2.630900e+002, 6.764236e+001
2.635721e+002, 6.734349e+001
2.640542e+002, 6.694955e+001
2.645363e+002, 6.640152e+001
2.650184e+002, 6.618383e+001
2.655005e+002, 6.645941e+001
2.659827e+002, 6.687236e+001
2.664648e+002, 6.693074e+001
2.669469e+002, 6.660380e+001
2.674290e+002, 6.600381e+001
2.679111e+002, 6.509147e+001
2.683932e+002, 6.384538e+001
2.688754e+002, 6.267436e+001
2.693575e+002, 6.155860e+001
2.698396e+002, 6.054648e+001
2.703217e+002, 5.969763e+001
2.708038e+002, 5.899563e+001
2.712859e+002, 5.854417e+001
2.717681e+002, 5.853393e+001
2.722502e+002, 5.893306e+001
2.727323e+002, 5.867471e+001
2.732144e+002, 5.757524e+001
2.736965e+002, 5.619823e+001
2.741786e+002, 5.510563e+001
2.746608e+002, 5.429980e+001
2.751429e+002, 5.371353e+001
2.756250e+002, 5.332588e+001
2.761071e+002, 5.314160e+001
2.765892e+002, 5.331622e+001
2.770714e+002, 5.400730e+001
2.775535e+002, 5.459899e+001
2.780356e+002, 5.435089e+001
2.785177e+002, 5.315267e+001
2.789998e+002, 5.227514e+001
2.794819e+002, 5.206224e+001
2.799641e+002, 5.234767e+001
2.804462e+002, 5.236965e+001
2.809283e+002, 5.204931e+001
2.814104e+002, 5.180451e+001
2.818925e+002, 5.211798e+001
2.823746e+002, 5.300240e+001
2.828568e+002, 5.352050e+001
2.833389e+002, 5.342053e+001
2.838210e+002, 5.293870e+001
2.843031e+002, 5.272777e+001
2.847852e+002, 5.281037e+001
2.852673e+002, 5.297876e+001
2.857495e+002, 5.309498e+001
2.862316e+002, 5.316517e+001
2.867137e+002, 5.324834e+001
2.871958e+002, 5.333464e+001
2.876779e+002, 5.346440e+001
2.881600e+002, 5.369063e+001
2.886422e+002, 5.401179e+001
2.891243e+002, 5.450545e+001
2.896064e+002, 5.540736e+001
2.900885e+002, 5.658950e+001
2.905706e+002, 5.723241e+001
2.910527e+002, 5.710759e+001
2.915349e+002, 5.680026e+001
2.920170e+002, 5.736623e+001
2.924991e+002, 5.872493e+001
2.929812e+002, 6.004313e+001
2.934633e+002, 6.076068e+001
2.939454e+002, 6.106389e+001
2.944276e+002, 6.151709e+001
2.949097e+002, 6.214737e+001
2.953918e+002, 6.292144e+001
2.958739e+002, 6.383586e+001
2.963560e+002, 6.486667e+001
2.968381e+002, 6.594460e+001
2.973203e+002, 6.698695e+001
2.978024e+002, 6.804980e+001
2.982845e+002, 6.930587e+001
2.987666e+002, 7.078095e+001
2.992487e+002, 7.227156e+001
2.997308e+002, 7.356832e+001
3.002130e+002, 7.473230e+001
3.006951e+002, 7.591907e+001
3.011772e+002, 7.726043e+001
3.016593e+002, 7.862297e+001
3.021414e+002, 7.980986e+001
3.026235e+002, 8.081412e+001
3.031057e+002, 8.178695e+001
3.035878e+002, 8.294617e+001
3.040699e+002, 8.414709e+001
3.045520e+002, 8.508953e+001
3.050341e+002, 8.555021e+001
3.055162e+002, 8.582787e+001
3.059984e+002, 8.638113e+001
3.064805e+002, 8.712568e+001
3.069626e+002, 8.751794e+001
3.074447e+002, 8.696418e+001
3.079268e+002, 8.590044e+001
3.084089e+002, 8.490807e+001
3.088911e+002, 8.423196e+001
3.093732e+002, 8.351846e+001
3.098553e+002, 8.244149e+001
3.103374e+002, 8.108326e+001
3.108195e+002, 7.969434e+001
3.113016e+002, 7.855083e+001
3.117838e+002, 7.739047e+001
3.122659e+002, 7.593053e+001
3.127480e+002, 7.401669e+001
3.132301e+002, 7.205311e+001
3.137122e+002, 7.021337e+001
3.141943e+002, 6.847629e+001
3.146765e+002, 6.683907e+001
3.151586e+002, 6.526034e+001
3.156407e+002, 6.381123e+001
3.161228e+002, 6.253016e+001
3.166049e+002, 6.144517e+001
3.170870e+002, 6.046418e+001
3.175692e+002, 5.958478e+001
3.180513e+002, 5.878395e+001
3.185334e+002, 5.803532e+001
3.190155e+002, 5.722609e+001
3.194976e+002, 5.655581e+001
3.199797e+002, 5.614360e+001
3.204619e+002, 5.601060e+001
3.209440e+002, 5.595761e+001
3.214261e+002, 5.617484e+001
3.219082e+002, 5.633800e+001
3.223903e+002, 5.613783e+001
3.228724e+002, 5.508460e+001
3.233546e+002, 5.408825e+001
3.238367e+002, 5.340650e+001
3.243188e+002, 5.303417e+001
3.248009e+002, 5.266853e+001
3.252830e+002, 5.226196e+001
3.257651e+002, 5.185153e+001
3.262473e+002, 5.146263e+001
3.267294e+002, 5.125736e+001
3.272115e+002, 5.089192e+001
3.276936e+002, 5.018477e+001
3.281757e+002, 4.924174e+001
3.286578e+002, 4.855721e+001
3.291400e+002, 4.843814e+001
3.296221e+002, 4.832709e+001
3.301042e+002, 4.798767e+001
3.305863e+002, 4.731768e+001
3.310684e+002, 4.657319e+001
3.315505e+002, 4.559321e+001
3.320327e+002, 4.457094e+001
3.325148e+002, 4.395441e+001
3.329969e+002, 4.390905e+001
3.334790e+002, 4.405281e+001
3.339611e+002, 4.433619e+001
3.344432e+002, 4.489409e+001
3.349254e+002, 4.500917e+001
3.354075e+002, 4.446963e+001
3.358896e+002, 4.366311e+001
3.363717e+002, 4.311079e+001
3.368538e+002, 4.286032e+001
3.373359e+002, 4.276061e+001
3.378180e+002, 4.277848e+001
3.383001e+002, 4.291313e+001
3.387823e+002, 4.324393e+001
3.392644e+002, 4.391965e+001
3.397465e+002, 4.449486e+001
3.402286e+002, 4.439061e+001
3.407107e+002, 4.343790e+001
3.411928e+002, 4.284668e+001
3.416750e+002, 4.295267e+001
3.421571e+002, 4.356363e+001
3.426392e+002, 4.390437e+001
3.431213e+002, 4.392849e+001
3.436034e+002, 4.394780e+001
3.440855e+002, 4.426992e+001
3.445677e+002, 4.487238e+001
3.450498e+002, 4.518909e+001
3.455319e+002, 4.502669e+001
3.460140e+002, 4.475374e+001
3.464961e+002, 4.527932e+001
3.469782e+002, 4.656124e+001
3.474604e+002, 4.757840e+001
3.479425e+002, 4.735503e+001
3.484246e+002, 4.633202e+001
3.489067e+002, 4.623764e+001
3.493888e+002, 4.728128e+001
3.498709e+002, 4.866088e+001
3.503531e+002, 4.946227e+001
3.508352e+002, 4.978730e+001
3.513173e+002, 5.001302e+001
3.517994e+002, 5.008426e+001
3.522815e+002, 5.023267e+001
3.527636e+002, 5.099390e+001
3.532458e+002, 5.236640e+001
3.537279e+002, 5.370583e+001
3.542100e+002, 5.447199e+001
3.546921e+002, 5.483222e+001
3.551742e+002, 5.507336e+001
3.556563e+002, 5.529139e+001
3.561385e+002, 5.542168e+001
3.566206e+002, 5.534109e+001
3.571027e+002, 5.509056e+001
3.575848e+002, 5.487745e+001
3.580669e+002, 5.492311e+001
3.585490e+002, 5.501503e+001
3.590312e+002, 5.496021e+001
3.595133e+002, 5.472371e+001
3.599954e+002, 5.432881e+001
3.604775e+002, 5.375882e+001
3.609596e+002, 5.303852e+001
3.614417e+002, 5.223149e+001
3.619239e+002, 5.114479e+001
3.624060e+002, 5.013938e+001
3.628881e+002, 4.946137e+001
3.633702e+002, 4.920007e+001
3.638523e+002, 4.891962e+001
3.643344e+002, 4.844826e+001
3.648166e+002, 4.789371e+001
3.652987e+002, 4.737455e+001
3.657808e+002, 4.694831e+001
3.662629e+002, 4.654426e+001
3.667450e+002, 4.612189e+001
3.672271e+002, 4.568167e+001
3.677093e+002, 4.533669e+001
3.681914e+002, 4.524469e+001
3.686735e+002, 4.516034e+001
3.691556e+002, 4.492118e+001
3.696377e+002, 4.438569e+001
3.701198e+002, 4.386810e+001
3.706020e+002, 4.331977e+001
3.710841e+002, 4.278833e+001
3.715662e+002, 4.245789e+001
3.720483e+002, 4.247672e+001
3.725304e+002, 4.252031e+001
3.730125e+002, 4.246981e+001
3.734947e+002, 4.233838e+001
3.739768e+002, 4.205091e+001
3.744589e+002, 4.148781e+001
3.749410e+002, 4.086110e+001
3.754231e+002, 4.056668e+001
3.759052e+002, 4.076537e+001
3.763874e+002, 4.083609e+001
3.768695e+002, 4.054439e+001
3.773516e+002, 3.989868e+001
3.778337e+002, 3.943491e+001
3.783158e+002, 3.919898e+001
3.787979e+002, 3.900233e+001
3.792801e+002, 3.859701e+001
3.797622e+002, 3.796047e+001
3.802443e+002, 3.756184e+001
3.807264e+002, 3.755176e+001
3.812085e+002, 3.778266e+001
3.816906e+002, 3.791081e+001
3.821728e+002, 3.793752e+001
3.826549e+002, 3.780370e+001
3.831370e+002, 3.727879e+001
3.836191e+002, 3.651722e+001
3.841012e+002, 3.624910e+001
3.845833e+002, 3.666233e+001
3.850655e+002, 3.717372e+001
3.855476e+002, 3.690995e+001
3.860297e+002, 3.605157e+001
3.865118e+002, 3.526864e+001
3.869939e+002, 3.489375e+001
3.874760e+002, 3.477618e+001
3.879582e+002, 3.471440e+001
3.884403e+002, 3.470331e+001
3.889224e+002, 3.474604e+001
3.894045e+002, 3.494147e+001
3.898866e+002, 3.516792e+001
3.903687e+002, 3.525504e+001
3.908509e+002, 3.515245e+001
3.913330e+002, 3.488679e+001
3.918151e+002, 3.439707e+001
3.922972e+002, 3.373355e+001
3.927793e+002, 3.309304e+001
3.932614e+002, 3.243052e+001
3.937436e+002, 3.192029e+001
3.942257e+002, 3.170382e+001
3.947078e+002, 3.191021e+001
3.951899e+002, 3.216143e+001
3.956720e+002, 3.242603e+001
3.961541e+002, 3.263285e+001
3.966363e+002, 3.266764e+001
3.971184e+002, 3.228188e+001
3.976005e+002, 3.192481e+001
3.980826e+002, 3.178574e+001
3.985647e+002, 3.190967e+001
3.990468e+002, 3.193875e+001
3.995290e+002, 3.174751e+001
4.000111e+002, 3.149928e+001
4.004932e+002, 3.132170e+001
4.009753e+002, 3.116655e+001
4.014574e+002, 3.115672e+001
4.019395e+002, 3.142523e+001
4.024217e+002, 3.187397e+001
4.029038e+002, 3.202034e+001
4.033859e+002, 3.173565e+001
4.038680e+002, 3.133749e+001
4.043501e+002, 3.092692e+001
4.048322e+002, 3.042076e+001
4.053144e+002, 3.024138e+001
4.057965e+002, 3.050947e+001
4.062786e+002, 3.096248e+001
4.067607e+002, 3.113825e+001
4.072428e+002, 3.096536e+001
4.077249e+002, 3.092282e+001
4.082071e+002, 3.129712e+001
4.086892e+002, 3.196518e+001
4.091713e+002, 3.203645e+001
4.096534e+002, 3.142733e+001
4.101355e+002, 3.070255e+001
4.106176e+002, 3.041302e+001
4.110998e+002, 3.048273e+001
4.115819e+002, 3.045274e+001
4.120640e+002, 3.016847e+001
4.125461e+002, 2.985629e+001
4.130282e+002, 3.003531e+001
4.135103e+002, 3.059964e+001
4.139925e+002, 3.093213e+001
4.144746e+002, 3.035653e+001
4.149567e+002, 2.942495e+001
4.154388e+002, 2.907217e+001
4.159209e+002, 2.941914e+001
4.164030e+002, 2.987127e+001
4.168852e+002, 2.991138e+001
4.173673e+002, 2.972761e+001
4.178494e+002, 2.962767e+001
4.183315e+002, 2.981670e+001
4.188136e+002, 3.005643e+001
4.192957e+002, 3.023423e+001
4.197779e+002, 3.034365e+001
4.202600e+002, 3.035834e+001
4.207421e+002, 3.024082e+001
4.212242e+002, 3.003850e+001
4.217063e+002, 2.977279e+001
4.221884e+002, 2.935908e+001
4.226706e+002, 2.904356e+001
4.231527e+002, 2.894683e+001
4.236348e+002, 2.897961e+001
4.241169e+002, 2.897252e+001
4.245990e+002, 2.895172e+001
4.250811e+002, 2.883831e+001
4.255633e+002, 2.852253e+001
4.260454e+002, 2.793237e+001
4.265275e+002, 2.765851e+001
4.270096e+002, 2.792717e+001
4.274917e+002, 2.833013e+001
4.279738e+002, 2.852060e+001
4.284560e+002, 2.835107e+001
4.289381e+002, 2.827925e+001
4.294202e+002, 2.838328e+001
4.299023e+002, 2.861320e+001
4.303844e+002, 2.885807e+001
4.308665e+002, 2.920285e+001
4.313487e+002, 2.931359e+001
4.318308e+002, 2.885104e+001
4.323129e+002, 2.776402e+001
4.327950e+002, 2.723919e+001
4.332771e+002, 2.738354e+001
4.337592e+002, 2.784506e+001
4.342414e+002, 2.823026e+001
4.347235e+002, 2.854119e+001
4.352056e+002, 2.880836e+001
4.356877e+002, 2.909079e+001
4.361698e+002, 2.930200e+001
4.366519e+002, 2.917690e+001
4.371341e+002, 2.873389e+001
4.376162e+002, 2.831145e+001
4.380983e+002, 2.816819e+001
4.385804e+002, 2.820861e+001
4.390625e+002, 2.829013e+001
4.395446e+002, 2.841257e+001
4.400268e+002, 2.849388e+001
4.405089e+002, 2.839347e+001
4.409910e+002, 2.819940e+001
4.414731e+002, 2.809301e+001
4.419552e+002, 2.824198e+001
4.424373e+002, 2.843537e+001
4.429195e+002, 2.853632e+001
4.434016e+002, 2.854170e+001
4.438837e+002, 2.854332e+001
4.443658e+002, 2.862119e+001
4.448479e+002, 2.868625e+001
4.453300e+002, 2.866539e+001
4.458122e+002, 2.844290e+001
4.462943e+002, 2.826590e+001
4.467764e+002, 2.816238e+001
4.472585e+002, 2.813231e+001
4.477406e+002, 2.817657e+001
4.482227e+002, 2.843712e+001
4.487049e+002, 2.862864e+001
4.491870e+002, 2.861822e+001
4.496691e+002, 2.833409e+001
4.501512e+002, 2.829862e+001
4.506333e+002, 2.865476e+001
4.511154e+002, 2.910448e+001
4.515976e+002, 2.936459e+001
4.520797e+002, 2.938850e+001
4.525618e+002, 2.936662e+001
4.530439e+002, 2.930514e+001
4.535260e+002, 2.922903e+001
4.540081e+002, 2.925680e+001
4.544903e+002, 2.942161e+001
4.549724e+002, 2.947319e+001
4.554545e+002, 2.915638e+001
4.559366e+002, 2.855151e+001
4.564187e+002, 2.826243e+001
4.569008e+002, 2.835116e+001
4.573830e+002, 2.852715e+001
4.578651e+002, 2.844316e+001
4.583472e+002, 2.816400e+001
4.588293e+002, 2.789110e+001
4.593114e+002, 2.761893e+001
4.597935e+002, 2.745487e+001
4.602757e+002, 2.764031e+001
4.607578e+002, 2.810100e+001
4.612399e+002, 2.846572e+001
4.617220e+002, 2.848951e+001
4.622041e+002, 2.831782e+001
4.626862e+002, 2.805472e+001
4.631684e+002, 2.768924e+001
4.636505e+002, 2.735848e+001
4.641326e+002, 2.702687e+001
4.646147e+002, 2.680670e+001
4.650968e+002, 2.684147e+001
4.655789e+002, 2.757905e+001
4.660611e+002, 2.816712e+001
4.665432e+002, 2.824434e+001
4.670253e+002, 2.786098e+001
4.675074e+002, 2.764435e+001
4.679895e+002, 2.807321e+001
4.684716e+002, 2.835413e+001
4.689538e+002, 2.804582e+001
4.694359e+002, 2.662909e+001
4.699180e+002, 2.578190e+001
4.704001e+002, 2.568515e+001
4.708822e+002, 2.602556e+001
4.713643e+002, 2.637030e+001
4.718465e+002, 2.675503e+001
4.723286e+002, 2.703845e+001
4.728107e+002, 2.717675e+001
4.732928e+002, 2.718207e+001
4.737749e+002, 2.711724e+001
4.742570e+002, 2.697303e+001
4.747392e+002, 2.680692e+001
4.752213e+002, 2.661023e+001
4.757034e+002, 2.640693e+001
4.761855e+002, 2.643038e+001
4.766676e+002, 2.678062e+001
4.771497e+002, 2.710152e+001
4.776319e+002, 2.677461e+001
4.781140e+002, 2.598835e+001
4.785961e+002, 2.535967e+001
4.790782e+002, 2.524887e+001
4.795603e+002, 2.537874e+001
4.800424e+002, 2.549439e+001
4.805246e+002, 2.558774e+001
4.810067e+002, 2.559161e+001
4.814888e+002, 2.533262e+001
4.819709e+002, 2.503837e+001
4.824530e+002, 2.492491e+001
4.829352e+002, 2.509504e+001
4.834173e+002, 2.529328e+001
4.838994e+002, 2.548799e+001
4.843815e+002, 2.563260e+001
4.848636e+002, 2.565461e+001
4.853457e+002, 2.536683e+001
4.858279e+002, 2.513062e+001
4.863100e+002, 2.511007e+001
4.867921e+002, 2.530500e+001
4.872742e+002, 2.528916e+001
4.877563e+002, 2.480828e+001
4.882384e+002, 2.437501e+001
4.887206e+002, 2.432441e+001
4.892027e+002, 2.491763e+001
4.896848e+002, 2.515563e+001
4.901669e+002, 2.486879e+001
4.906490e+002, 2.439474e+001
4.911311e+002, 2.430224e+001
4.916133e+002, 2.465122e+001
4.920954e+002, 2.497199e+001
4.925775e+002, 2.511343e+001
4.930596e+002, 2.511831e+001
4.935417e+002, 2.516747e+001
4.940238e+002, 2.526244e+001
4.945060e+002, 2.529217e+001
4.949881e+002, 2.509256e+001
4.954702e+002, 2.476828e+001
4.959523e+002, 2.459398e+001
4.964344e+002, 2.462805e+001
4.969165e+002, 2.471131e+001
4.973987e+002, 2.468201e+001
4.978808e+002, 2.458832e+001
4.983629e+002, 2.452174e+001
4.988450e+002, 2.463048e+001
4.993271e+002, 2.468620e+001
4.998092e+002, 2.439642e+001
5.002914e+002, 2.385550e+001
5.007735e+002, 2.360042e+001
5.012556e+002, 2.421914e+001
5.017377e+002, 2.490093e+001
5.022198e+002, 2.514777e+001
5.027019e+002, 2.473901e+001
5.031841e+002, 2.433100e+001
5.036662e+002, 2.390922e+001
5.041483e+002, 2.357048e+001
5.046304e+002, 2.344180e+001
5.051125e+002, 2.368692e+001
5.055946e+002, 2.387680e+001
5.060768e+002, 2.392647e+001
5.065589e+002, 2.386812e+001
5.070410e+002, 2.386833e+001
5.075231e+002, 2.394282e+001
5.080052e+002, 2.403062e+001
5.084873e+002, 2.411710e+001
5.089695e+002, 2.420139e+001
5.094516e+002, 2.417517e+001
5.099337e+002, 2.399623e+001
5.104158e+002, 2.387984e+001
5.108979e+002, 2.423288e+001
5.113800e+002, 2.491545e+001
5.118622e+002, 2.524524e+001
5.123443e+002, 2.488214e+001
5.128264e+002, 2.431901e+001
5.133085e+002, 2.428918e+001
5.137906e+002, 2.464688e+001
5.142728e+002, 2.486890e+001
5.147549e+002, 2.446197e+001
5.152370e+002, 2.392177e+001
5.157191e+002, 2.371375e+001
5.162012e+002, 2.389003e+001
5.166833e+002, 2.403461e+001
5.171655e+002, 2.383816e+001
5.176476e+002, 2.358723e+001
5.181297e+002, 2.353076e+001
5.186118e+002, 2.404572e+001
5.190939e+002, 2.435247e+001
5.195760e+002, 2.418954e+001
5.200582e+002, 2.374275e+001
5.205403e+002, 2.345993e+001
5.210224e+002, 2.346508e+001
5.215045e+002, 2.346334e+001
5.219866e+002, 2.335199e+001
5.224688e+002, 2.313099e+001
5.229509e+002, 2.303891e+001
5.234330e+002, 2.310118e+001
5.239151e+002, 2.323016e+001
5.243972e+002, 2.341238e+001
5.248793e+002, 2.365105e+001
5.253615e+002, 2.368845e+001
5.258436e+002, 2.346945e+001
5.263257e+002, 2.313344e+001
5.268078e+002, 2.273972e+001
5.272899e+002, 2.235919e+001
5.277720e+002, 2.237576e+001
5.282542e+002, 2.336123e+001
5.287363e+002, 2.449438e+001
5.292184e+002, 2.447685e+001
5.297005e+002, 2.350682e+001
5.301826e+002, 2.266435e+001
5.306647e+002, 2.274767e+001
5.311469e+002, 2.316657e+001
5.316290e+002, 2.345869e+001
5.321111e+002, 2.357026e+001
5.325932e+002, 2.349282e+001
5.330753e+002, 2.293769e+001
5.335574e+002, 2.231543e+001
5.340396e+002, 2.206085e+001
5.345217e+002, 2.267550e+001
5.350038e+002, 2.315858e+001
5.354859e+002, 2.336454e+001
5.359680e+002, 2.334076e+001
5.364501e+002, 2.320525e+001
5.369323e+002, 2.279691e+001
5.374144e+002, 2.255997e+001
5.378965e+002, 2.277320e+001
5.383786e+002, 2.345728e+001
5.388607e+002, 2.358797e+001
5.393428e+002, 2.302270e+001
5.398250e+002, 2.233957e+001
5.403071e+002, 2.204820e+001
5.407892e+002, 2.212707e+001
5.412713e+002, 2.241883e+001
5.417534e+002, 2.298870e+001
5.422355e+002, 2.351652e+001
5.427177e+002, 2.347502e+001
5.431998e+002, 2.300199e+001
5.436819e+002, 2.253596e+001
5.441640e+002, 2.222784e+001
5.446461e+002, 2.205973e+001
5.451282e+002, 2.205346e+001
5.456104e+002, 2.219144e+001
5.460925e+002, 2.236208e+001
5.465746e+002, 2.267315e+001
5.470567e+002, 2.288080e+001
5.475388e+002, 2.271850e+001
5.480209e+002, 2.192439e+001
5.485031e+002, 2.153692e+001
5.489852e+002, 2.224645e+001
5.494673e+002, 2.323868e+001
5.499494e+002, 2.364139e+001
5.504315e+002, 2.297776e+001
5.509136e+002, 2.244382e+001
5.513958e+002, 2.215583e+001
5.518779e+002, 2.207661e+001
5.523600e+002, 2.213560e+001
5.528421e+002, 2.238894e+001
5.533242e+002, 2.258378e+001
5.538063e+002, 2.259612e+001
5.542885e+002, 2.244940e+001
5.547706e+002, 2.231353e+001
5.552527e+002, 2.218573e+001
5.557348e+002, 2.209856e+001
5.562169e+002, 2.211526e+001
5.566990e+002, 2.219375e+001
5.571812e+002, 2.223569e+001
5.576633e+002, 2.223441e+001
5.581454e+002, 2.216080e+001
5.586275e+002, 2.192990e+001
5.591096e+002, 2.161597e+001
5.595917e+002, 2.134455e+001
5.600739e+002, 2.103348e+001
5.605560e+002, 2.090628e+001
5.610381e+002, 2.122894e+001
5.615202e+002, 2.187879e+001
5.620023e+002, 2.232955e+001
5.624844e+002, 2.226808e+001
5.629666e+002, 2.213357e+001
5.634487e+002, 2.211323e+001
5.639308e+002, 2.222934e+001
5.644129e+002, 2.237578e+001
5.648950e+002, 2.263978e+001
5.653771e+002, 2.283820e+001
5.658593e+002, 2.275802e+001
5.663414e+002, 2.227198e+001
5.668235e+002, 2.210089e+001
5.673056e+002, 2.243612e+001
5.677877e+002, 2.292670e+001
5.682698e+002, 2.284444e+001
5.687520e+002, 2.222738e+001
5.692341e+002, 2.172818e+001
5.697162e+002, 2.160346e+001
5.701983e+002, 2.174077e+001
5.706804e+002, 2.206553e+001
5.711625e+002, 2.252874e+001
5.716447e+002, 2.280036e+001
5.721268e+002, 2.239941e+001
5.726089e+002, 2.185663e+001
5.730910e+002, 2.177290e+001
5.735731e+002, 2.228684e+001
5.740552e+002, 2.267761e+001
5.745374e+002, 2.240214e+001
5.750195e+002, 2.195753e+001
5.755016e+002, 2.180755e+001
5.759837e+002, 2.242997e+001
5.764658e+002, 2.286788e+001
5.769479e+002, 2.303647e+001
5.774301e+002, 2.296878e+001
5.779122e+002, 2.266418e+001
5.783943e+002, 2.180972e+001
5.788764e+002, 2.136576e+001
5.793585e+002, 2.178047e+001
5.798406e+002, 2.286817e+001
5.803228e+002, 2.323146e+001
5.808049e+002, 2.276929e+001
5.812870e+002, 2.223550e+001
5.817691e+002, 2.224912e+001
5.822512e+002, 2.263112e+001
5.827333e+002, 2.254150e+001
5.832155e+002, 2.187820e+001
5.836975e+002, 2.128567e+001
5.841796e+002, 2.152483e+001
5.846617e+002, 2.220362e+001
5.851439e+002, 2.267689e+001
5.856260e+002, 2.274533e+001
5.861081e+002, 2.261168e+001
5.865902e+002, 2.223652e+001
5.870723e+002, 2.176270e+001
5.875544e+002, 2.147153e+001
5.880366e+002, 2.150824e+001
5.885187e+002, 2.166592e+001
5.890008e+002, 2.198121e+001
5.894829e+002, 2.242862e+001
5.899650e+002, 2.259447e+001
5.904471e+002, 2.213608e+001
5.909293e+002, 2.184548e+001
5.914114e+002, 2.224199e+001
5.918935e+002, 2.352083e+001
5.923756e+002, 2.399465e+001
5.928577e+002, 2.344678e+001
5.933398e+002, 2.267794e+001
5.938220e+002, 2.258648e+001
5.943041e+002, 2.307706e+001
5.947862e+002, 2.340862e+001
5.952683e+002, 2.344419e+001
5.957504e+002, 2.328594e+001
5.962325e+002, 2.294341e+001
5.967147e+002, 2.250537e+001
5.971968e+002, 2.220751e+001
5.976789e+002, 2.223609e+001
5.981610e+002, 2.236962e+001
5.986431e+002, 2.245365e+001
5.991252e+002, 2.250424e+001
5.996074e+002, 2.260131e+001
6.000895e+002, 2.298767e+001
6.005716e+002, 2.324661e+001
6.010537e+002, 2.307705e+001
6.015358e+002, 2.229531e+001
6.020179e+002, 2.190989e+001
6.025001e+002, 2.223934e+001
6.029822e+002, 2.266116e+001
6.034643e+002, 2.267297e+001
6.039464e+002, 2.211448e+001
6.044285e+002, 2.178500e+001
6.049106e+002, 2.176193e+001
6.053928e+002, 2.192139e+001
6.058749e+002, 2.215023e+001
6.063570e+002, 2.243307e+001
6.068391e+002, 2.253723e+001
6.073212e+002, 2.228205e+001
6.078033e+002, 2.195243e+001
6.082855e+002, 2.203186e+001
6.087676e+002, 2.242814e+001
6.092497e+002, 2.280517e+001
6.097318e+002, 2.299716e+001
6.102139e+002, 2.307826e+001
6.106960e+002, 2.307081e+001
6.111782e+002, 2.298092e+001
6.116603e+002, 2.290778e+001
6.121424e+002, 2.291782e+001
6.126245e+002, 2.293187e+001
6.131066e+002, 2.288680e+001
6.135887e+002, 2.269257e+001
6.140709e+002, 2.266108e+001
6.145530e+002, 2.301163e+001
6.150351e+002, 2.332763e+001
6.155172e+002, 2.307652e+001
6.159993e+002, 2.205268e+001
6.164814e+002, 2.140542e+001
6.169636e+002, 2.136237e+001
6.174457e+002, 2.167548e+001
6.179278e+002, 2.189352e+001
6.184099e+002, 2.202931e+001
6.188920e+002, 2.222086e+001
6.193741e+002, 2.265458e+001
6.198563e+002, 2.308559e+001
6.203384e+002, 2.305242e+001
6.208205e+002, 2.264275e+001
6.213026e+002, 2.229642e+001
6.217847e+002, 2.230300e+001
6.222668e+002, 2.244363e+001
6.227490e+002, 2.260856e+001
6.232311e+002, 2.280099e+001
6.237132e+002, 2.284604e+001
6.241953e+002, 2.246766e+001
6.246774e+002, 2.208359e+001
6.251595e+002, 2.200506e+001
6.256417e+002, 2.253277e+001
6.261238e+002, 2.276134e+001
6.266059e+002, 2.253718e+001
6.270880e+002, 2.218076e+001
6.275701e+002, 2.218666e+001
6.280522e+002, 2.261629e+001
6.285344e+002, 2.277210e+001
6.290165e+002, 2.239278e+001
6.294986e+002, 2.183369e+001
6.299807e+002, 2.183241e+001
6.304628e+002, 2.230470e+001
6.309449e+002, 2.279125e+001
6.314271e+002, 2.311946e+001
6.319092e+002, 2.331389e+001
6.323913e+002, 2.338738e+001
6.328734e+002, 2.334454e+001
6.333555e+002, 2.321564e+001
6.338376e+002, 2.280567e+001
6.343198e+002, 2.247760e+001
6.348019e+002, 2.251467e+001
6.352840e+002, 2.304642e+001
6.357661e+002, 2.339706e+001
6.362482e+002, 2.339941e+001
6.367303e+002, 2.328485e+001
6.372125e+002, 2.320671e+001
6.376946e+002, 2.319053e+001
6.381767e+002, 2.311525e+001
6.386588e+002, 2.292440e+001
6.391409e+002, 2.276416e+001
6.396230e+002, 2.294268e+001
6.401052e+002, 2.342679e+001
6.405873e+002, 2.365998e+001
6.410694e+002, 2.340090e+001
6.415515e+002, 2.299649e+001
6.420336e+002, 2.297206e+001
6.425157e+002, 2.323846e+001
6.429979e+002, 2.353705e+001
6.434800e+002, 2.376715e+001
6.439621e+002, 2.395982e+001
6.444442e+002, 2.416747e+001
6.449263e+002, 2.437021e+001
6.454084e+002, 2.444612e+001
6.458906e+002, 2.432657e+001
6.463727e+002, 2.409496e+001
6.468548e+002, 2.370685e+001
6.473369e+002, 2.310089e+001
6.478190e+002, 2.286429e+001
6.483011e+002, 2.321394e+001
6.487833e+002, 2.361104e+001
6.492654e+002, 2.358847e+001
6.497475e+002, 2.309229e+001
6.502296e+002, 2.284419e+001
6.507117e+002, 2.289200e+001
6.511938e+002, 2.315240e+001
6.516760e+002, 2.372101e+001
6.521581e+002, 2.443827e+001
6.526402e+002, 2.474750e+001
6.531223e+002, 2.434974e+001
6.536044e+002, 2.382778e+001
6.540865e+002, 2.364151e+001
6.545687e+002, 2.371340e+001
6.550508e+002, 2.388974e+001
6.555329e+002, 2.442823e+001
6.560150e+002, 2.473901e+001
6.564971e+002, 2.434151e+001
6.569792e+002, 2.343938e+001
6.574614e+002, 2.312921e+001
6.579435e+002, 2.404134e+001
6.584256e+002, 2.470857e+001
6.589077e+002, 2.451938e+001
6.593898e+002, 2.352656e+001
6.598719e+002, 2.309439e+001
6.603541e+002, 2.331156e+001
6.608362e+002, 2.367281e+001
6.613183e+002, 2.382076e+001
6.618004e+002, 2.381732e+001
6.622825e+002, 2.395632e+001
6.627646e+002, 2.426487e+001
6.632468e+002, 2.451864e+001
6.637289e+002, 2.449146e+001
6.642110e+002, 2.430166e+001
6.646931e+002, 2.408206e+001
6.651752e+002, 2.381598e+001
6.656573e+002, 2.364492e+001
6.661395e+002, 2.368168e+001
6.666216e+002, 2.382675e+001
6.671037e+002, 2.395760e+001
6.675858e+002, 2.394908e+001
6.680679e+002, 2.408022e+001
6.685500e+002, 2.449192e+001
6.690322e+002, 2.500157e+001
6.695143e+002, 2.517206e+001
6.699964e+002, 2.493815e+001
6.704785e+002, 2.468370e+001
6.709606e+002, 2.450018e+001
6.714427e+002, 2.439236e+001
6.719249e+002, 2.442771e+001
6.724070e+002, 2.458397e+001
6.728891e+002, 2.468064e+001
6.733712e+002, 2.456187e+001
6.738533e+002, 2.435441e+001
6.743354e+002, 2.414625e+001
6.748176e+002, 2.395541e+001
6.752997e+002, 2.392504e+001
6.757818e+002, 2.436007e+001
6.762639e+002, 2.480142e+001
6.767460e+002, 2.492871e+001
6.772281e+002, 2.459343e+001
6.777103e+002, 2.438815e+001
6.781924e+002, 2.439179e+001
6.786745e+002, 2.447308e+001
6.791566e+002, 2.457404e+001
6.796387e+002, 2.474241e+001
6.801208e+002, 2.462951e+001
6.806030e+002, 2.410135e+001
6.810851e+002, 2.359387e+001
6.815672e+002, 2.378483e+001
6.820493e+002, 2.450108e+001
6.825314e+002, 2.499509e+001
6.830135e+002, 2.503525e+001
6.834957e+002, 2.490684e+001
6.839778e+002, 2.485919e+001
6.844599e+002, 2.486289e+001
6.849420e+002, 2.486427e+001
6.854241e+002, 2.498185e+001
6.859063e+002, 2.494684e+001
6.863884e+002, 2.445685e+001
6.868705e+002, 2.370543e+001
6.873526e+002, 2.337286e+001
6.878347e+002, 2.379468e+001
6.883168e+002, 2.419118e+001
6.887990e+002, 2.436870e+001
6.892811e+002, 2.434855e+001
6.897632e+002, 2.418257e+001
6.902453e+002, 2.382645e+001
6.907274e+002, 2.363060e+001
6.912095e+002, 2.395416e+001
6.916917e+002, 2.458473e+001
6.921738e+002, 2.486264e+001
6.926559e+002, 2.478970e+001
6.931380e+002, 2.466064e+001
6.936201e+002, 2.464442e+001
6.941022e+002, 2.470339e+001
6.945844e+002, 2.481368e+001
6.950665e+002, 2.497868e+001
6.955486e+002, 2.514326e+001
6.960307e+002, 2.531520e+001
6.965128e+002, 2.546092e+001
6.969949e+002, 2.555987e+001
6.974771e+002, 2.564211e+001
6.979592e+002, 2.560486e+001
6.984413e+002, 2.538730e+001
6.989234e+002, 2.512939e+001
6.994055e+002, 2.501031e+001
6.998876e+002, 2.503296e+001
7.003698e+002, 2.505072e+001
7.008519e+002, 2.503490e+001
7.013340e+002, 2.501644e+001
7.018161e+002, 2.508806e+001
7.022982e+002, 2.519247e+001
7.027803e+002, 2.517378e+001
7.032625e+002, 2.480198e+001
7.037446e+002, 2.449960e+001
7.042267e+002, 2.458296e+001
7.047088e+002, 2.494267e+001
7.051909e+002, 2.534121e+001
7.056730e+002, 2.600797e+001
7.061552e+002, 2.636122e+001
7.066373e+002, 2.611661e+001
7.071194e+002, 2.543167e+001
7.076015e+002, 2.505167e+001
7.080836e+002, 2.506678e+001
7.085657e+002, 2.513292e+001
7.090479e+002, 2.520403e+001
7.095300e+002, 2.520227e+001
7.100121e+002, 2.454763e+001
7.104942e+002, 2.327981e+001
7.109763e+002, 2.241910e+001
7.114584e+002, 2.295869e+001
7.119406e+002, 2.412766e+001
7.124227e+002, 2.506826e+001
7.129048e+002, 2.572772e+001
7.133869e+002, 2.611212e+001
7.138690e+002, 2.604963e+001
7.143511e+002, 2.584203e+001
7.148333e+002, 2.565430e+001
7.153154e+002, 2.545682e+001
7.157975e+002, 2.548502e+001
7.162796e+002, 2.598281e+001
7.167617e+002, 2.641070e+001
7.172438e+002, 2.624152e+001
7.177260e+002, 2.539024e+001
7.182081e+002, 2.489691e+001
7.186902e+002, 2.485557e+001
7.191723e+002, 2.505427e+001
7.196544e+002, 2.540619e+001
7.201365e+002, 2.579736e+001
7.206187e+002, 2.588187e+001
7.211008e+002, 2.546367e+001
7.215829e+002, 2.509599e+001
7.220650e+002, 2.531265e+001
7.225471e+002, 2.579118e+001
7.230292e+002, 2.610373e+001
7.235114e+002, 2.596052e+001
7.239935e+002, 2.584033e+001
7.244756e+002, 2.579355e+001
7.249577e+002, 2.581979e+001
7.254398e+002, 2.596968e+001
7.259219e+002, 2.636719e+001
7.264041e+002, 2.646013e+001
7.268862e+002, 2.599652e+001
7.273683e+002, 2.529898e+001
7.278504e+002, 2.527569e+001
7.283325e+002, 2.581769e+001
7.288146e+002, 2.617603e+001
7.292968e+002, 2.574875e+001
7.297789e+002, 2.519135e+001
7.302610e+002, 2.543754e+001
7.307431e+002, 2.621864e+001
7.312252e+002, 2.664351e+001
7.317073e+002, 2.587709e+001
7.321895e+002, 2.510996e+001
7.326716e+002, 2.487881e+001
7.331537e+002, 2.517336e+001
7.336358e+002, 2.546741e+001
7.341179e+002, 2.586246e+001
7.346000e+002, 2.608517e+001
7.350822e+002, 2.597802e+001
7.355643e+002, 2.557735e+001
7.360464e+002, 2.520063e+001
7.365285e+002, 2.484282e+001
7.370106e+002, 2.460985e+001
7.374927e+002, 2.464545e+001
7.379749e+002, 2.483050e+001
7.384570e+002, 2.493947e+001
7.389391e+002, 2.496490e+001
7.394212e+002, 2.507697e+001
7.399033e+002, 2.564208e+001
7.403854e+002, 2.614117e+001
7.408676e+002, 2.613469e+001
7.413497e+002, 2.539945e+001
7.418318e+002, 2.485172e+001
7.423139e+002, 2.453485e+001
7.427960e+002, 2.442471e+001
7.432781e+002, 2.455015e+001
7.437603e+002, 2.495728e+001
7.442424e+002, 2.528688e+001
7.447245e+002, 2.553863e+001
7.452066e+002, 2.567975e+001
7.456887e+002, 2.558196e+001
7.461708e+002, 2.535487e+001
7.466530e+002, 2.531269e+001
7.471351e+002, 2.554185e+001
7.476172e+002, 2.578081e+001
7.480993e+002, 2.581666e+001
7.485814e+002, 2.576584e+001
7.490635e+002, 2.576916e+001
7.495457e+002, 2.605643e+001
7.500278e+002, 2.607193e+001
7.505099e+002, 2.552955e+001
7.509920e+002, 2.482770e+001
7.514741e+002, 2.440450e+001
7.519562e+002, 2.428013e+001
7.524384e+002, 2.441045e+001
7.529205e+002, 2.487637e+001
7.534026e+002, 2.540798e+001
7.538847e+002, 2.555514e+001
7.543668e+002, 2.538589e+001
7.548489e+002, 2.517439e+001
7.553311e+002, 2.499802e+001
7.558132e+002, 2.481937e+001
7.562953e+002, 2.449014e+001
7.567774e+002, 2.415808e+001
7.572595e+002, 2.408914e+001
7.577416e+002, 2.485404e+001
7.582238e+002, 2.531562e+001
7.587059e+002, 2.499040e+001
7.591880e+002, 2.425007e+001
7.596701e+002, 2.386071e+001
7.601522e+002, 2.390228e+001
7.606343e+002, 2.403645e+001
7.611165e+002, 2.420442e+001
7.615986e+002, 2.438705e+001
7.620807e+002, 2.452908e+001
7.625628e+002, 2.463934e+001
7.630449e+002, 2.477154e+001
7.635270e+002, 2.505998e+001
7.640092e+002, 2.528382e+001
7.644913e+002, 2.518027e+001
7.649734e+002, 2.483289e+001
7.654555e+002, 2.450159e+001
7.659376e+002, 2.422325e+001
7.664197e+002, 2.403918e+001
7.669019e+002, 2.396388e+001
7.673840e+002, 2.399446e+001
7.678661e+002, 2.417422e+001
7.683482e+002, 2.459281e+001
7.688303e+002, 2.489260e+001
7.693124e+002, 2.489169e+001
7.697946e+002, 2.467457e+001
7.702767e+002, 2.450805e+001
7.707588e+002, 2.439333e+001
7.712409e+002, 2.434212e+001
7.717230e+002, 2.443740e+001
7.722051e+002, 2.454650e+001
7.726873e+002, 2.450884e+001
7.731694e+002, 2.434465e+001
7.736515e+002, 2.422800e+001
7.741336e+002, 2.418790e+001
7.746157e+002, 2.424203e+001
7.750978e+002, 2.446154e+001
7.755800e+002, 2.483345e+001
7.760621e+002, 2.497752e+001
7.765442e+002, 2.481471e+001
7.770263e+002, 2.464824e+001
7.775084e+002, 2.463954e+001
7.779905e+002, 2.476483e+001
7.784727e+002, 2.499076e+001
7.789548e+002, 2.530314e+001
7.794369e+002, 2.545105e+001
7.799190e+002, 2.495395e+001
7.804011e+002, 2.440236e+001
7.808832e+002, 2.454549e+001
7.813654e+002, 2.541398e+001
7.818475e+002, 2.591842e+001
7.823296e+002, 2.527550e+001
7.828117e+002, 2.457279e+001
7.832938e+002, 2.435738e+001
7.837759e+002, 2.467358e+001
7.842581e+002, 2.502163e+001
7.847402e+002, 2.546433e+001
7.852223e+002, 2.573527e+001
7.857044e+002, 2.557807e+001
7.861865e+002, 2.509220e+001
7.866686e+002, 2.461889e+001
7.871508e+002, 2.416894e+001
7.876329e+002, 2.382557e+001
7.881150e+002, 2.363126e+001
7.885971e+002, 2.357958e+001
7.890792e+002, 2.367437e+001
7.895613e+002, 2.391988e+001
7.900435e+002, 2.426752e+001
7.905256e+002, 2.484501e+001
7.910077e+002, 2.540281e+001
7.914898e+002, 2.585169e+001
7.919719e+002, 2.621441e+001
7.924540e+002, 2.623221e+001
7.929362e+002, 2.584644e+001
7.934183e+002, 2.535526e+001
7.939004e+002, 2.489660e+001
7.943825e+002, 2.453885e+001
7.948646e+002, 2.461152e+001
7.953467e+002, 2.514488e+001
7.958289e+002, 2.553757e+001
7.963110e+002, 2.521136e+001
7.967931e+002, 2.464742e+001
7.972752e+002, 2.420893e+001
7.977573e+002, 2.392142e+001
7.982394e+002, 2.386088e+001
7.987216e+002, 2.417019e+001
7.992037e+002, 2.454994e+001
7.996858e+002, 2.483556e+001
8.001679e+002, 2.503141e+001
8.006500e+002, 2.507328e+001
8.011321e+002, 2.493967e+001
8.016143e+002, 2.479239e+001
8.020964e+002, 2.475969e+001
8.025785e+002, 2.482268e+001
8.030606e+002, 2.497873e+001
8.035427e+002, 2.523551e+001
8.040248e+002, 2.544388e+001
8.045070e+002, 2.547363e+001
8.049891e+002, 2.545066e+001
8.054712e+002, 2.547938e+001
8.059533e+002, 2.561163e+001
8.064354e+002, 2.566412e+001
8.069175e+002, 2.564335e+001
8.073997e+002, 2.553146e+001
8.078818e+002, 2.522198e+001
8.083639e+002, 2.472806e+001
8.088460e+002, 2.464588e+001
8.093281e+002, 2.502763e+001
8.098102e+002, 2.542168e+001
8.102924e+002, 2.530473e+001
8.107745e+002, 2.500327e+001
8.112566e+002, 2.498883e+001
8.117387e+002, 2.535063e+001
8.122208e+002, 2.571990e+001
8.127029e+002, 2.597531e+001
8.131851e+002, 2.616192e+001
8.136672e+002, 2.631925e+001
8.141493e+002, 2.647010e+001
8.146314e+002, 2.650691e+001
8.151135e+002, 2.642818e+001
8.155956e+002, 2.623778e+001
8.160778e+002, 2.588098e+001
8.165599e+002, 2.540466e+001
8.170420e+002, 2.499449e+001
8.175241e+002, 2.465731e+001
8.180062e+002, 2.450182e+001
8.184883e+002, 2.477590e+001
8.189705e+002, 2.516806e+001
8.194526e+002, 2.538952e+001
8.199347e+002, 2.539653e+001
8.204168e+002, 2.528357e+001
8.208989e+002, 2.483718e+001
8.213810e+002, 2.449249e+001
8.218632e+002, 2.450632e+001
8.223453e+002, 2.492497e+001
8.228274e+002, 2.528424e+001
8.233095e+002, 2.559553e+001
8.237916e+002, 2.574644e+001
8.242737e+002, 2.546212e+001
8.247559e+002, 2.500399e+001
8.252380e+002, 2.498995e+001
8.257201e+002, 2.544046e+001
8.262022e+002, 2.580536e+001
8.266843e+002, 2.564544e+001
8.271664e+002, 2.536711e+001
8.276486e+002, 2.523753e+001
8.281307e+002, 2.530080e+001
8.286128e+002, 2.539057e+001
8.290949e+002, 2.557788e+001
8.295770e+002, 2.566274e+001
8.300591e+002, 2.540008e+001
8.305413e+002, 2.486344e+001
8.310234e+002, 2.501687e+001
8.315055e+002, 2.585000e+001
8.319876e+002, 2.658645e+001
8.324697e+002, 2.656469e+001
8.329518e+002, 2.622591e+001
8.334340e+002, 2.602782e+001
8.339161e+002, 2.599097e+001
8.343982e+002, 2.595951e+001
8.348803e+002, 2.583105e+001
8.353624e+002, 2.574838e+001
8.358445e+002, 2.581040e+001
8.363267e+002, 2.600502e+001
8.368088e+002, 2.602999e+001
8.372909e+002, 2.585816e+001
8.377730e+002, 2.563726e+001
8.382551e+002, 2.536470e+001
8.387372e+002, 2.512832e+001
8.392194e+002, 2.526892e+001
8.397015e+002, 2.570727e+001
8.401836e+002, 2.598384e+001
8.406657e+002, 2.563101e+001
8.411478e+002, 2.521509e+001
8.416299e+002, 2.512718e+001
8.421121e+002, 2.533442e+001
8.425942e+002, 2.540747e+001
8.430763e+002, 2.522788e+001
8.435584e+002, 2.507535e+001
8.440405e+002, 2.502695e+001
8.445226e+002, 2.507533e+001
8.450048e+002, 2.526603e+001
8.454869e+002, 2.558059e+001
8.459690e+002, 2.573339e+001
8.464511e+002, 2.540149e+001
8.469332e+002, 2.498609e+001
8.474153e+002, 2.503573e+001
8.478975e+002, 2.536836e+001
8.483796e+002, 2.546853e+001
8.488617e+002, 2.477292e+001
8.493438e+002, 2.426801e+001
8.498259e+002, 2.433827e+001
8.503080e+002, 2.476156e+001
8.507902e+002, 2.497571e+001
8.512723e+002, 2.495204e+001
8.517544e+002, 2.486936e+001
8.522365e+002, 2.473722e+001
8.527186e+002, 2.463682e+001
8.532007e+002, 2.479028e+001
8.536829e+002, 2.509702e+001
8.541650e+002, 2.528058e+001
8.546471e+002, 2.513513e+001
8.551292e+002, 2.496872e+001
8.556113e+002, 2.495148e+001
8.560934e+002, 2.500619e+001
8.565756e+002, 2.498741e+001
8.570577e+002, 2.484995e+001
8.575398e+002, 2.470038e+001
8.580219e+002, 2.449530e+001
8.585040e+002, 2.436413e+001
8.589861e+002, 2.464679e+001
8.594683e+002, 2.523691e+001
8.599504e+002, 2.551387e+001
8.604325e+002, 2.525436e+001
8.609146e+002, 2.489934e+001
8.613967e+002, 2.493280e+001
8.618788e+002, 2.507285e+001
8.623610e+002, 2.494092e+001
8.628431e+002, 2.403724e+001
8.633252e+002, 2.363026e+001
8.638073e+002, 2.412376e+001
8.642894e+002, 2.482242e+001
8.647715e+002, 2.505276e+001
8.652537e+002, 2.479735e+001
8.657358e+002, 2.436139e+001
8.662179e+002, 2.371740e+001
8.667000e+002, 2.321082e+001
8.671821e+002, 2.333793e+001
8.676642e+002, 2.376159e+001
8.681464e+002, 2.397326e+001
8.686285e+002, 2.386402e+001
8.691106e+002, 2.379052e+001
8.695927e+002, 2.392378e+001
8.700748e+002, 2.411460e+001
8.705569e+002, 2.429379e+001
8.710391e+002, 2.448846e+001
8.715212e+002, 2.443456e+001
8.720033e+002, 2.406852e+001
8.724854e+002, 2.370322e+001
8.729675e+002, 2.363259e+001
8.734496e+002, 2.372621e+001
8.739318e+002, 2.368196e+001
8.744139e+002, 2.349568e+001
8.748960e+002, 2.325546e+001
8.753781e+002, 2.294735e+001
8.758602e+002, 2.265859e+001
8.763423e+002, 2.241466e+001
8.768245e+002, 2.222883e+001
8.773066e+002, 2.222710e+001
8.777887e+002, 2.251476e+001
8.782708e+002, 2.274981e+001
8.787529e+002, 2.278722e+001
8.792350e+002, 2.267333e+001
8.797172e+002, 2.255136e+001
8.801993e+002, 2.241984e+001
8.806814e+002, 2.225682e+001
8.811635e+002, 2.195386e+001
8.816456e+002, 2.170214e+001
8.821277e+002, 2.168412e+001
8.826099e+002, 2.183508e+001
8.830920e+002, 2.196136e+001
8.835741e+002, 2.204476e+001
8.840562e+002, 2.207348e+001
8.845383e+002, 2.204750e+001
8.850204e+002, 2.196350e+001
8.855026e+002, 2.179267e+001
8.859847e+002, 2.154121e+001
8.864668e+002, 2.129517e+001
8.869489e+002, 2.104862e+001
8.874310e+002, 2.088705e+001
8.879131e+002, 2.094930e+001
8.883953e+002, 2.114655e+001
8.888774e+002, 2.135217e+001
8.893595e+002, 2.167246e+001
8.898416e+002, 2.177140e+001
8.903237e+002, 2.141950e+001
8.908058e+002, 2.098996e+001
8.912880e+002, 2.090210e+001
8.917701e+002, 2.119132e+001
8.922522e+002, 2.139879e+001
8.927343e+002, 2.149646e+001
8.932164e+002, 2.145264e+001
8.936985e+002, 2.113278e+001
8.941807e+002, 2.069334e+001
8.946628e+002, 2.036894e+001
8.951449e+002, 2.021558e+001
8.956270e+002, 2.004206e+001
8.961091e+002, 1.968554e+001
8.965912e+002, 1.937155e+001
8.970734e+002, 1.926420e+001
8.975555e+002, 1.939451e+001
8.980376e+002, 1.931238e+001
8.985197e+002, 1.897205e+001
8.990018e+002, 1.870219e+001
8.994839e+002, 1.877099e+001
8.999661e+002, 1.905427e+001
9.004482e+002, 1.939523e+001
9.009303e+002, 1.976403e+001
9.014124e+002, 1.999475e+001
9.018945e+002, 1.996389e+001
9.023766e+002, 1.982101e+001
9.028588e+002, 1.962643e+001
9.033409e+002, 1.937943e+001
9.038230e+002, 1.896519e+001
9.043051e+002, 1.823156e+001
9.047872e+002, 1.797907e+001
9.052693e+002, 1.872548e+001
9.057515e+002, 1.979256e+001
9.062336e+002, 1.965489e+001
9.067157e+002, 1.867049e+001
9.071978e+002, 1.787794e+001
9.076799e+002, 1.780277e+001
9.081620e+002, 1.789179e+001
9.086442e+002, 1.796757e+001
9.091263e+002, 1.802566e+001
9.096084e+002, 1.804753e+001
9.100905e+002, 1.796974e+001
9.105726e+002, 1.806767e+001
9.110547e+002, 1.845194e+001
9.115369e+002, 1.881528e+001
9.120190e+002, 1.859012e+001
9.125011e+002, 1.802317e+001
9.129832e+002, 1.794308e+001
9.134653e+002, 1.860436e+001
9.139474e+002, 1.898696e+001
9.144296e+002, 1.791629e+001
9.149117e+002, 1.663923e+001
9.153938e+002, 1.633591e+001
9.158759e+002, 1.741296e+001
9.163580e+002, 1.793040e+001
9.168401e+002, 1.768188e+001
9.173223e+002, 1.738289e+001
9.178044e+002, 1.759734e+001
9.182865e+002, 1.816402e+001
9.187686e+002, 1.850750e+001
9.192507e+002, 1.863294e+001
9.197328e+002, 1.864768e+001
9.202150e+002, 1.852424e+001
9.206971e+002, 1.839699e+001
9.211792e+002, 1.844228e+001
9.216613e+002, 1.859898e+001
9.221434e+002, 1.838628e+001
9.226255e+002, 1.750918e+001
9.231077e+002, 1.695616e+001
9.235898e+002, 1.711383e+001
9.240719e+002, 1.765931e+001
9.245540e+002, 1.792303e+001
9.250361e+002, 1.792136e+001
9.255182e+002, 1.769513e+001
9.260004e+002, 1.707211e+001
9.264825e+002, 1.653768e+001
9.269646e+002, 1.643252e+001
9.274467e+002, 1.659147e+001
9.279288e+002, 1.677096e+001
9.284109e+002, 1.689985e+001
9.288931e+002, 1.719316e+001
9.293752e+002, 1.779627e+001
9.298573e+002, 1.828215e+001
9.303394e+002, 1.797936e+001
9.308215e+002, 1.714300e+001
9.313036e+002, 1.671813e+001
9.317858e+002, 1.683485e+001
9.322679e+002, 1.704790e+001
9.327500e+002, 1.709620e+001
9.332321e+002, 1.707905e+001
9.337142e+002, 1.706458e+001
9.341964e+002, 1.705789e+001
9.346785e+002, 1.708864e+001
9.351606e+002, 1.721297e+001
9.356427e+002, 1.723101e+001
9.361248e+002, 1.695687e+001
9.366069e+002, 1.651798e+001
9.370891e+002, 1.635836e+001
9.375712e+002, 1.644494e+001
9.380533e+002, 1.662639e+001
9.385354e+002, 1.696909e+001
9.390175e+002, 1.723256e+001
9.394996e+002, 1.716895e+001
9.399818e+002, 1.692017e+001
9.404639e+002, 1.692011e+001
9.409460e+002, 1.733923e+001
9.414281e+002, 1.757917e+001
9.419102e+002, 1.750847e+001
9.423923e+002, 1.726198e+001
9.428745e+002, 1.696946e+001
9.433566e+002, 1.668123e+001
9.438387e+002, 1.659640e+001
9.443208e+002, 1.684641e+001
9.448029e+002, 1.699344e+001
9.452850e+002, 1.672922e+001
9.457672e+002, 1.628246e+001
9.462493e+002, 1.583363e+001
9.467314e+002, 1.533820e+001
9.472135e+002, 1.503859e+001
9.476956e+002, 1.490959e+001
9.481777e+002, 1.506183e+001
9.486599e+002, 1.592604e+001
9.491420e+002, 1.704832e+001
9.496241e+002, 1.716237e+001
9.501062e+002, 1.635799e+001
9.505883e+002, 1.560104e+001
9.510704e+002, 1.537272e+001
9.515526e+002, 1.535779e+001
9.520347e+002, 1.543548e+001
9.525168e+002, 1.559779e+001
9.529989e+002, 1.591188e+001
9.534810e+002, 1.646800e+001
9.539631e+002, 1.672538e+001
9.544453e+002, 1.645709e+001
9.549274e+002, 1.594346e+001
9.554095e+002, 1.550017e+001
9.558916e+002, 1.519012e+001
9.563737e+002, 1.516493e+001
9.568558e+002, 1.566540e+001
9.573380e+002, 1.609167e+001
9.578201e+002, 1.629638e+001
9.583022e+002, 1.629157e+001
9.587843e+002, 1.602244e+001
9.592664e+002, 1.538622e+001
9.597485e+002, 1.510282e+001
9.602307e+002, 1.522749e+001
9.607128e+002, 1.545193e+001
9.611949e+002, 1.551562e+001
9.616770e+002, 1.550308e+001
9.621591e+002, 1.552131e+001
9.626412e+002, 1.557881e+001
9.631234e+002, 1.566900e+001
9.636055e+002, 1.594327e+001
9.640876e+002, 1.606765e+001
9.645697e+002, 1.585950e+001
9.650518e+002, 1.541972e+001
9.655339e+002, 1.516276e+001
9.660161e+002, 1.508866e+001
9.664982e+002, 1.521650e+001
9.669803e+002, 1.569505e+001
9.674624e+002, 1.614517e+001
9.679445e+002, 1.603486e+001
9.684266e+002, 1.562396e+001
9.689088e+002, 1.534418e+001
9.693909e+002, 1.535050e+001
9.698730e+002, 1.545283e+001
9.703551e+002, 1.569667e+001
9.708372e+002, 1.595098e+001
9.713193e+002, 1.605442e+001
9.718015e+002, 1.602967e+001
9.722836e+002, 1.616203e+001
9.727657e+002, 1.648097e+001
9.732478e+002, 1.665719e+001
9.737299e+002, 1.633601e+001
9.742120e+002, 1.583681e+001
9.746942e+002, 1.530711e+001
9.751763e+002, 1.477322e+001
9.756584e+002, 1.473156e+001
9.761405e+002, 1.549097e+001
9.766226e+002, 1.609337e+001
9.771047e+002, 1.613699e+001
9.775869e+002, 1.582948e+001
9.780690e+002, 1.569188e+001
9.785511e+002, 1.569931e+001
9.790332e+002, 1.575576e+001
9.795153e+002, 1.584166e+001
9.799974e+002, 1.593993e+001
9.804796e+002, 1.606261e+001
9.809617e+002, 1.618243e+001
9.814438e+002, 1.627653e+001
9.819259e+002, 1.639623e+001
9.824080e+002, 1.628471e+001
9.828901e+002, 1.586020e+001
9.833723e+002, 1.546976e+001
9.838544e+002, 1.557784e+001
9.843365e+002, 1.592711e+001
9.848186e+002, 1.600696e+001
9.853007e+002, 1.578101e+001
9.857828e+002, 1.557086e+001
9.862650e+002, 1.536995e+001
9.867471e+002, 1.539106e+001
9.872292e+002, 1.589667e+001
9.877113e+002, 1.670262e+001
9.881934e+002, 1.670191e+001
9.886755e+002, 1.585263e+001
9.891577e+002, 1.518376e+001
9.896398e+002, 1.514660e+001
9.901219e+002, 1.538310e+001
9.906040e+002, 1.558092e+001
9.910861e+002, 1.572092e+001
9.915682e+002, 1.576997e+001
9.920504e+002, 1.566592e+001
9.925325e+002, 1.553681e+001
9.930146e+002, 1.532078e+001
9.934967e+002, 1.517821e+001
9.939788e+002, 1.526129e+001
9.944609e+002, 1.555692e+001
9.949431e+002, 1.609856e+001
9.954252e+002, 1.688495e+001
9.959073e+002, 1.729761e+001
9.963894e+002, 1.643626e+001
9.968715e+002, 1.540963e+001
9.973536e+002, 1.509790e+001
9.978358e+002, 1.549200e+001
9.983179e+002, 1.569360e+001
9.988000e+002, 1.560294e+001
9.992821e+002, 1.553192e+001
9.997642e+002, 1.557796e+001
1.000246e+003, 1.568575e+001
1.000728e+003, 1.578165e+001
1.001211e+003, 1.584560e+001
1.001693e+003, 1.582205e+001
1.002175e+003, 1.569013e+001
1.002657e+003, 1.547730e+001
1.003139e+003, 1.507135e+001
1.003621e+003, 1.467871e+001
1.004103e+003, 1.446220e+001
1.004585e+003, 1.440843e+001
1.005068e+003, 1.471115e+001
1.005550e+003, 1.542328e+001
1.006032e+003, 1.599737e+001
1.006514e+003, 1.584556e+001
1.006996e+003, 1.543360e+001
1.007478e+003, 1.536042e+001
1.007960e+003, 1.558365e+001
1.008442e+003, 1.573273e+001
1.008924e+003, 1.562656e+001
1.009407e+003, 1.552712e+001
1.009889e+003, 1.544377e+001
1.010371e+003, 1.543504e+001
1.010853e+003, 1.578042e+001
1.011335e+003, 1.637763e+001
1.011817e+003, 1.643326e+001
1.012299e+003, 1.562133e+001
1.012781e+003, 1.487661e+001
1.013263e+003, 1.503708e+001
1.013746e+003, 1.551576e+001
1.014228e+003, 1.575840e+001
1.014710e+003, 1.569392e+001
1.015192e+003, 1.551122e+001
1.015674e+003, 1.514633e+001
1.016156e+003, 1.487682e+001
1.016638e+003, 1.490399e+001
1.017120e+003, 1.512527e+001
1.017603e+003, 1.539825e+001
1.018085e+003, 1.568247e+001
1.018567e+003, 1.582637e+001
1.019049e+003, 1.554378e+001
1.019531e+003, 1.538111e+001
1.020013e+003, 1.564228e+001
1.020495e+003, 1.601643e+001
1.020977e+003, 1.601278e+001
1.021459e+003, 1.562021e+001
1.021942e+003, 1.530751e+001
1.022424e+003, 1.512997e+001
1.022906e+003, 1.506026e+001
1.023388e+003, 1.517892e+001
1.023870e+003, 1.531985e+001
1.024352e+003, 1.527380e+001
1.024834e+003, 1.499976e+001
1.025316e+003, 1.488595e+001
1.025799e+003, 1.500534e+001
1.026281e+003, 1.518447e+001
1.026763e+003, 1.538242e+001
1.027245e+003, 1.557144e+001
1.027727e+003, 1.569461e+001
1.028209e+003, 1.575448e+001
1.028691e+003, 1.575693e+001
1.029173e+003, 1.568264e+001
1.029656e+003, 1.558566e+001
1.030138e+003, 1.541313e+001
1.030620e+003, 1.528285e+001
1.031102e+003, 1.533819e+001
1.031584e+003, 1.563290e+001
1.032066e+003, 1.580835e+001
1.032548e+003, 1.585233e+001
1.033030e+003, 1.583046e+001
1.033512e+003, 1.580909e+001
1.033995e+003, 1.574367e+001
1.034477e+003, 1.548725e+001
1.034959e+003, 1.509797e+001
1.035441e+003, 1.495469e+001
1.035923e+003, 1.532632e+001
1.036405e+003, 1.569932e+001
1.036887e+003, 1.605721e+001
1.037369e+003, 1.626418e+001
1.037851e+003, 1.583756e+001
1.038334e+003, 1.500754e+001
1.038816e+003, 1.471234e+001
1.039298e+003, 1.529268e+001
1.039780e+003, 1.582278e+001
1.040262e+003, 1.562626e+001
1.040744e+003, 1.523018e+001
1.041226e+003, 1.507459e+001
1.041708e+003, 1.518637e+001
1.042191e+003, 1.515981e+001
1.042673e+003, 1.498724e+001
1.043155e+003, 1.473654e+001
1.043637e+003, 1.428823e+001
1.044119e+003, 1.391621e+001
1.044601e+003, 1.401896e+001
1.045083e+003, 1.449327e+001
1.045565e+003, 1.509665e+001
1.046047e+003, 1.639026e+001
1.046530e+003, 1.680191e+001
1.047012e+003, 1.580022e+001
1.047494e+003, 1.449371e+001
1.047976e+003, 1.418114e+001
1.048458e+003, 1.466246e+001
1.048940e+003, 1.504645e+001
1.049422e+003, 1.526235e+001
1.049904e+003, 1.532354e+001
1.050386e+003, 1.499290e+001
1.050869e+003, 1.473975e+001
1.051351e+003, 1.501238e+001
1.051833e+003, 1.562520e+001
1.052315e+003, 1.579224e+001
1.052797e+003, 1.546038e+001
1.053279e+003, 1.505470e+001
1.053761e+003, 1.463916e+001
1.054243e+003, 1.431664e+001
1.054726e+003, 1.427303e+001
1.055208e+003, 1.437905e+001
1.055690e+003, 1.444999e+001
1.056172e+003, 1.442019e+001
1.056654e+003, 1.444995e+001
1.057136e+003, 1.455520e+001
1.057618e+003, 1.471521e+001
1.058100e+003, 1.498331e+001
1.058583e+003, 1.528504e+001
1.059065e+003, 1.524074e+001
1.059547e+003, 1.493241e+001
1.060029e+003, 1.473864e+001
1.060511e+003, 1.508024e+001
1.060993e+003, 1.532106e+001
1.061475e+003, 1.512215e+001
1.061957e+003, 1.470023e+001
1.062439e+003, 1.426498e+001
1.062922e+003, 1.376299e+001
1.063404e+003, 1.387138e+001
1.063886e+003, 1.471627e+001
1.064368e+003, 1.545391e+001
1.064850e+003, 1.512369e+001
1.065332e+003, 1.446650e+001
1.065814e+003, 1.423669e+001
1.066296e+003, 1.445447e+001
1.066778e+003, 1.460645e+001
1.067261e+003, 1.466645e+001
1.067743e+003, 1.459268e+001
1.068225e+003, 1.430324e+001
1.068707e+003, 1.399509e+001
1.069189e+003, 1.411874e+001
1.069671e+003, 1.450172e+001
1.070153e+003, 1.473903e+001
1.070635e+003, 1.470843e+001
1.071118e+003, 1.461031e+001
1.071600e+003, 1.443047e+001
1.072082e+003, 1.429778e+001
1.072564e+003, 1.428140e+001
1.073046e+003, 1.437891e+001
1.073528e+003, 1.469153e+001
1.074010e+003, 1.518050e+001
1.074492e+003, 1.530571e+001
1.074974e+003, 1.437518e+001
1.075457e+003, 1.343294e+001
1.075939e+003, 1.335416e+001
1.076421e+003, 1.375508e+001
1.076903e+003, 1.396961e+001
1.077385e+003, 1.385454e+001
1.077867e+003, 1.389582e+001
1.078349e+003, 1.415083e+001
1.078831e+003, 1.440413e+001
1.079313e+003, 1.439354e+001
1.079796e+003, 1.428800e+001
1.080278e+003, 1.439013e+001
1.080760e+003, 1.467131e+001
1.081242e+003, 1.482961e+001
1.081724e+003, 1.477773e+001
1.082206e+003, 1.454456e+001
1.082688e+003, 1.401999e+001
1.083170e+003, 1.346203e+001
1.083652e+003, 1.344368e+001
1.084135e+003, 1.381552e+001
1.084617e+003, 1.400238e+001
1.085099e+003, 1.387878e+001
1.085581e+003, 1.370412e+001
1.086063e+003, 1.352389e+001
1.086545e+003, 1.344380e+001
1.087027e+003, 1.354168e+001
1.087509e+003, 1.379991e+001
1.087992e+003, 1.410022e+001
1.088474e+003, 1.444492e+001
1.088956e+003, 1.464200e+001
1.089438e+003, 1.463548e+001
1.089920e+003, 1.441000e+001
1.090402e+003, 1.365843e+001
1.090884e+003, 1.280525e+001
1.091366e+003, 1.247282e+001
1.091849e+003, 1.298346e+001
1.092331e+003, 1.337942e+001
1.092813e+003, 1.369019e+001
1.093295e+003, 1.378592e+001
1.093777e+003, 1.340195e+001
1.094259e+003, 1.282020e+001
1.094741e+003, 1.251306e+001
1.095223e+003, 1.246669e+001
1.095705e+003, 1.260868e+001
1.096188e+003, 1.312381e+001
1.096670e+003, 1.354800e+001
1.097152e+003, 1.385373e+001
1.097634e+003, 1.398099e+001
1.098116e+003, 1.367919e+001
1.098598e+003, 1.310468e+001
1.099080e+003, 1.315827e+001
1.099562e+003, 1.390797e+001
1.100044e+003, 1.437963e+001
1.100527e+003, 1.347019e+001
1.101009e+003, 1.263509e+001
1.101491e+003, 1.289166e+001
1.101973e+003, 1.380649e+001
1.102455e+003, 1.394740e+001
1.102937e+003, 1.330753e+001
1.103419e+003, 1.274359e+001
1.103901e+003, 1.244514e+001
1.104384e+003, 1.237915e+001
1.104866e+003, 1.278679e+001
1.105348e+003, 1.323798e+001
1.105830e+003, 1.322006e+001
1.106312e+003, 1.259925e+001
1.106794e+003, 1.233576e+001
1.107276e+003, 1.252075e+001
1.107758e+003, 1.270239e+001
1.108240e+003, 1.267639e+001
1.108723e+003, 1.252688e+001
1.109205e+003, 1.226770e+001
1.109687e+003, 1.201303e+001
1.110169e+003, 1.199233e+001
1.110651e+003, 1.249906e+001
1.111133e+003, 1.280698e+001
1.111615e+003, 1.278972e+001
1.112097e+003, 1.271241e+001
1.112579e+003, 1.280523e+001
1.113062e+003, 1.300211e+001
1.113544e+003, 1.310208e+001
1.114026e+003, 1.309791e+001
1.114508e+003, 1.296138e+001
1.114990e+003, 1.241130e+001
1.115472e+003, 1.206718e+001
1.115954e+003, 1.224941e+001
1.116436e+003, 1.263059e+001
1.116919e+003, 1.284231e+001
1.117401e+003, 1.288569e+001
1.117883e+003, 1.266347e+001
1.118365e+003, 1.216695e+001
1.118847e+003, 1.180998e+001
1.119329e+003, 1.197257e+001
1.119811e+003, 1.229597e+001
1.120293e+003, 1.260720e+001
1.120776e+003, 1.288066e+001
1.121258e+003, 1.308439e+001
1.121740e+003, 1.323150e+001
1.122222e+003, 1.313734e+001
1.122704e+003, 1.271090e+001
1.123186e+003, 1.226158e+001
1.123668e+003, 1.203992e+001
1.124150e+003, 1.199929e+001
1.124632e+003, 1.216460e+001
1.125115e+003, 1.256789e+001
1.125597e+003, 1.268328e+001
1.126079e+003, 1.241847e+001
1.126561e+003, 1.215169e+001
1.127043e+003, 1.200681e+001
1.127525e+003, 1.196638e+001
1.128007e+003, 1.205593e+001
1.128489e+003, 1.221002e+001
1.128971e+003, 1.230543e+001
1.129454e+003, 1.225629e+001
1.129936e+003, 1.231138e+001
1.130418e+003, 1.253180e+001
1.130900e+003, 1.278081e+001
1.131382e+003, 1.299712e+001
1.131864e+003, 1.317227e+001
1.132346e+003, 1.331169e+001
1.132828e+003, 1.339479e+001
1.133311e+003, 1.335365e+001
1.133793e+003, 1.305989e+001
1.134275e+003, 1.276671e+001
1.134757e+003, 1.253514e+001
1.135239e+003, 1.231811e+001
1.135721e+003, 1.200135e+001
1.136203e+003, 1.163070e+001
1.136685e+003, 1.170442e+001
1.137167e+003, 1.218190e+001
1.137650e+003, 1.248585e+001
1.138132e+003, 1.205572e+001
1.138614e+003, 1.160099e+001
1.139096e+003, 1.141171e+001
1.139578e+003, 1.144822e+001
1.140060e+003, 1.177553e+001
1.140542e+003, 1.241052e+001
1.141024e+003, 1.253603e+001
1.141506e+003, 1.204228e+001
1.141989e+003, 1.151929e+001
1.142471e+003, 1.138774e+001
1.142953e+003, 1.144899e+001
1.143435e+003, 1.162797e+001
1.143917e+003, 1.187580e+001
1.144399e+003, 1.200197e+001
1.144881e+003, 1.198590e+001
1.145363e+003, 1.199580e+001
1.145846e+003, 1.208679e+001
1.146328e+003, 1.213111e+001
1.146810e+003, 1.190365e+001
1.147292e+003, 1.160898e+001
1.147774e+003, 1.149766e+001
1.148256e+003, 1.161880e+001
1.148738e+003, 1.151806e+001
1.149220e+003, 1.103094e+001
1.149703e+003, 1.092464e+001
1.150185e+003, 1.158795e+001
1.150667e+003, 1.252029e+001
1.151149e+003, 1.322789e+001
1.151631e+003, 1.360696e+001
1.152113e+003, 1.339625e+001
1.152595e+003, 1.224356e+001
1.153077e+003, 1.159926e+001
1.153559e+003, 1.169082e+001
1.154042e+003, 1.196099e+001
1.154524e+003, 1.218789e+001
1.155006e+003, 1.233815e+001
1.155488e+003, 1.224662e+001
1.155970e+003, 1.202607e+001
1.156452e+003, 1.195905e+001
1.156934e+003, 1.227054e+001
1.157416e+003, 1.250098e+001
1.157898e+003, 1.262006e+001
1.158381e+003, 1.261349e+001
1.158863e+003, 1.244446e+001
1.159345e+003, 1.214081e+001
1.159827e+003, 1.175059e+001
1.160309e+003, 1.131732e+001
1.160791e+003, 1.102487e+001
1.161273e+003, 1.096539e+001
1.161755e+003, 1.105951e+001
1.162238e+003, 1.134450e+001
1.162720e+003, 1.169900e+001
1.163202e+003, 1.204631e+001
1.163684e+003, 1.236157e+001
1.164166e+003, 1.246595e+001
1.164648e+003, 1.236877e+001
1.165130e+003, 1.222534e+001
1.165612e+003, 1.208406e+001
1.166094e+003, 1.196090e+001
1.166577e+003, 1.185907e+001
1.167059e+003, 1.178245e+001
1.167541e+003, 1.172694e+001
1.168023e+003, 1.169749e+001
1.168505e+003, 1.181316e+001
1.168987e+003, 1.208820e+001
1.169469e+003, 1.225187e+001
1.169951e+003, 1.195978e+001
1.170433e+003, 1.165273e+001
1.170916e+003, 1.159168e+001
1.171398e+003, 1.171847e+001
1.171880e+003, 1.198354e+001
1.172362e+003, 1.238288e+001
1.172844e+003, 1.242997e+001
1.173326e+003, 1.199597e+001
1.173808e+003, 1.149545e+001
1.174290e+003, 1.107952e+001
1.174773e+003, 1.090034e+001
1.175255e+003, 1.125424e+001
1.175737e+003, 1.199134e+001
1.176219e+003, 1.236320e+001
1.176701e+003, 1.236222e+001
1.177183e+003, 1.216478e+001
1.177665e+003, 1.174560e+001
1.178147e+003, 1.140587e+001
1.178630e+003, 1.149089e+001
1.179112e+003, 1.175504e+001
1.179594e+003, 1.196958e+001
1.180076e+003, 1.211889e+001
1.180558e+003, 1.231429e+001
1.181040e+003, 1.256296e+001
1.181522e+003, 1.282273e+001
1.182004e+003, 1.313977e+001
1.182486e+003, 1.332717e+001
1.182969e+003, 1.305703e+001
1.183451e+003, 1.261066e+001
1.183933e+003, 1.233852e+001
1.184415e+003, 1.231088e+001
1.184897e+003, 1.221943e+001
1.185379e+003, 1.205438e+001
1.185861e+003, 1.187288e+001
1.186343e+003, 1.163937e+001
1.186825e+003, 1.149315e+001
1.187308e+003, 1.178118e+001
1.187790e+003, 1.220154e+001
1.188272e+003, 1.222816e+001
1.188754e+003, 1.153759e+001
1.189236e+003, 1.125315e+001
1.189718e+003, 1.142534e+001
1.190200e+003, 1.175692e+001
1.190682e+003, 1.229402e+001
1.191165e+003, 1.268676e+001
1.191647e+003, 1.217567e+001
1.192129e+003, 1.124579e+001
1.192611e+003, 1.091552e+001
1.193093e+003, 1.184141e+001
1.193575e+003, 1.222973e+001
1.194057e+003, 1.193778e+001
1.194539e+003, 1.159543e+001
1.195021e+003, 1.174524e+001
1.195504e+003, 1.210562e+001
1.195986e+003, 1.231607e+001
1.196468e+003, 1.241191e+001
1.196950e+003, 1.252401e+001
1.197432e+003, 1.283304e+001
1.197914e+003, 1.274992e+001
1.198396e+003, 1.212533e+001
1.198878e+003, 1.151806e+001
1.199360e+003, 1.147880e+001
1.199843e+003, 1.177845e+001
1.200325e+003, 1.232616e+001
1.200807e+003, 1.295419e+001
1.201289e+003, 1.296648e+001
1.201771e+003, 1.169322e+001
1.202253e+003, 1.114078e+001
1.202735e+003, 1.168947e+001
1.203217e+003, 1.248454e+001
1.203700e+003, 1.262992e+001
1.204182e+003, 1.239070e+001
1.204664e+003, 1.205768e+001
1.205146e+003, 1.168229e+001
1.205628e+003, 1.141578e+001
1.206110e+003, 1.122122e+001
1.206592e+003, 1.130424e+001
1.207074e+003, 1.179739e+001
1.207557e+003, 1.228585e+001
1.208039e+003, 1.213915e+001
1.208521e+003, 1.171768e+001
1.209003e+003, 1.151738e+001
1.209485e+003, 1.157738e+001
1.209967e+003, 1.176239e+001
1.210449e+003, 1.218517e+001
1.210931e+003, 1.240062e+001
1.211413e+003, 1.230593e+001
1.211896e+003, 1.200008e+001
1.212378e+003, 1.136974e+001
1.212860e+003, 1.074315e+001
1.213342e+003, 1.071170e+001
1.213824e+003, 1.133797e+001
1.214306e+003, 1.173636e+001
1.214788e+003, 1.167395e+001
1.215270e+003, 1.181504e+001
1.215752e+003, 1.245167e+001
1.216235e+003, 1.306700e+001
1.216717e+003, 1.267503e+001
1.217199e+003, 1.190680e+001
1.217681e+003, 1.181952e+001
1.218163e+003, 1.263110e+001
1.218645e+003, 1.276003e+001
1.219127e+003, 1.181458e+001
1.219609e+003, 1.108450e+001
1.220092e+003, 1.101722e+001
1.220574e+003, 1.125388e+001
1.221056e+003, 1.127755e+001
1.221538e+003, 1.124680e+001
1.222020e+003, 1.144163e+001
1.222502e+003, 1.195640e+001
1.222984e+003, 1.219654e+001
1.223466e+003, 1.204817e+001
1.223948e+003, 1.193213e+001
1.224431e+003, 1.200270e+001
1.224913e+003, 1.217752e+001
1.225395e+003, 1.241835e+001
1.225877e+003, 1.264628e+001
1.226359e+003, 1.274942e+001
1.226841e+003, 1.268473e+001
1.227323e+003, 1.260576e+001
1.227805e+003, 1.254151e+001
1.228287e+003, 1.232133e+001
1.228770e+003, 1.175419e+001
1.229252e+003, 1.121696e+001
1.229734e+003, 1.132598e+001
1.230216e+003, 1.174349e+001
1.230698e+003, 1.201657e+001
1.231180e+003, 1.204868e+001
1.231662e+003, 1.208037e+001
1.232144e+003, 1.210389e+001
1.232627e+003, 1.218244e+001
1.233109e+003, 1.240367e+001
1.233591e+003, 1.259461e+001
1.234073e+003, 1.247819e+001
1.234555e+003, 1.224076e+001
1.235037e+003, 1.212617e+001
1.235519e+003, 1.215764e+001
1.236001e+003, 1.236581e+001
1.236484e+003, 1.278913e+001
1.236966e+003, 1.301687e+001
1.237448e+003, 1.268560e+001
1.237930e+003, 1.230881e+001
1.238412e+003, 1.258638e+001
1.238894e+003, 1.304268e+001
1.239376e+003, 1.293227e+001
1.239858e+003, 1.209431e+001
1.240340e+003, 1.184319e+001
1.240823e+003, 1.221103e+001
1.241305e+003, 1.251623e+001
1.241787e+003, 1.230218e+001
1.242269e+003, 1.201515e+001
1.242751e+003, 1.202563e+001
1.243233e+003, 1.219221e+001
1.243715e+003, 1.235366e+001
1.244197e+003, 1.251376e+001
1.244679e+003, 1.253757e+001
1.245162e+003, 1.242858e+001
1.245644e+003, 1.234737e+001
1.246126e+003, 1.240788e+001
1.246608e+003, 1.248810e+001
1.247090e+003, 1.251333e+001
1.247572e+003, 1.250803e+001
1.248054e+003, 1.245679e+001
1.248536e+003, 1.234665e+001
1.249019e+003, 1.268655e+001
1.249501e+003, 1.341554e+001
1.249983e+003, 1.387726e+001
1.250465e+003, 1.351400e+001
1.250947e+003, 1.303069e+001
1.251429e+003, 1.267535e+001
1.251911e+003, 1.246327e+001
1.252393e+003, 1.243773e+001
1.252875e+003, 1.258789e+001
1.253358e+003, 1.275372e+001
1.253840e+003, 1.291802e+001
1.254322e+003, 1.297423e+001
1.254804e+003, 1.272256e+001
1.255286e+003, 1.254435e+001
1.255768e+003, 1.273155e+001
1.256250e+003, 1.287431e+001
1.256732e+003, 1.247010e+001
1.257214e+003, 1.168268e+001
1.257697e+003, 1.161600e+001
1.258179e+003, 1.213411e+001
1.258661e+003, 1.259070e+001
1.259143e+003, 1.266268e+001
1.259625e+003, 1.269163e+001
1.260107e+003, 1.278536e+001
1.260589e+003, 1.280226e+001
1.261071e+003, 1.248380e+001
1.261554e+003, 1.202073e+001
1.262036e+003, 1.213556e+001
1.262518e+003, 1.265977e+001
1.263000e+003, 1.300917e+001
1.263482e+003, 1.282764e+001
1.263964e+003, 1.266713e+001
1.264446e+003, 1.260855e+001
1.264928e+003, 1.250959e+001
1.265411e+003, 1.212056e+001
1.265893e+003, 1.168122e+001
1.266375e+003, 1.169085e+001
1.266857e+003, 1.203657e+001
1.267339e+003, 1.240890e+001
1.267821e+003, 1.291344e+001
1.268303e+003, 1.302494e+001
1.268785e+003, 1.261004e+001
1.269267e+003, 1.227135e+001
1.269750e+003, 1.270577e+001
1.270232e+003, 1.332415e+001
1.270714e+003, 1.331532e+001
1.271196e+003, 1.289679e+001
1.271678e+003, 1.257865e+001
1.272160e+003, 1.240784e+001
1.272642e+003, 1.237793e+001
1.273124e+003, 1.251251e+001
1.273606e+003, 1.258478e+001
1.274089e+003, 1.238431e+001
1.274571e+003, 1.209412e+001
1.275053e+003, 1.175740e+001
1.275535e+003, 1.150136e+001
1.276017e+003, 1.156391e+001
1.276499e+003, 1.202495e+001
1.276981e+003, 1.223847e+001
1.277463e+003, 1.219469e+001
1.277946e+003, 1.213088e+001
1.278428e+003, 1.228083e+001
1.278910e+003, 1.237073e+001
1.279392e+003, 1.206818e+001
1.279874e+003, 1.172357e+001
1.280356e+003, 1.179888e+001
1.280838e+003, 1.227905e+001
1.281320e+003, 1.253373e+001
1.281802e+003, 1.256649e+001
1.282285e+003, 1.251111e+001
1.282767e+003, 1.240631e+001
1.283249e+003, 1.226377e+001
1.283731e+003, 1.196128e+001
1.284213e+003, 1.176042e+001
1.284695e+003, 1.199740e+001
1.285177e+003, 1.254456e+001
1.285659e+003, 1.281149e+001
1.286141e+003, 1.282519e+001
1.286624e+003, 1.271273e+001
1.287106e+003, 1.225493e+001
1.287588e+003, 1.213075e+001
1.288070e+003, 1.258451e+001
1.288552e+003, 1.302467e+001
1.289034e+003, 1.287205e+001
1.289516e+003, 1.239115e+001
1.289998e+003, 1.207331e+001
1.290481e+003, 1.193735e+001
1.290963e+003, 1.202636e+001
1.291445e+003, 1.257158e+001
1.291927e+003, 1.296758e+001
1.292409e+003, 1.320839e+001
1.292891e+003, 1.331418e+001
1.293373e+003, 1.326919e+001
1.293855e+003, 1.312207e+001
1.294338e+003, 1.281793e+001
1.294820e+003, 1.249230e+001
1.295302e+003, 1.243393e+001
1.295784e+003, 1.272267e+001
1.296266e+003, 1.302345e+001
1.296748e+003, 1.334999e+001
1.297230e+003, 1.343462e+001
1.297712e+003, 1.280121e+001
1.298194e+003, 1.222791e+001
1.298677e+003, 1.246487e+001
1.299159e+003, 1.303784e+001
1.299641e+003, 1.336495e+001
1.300123e+003, 1.344288e+001
1.300605e+003, 1.338207e+001
1.301087e+003, 1.320289e+001
1.301569e+003, 1.309938e+001
1.302051e+003, 1.334888e+001
1.302533e+003, 1.340899e+001
1.303016e+003, 1.308645e+001
##END=



