##NAMES=Stibarsen
##RRUFFID=R060115
##IDEAL CHEMISTRY=SbAs
##LOCALITY=Moctezuma, Sonora, Mexico
##OWNER=RRUFF
##SOURCE=University of Arizona Mineral Museum
##DESCRIPTION=Tin-white reniform mass with many small inclusions of antimony
##STATUS=The identification of this mineral is confirmed by single-crystal X-ray diffraction and chemical analysis.
##URL=rruff.info/R060115
##MEASURED CHEMISTRY=gray phase: Sb_1.00_As_1.00_; light inclusions: Sb_2.00_(Sb_1.12_As_0.88_)_Î£=2_
92.02539, 89.38262
92.50751, 91.76778
92.98962, 93.54333
93.47174, 92.74174
93.95386, 90.89272
94.43597, 88.72340
94.91809, 86.66296
95.40021, 84.70977
95.88232, 82.50591
96.36444, 79.94267
96.84656, 77.29491
97.32867, 74.66880
97.81078, 72.07922
98.29290, 69.53085
98.77502, 66.97816
99.25713, 64.30923
99.73925, 61.72752
100.2214, 59.17785
100.7035, 56.73133
101.1856, 54.36608
101.6677, 52.09099
102.1498, 49.99404
102.6320, 48.19197
103.1141, 46.76831
103.5962, 45.46327
104.0783, 44.30924
104.5604, 43.24382
105.0425, 42.20721
105.5247, 41.17279
106.0068, 40.16308
106.4889, 39.21277
106.9710, 38.30968
107.4531, 37.45562
107.9352, 36.62224
108.4173, 35.82205
108.8995, 35.12025
109.3816, 34.53250
109.8637, 34.07394
110.3458, 33.75875
110.8279, 33.60225
111.3100, 33.53136
111.7922, 33.44831
112.2743, 33.32246
112.7564, 33.28947
113.2385, 33.48163
113.7206, 33.73303
114.2027, 33.91497
114.6849, 33.97350
115.1670, 33.91206
115.6491, 33.72798
116.1312, 33.11580
116.6133, 32.74656
117.0954, 32.92774
117.5776, 33.39409
118.0597, 33.73793
118.5418, 33.66391
119.0239, 33.16357
119.5060, 32.78817
119.9881, 32.58560
120.4703, 32.43210
120.9524, 32.31297
121.4345, 32.21020
121.9166, 32.08032
122.3987, 31.89136
122.8808, 31.63199
123.3630, 31.28319
123.8451, 30.73290
124.3272, 30.14884
124.8093, 29.71557
125.2914, 29.47400
125.7735, 29.29711
126.2557, 29.03323
126.7378, 28.70300
127.2199, 28.40838
127.7020, 28.19480
128.1841, 28.04871
128.6662, 27.93785
129.1483, 27.88904
129.6305, 27.83436
130.1126, 27.73351
130.5947, 27.58575
131.0768, 27.39483
131.5589, 27.13943
132.0410, 26.80534
132.5232, 26.52460
133.0053, 26.35217
133.4874, 26.21151
133.9695, 26.06988
134.4516, 25.91950
134.9337, 25.77074
135.4159, 25.63124
135.8980, 25.46643
136.3801, 25.38591
136.8622, 25.46697
137.3443, 25.58179
137.8264, 25.64000
138.3086, 25.60490
138.7907, 25.47802
139.2728, 25.26263
139.7549, 24.84289
140.2370, 24.46249
140.7191, 24.17350
141.2013, 23.92853
141.6834, 23.63968
142.1655, 23.24851
142.6476, 22.80306
143.1297, 22.52486
143.6118, 22.59722
144.0939, 22.61129
144.5761, 22.33077
145.0582, 21.81814
145.5403, 21.36307
146.0224, 21.16156
146.5045, 21.14520
146.9866, 21.06436
147.4688, 20.84964
147.9509, 20.61800
148.4330, 20.50079
148.9151, 20.51810
149.3972, 20.52269
149.8793, 20.35049
150.3615, 20.12446
150.8436, 20.01407
151.3257, 20.15959
151.8078, 20.41909
152.2899, 20.45576
152.7720, 20.16782
153.2542, 19.81956
153.7363, 19.47784
154.2184, 19.16367
154.7005, 18.90962
155.1826, 18.74871
155.6647, 18.67099
156.1469, 18.57740
156.6290, 18.44931
157.1111, 18.32259
157.5932, 18.20010
158.0753, 18.08576
158.5574, 17.98567
159.0396, 17.90435
159.5217, 17.84180
160.0038, 17.80055
160.4859, 17.85258
160.9680, 17.86007
161.4501, 17.71912
161.9323, 17.45729
162.4144, 17.20422
162.8965, 17.10109
163.3786, 17.19852
163.8607, 17.23412
164.3428, 17.16936
164.8250, 17.07565
165.3071, 17.00550
165.7892, 16.96671
166.2713, 16.92883
166.7534, 16.83629
167.2355, 16.67016
167.7177, 16.60900
168.1998, 16.78162
168.6819, 17.03142
169.1640, 17.14145
169.6461, 17.04775
170.1282, 16.88651
170.6104, 16.82304
171.0925, 16.84463
171.5746, 16.87143
172.0567, 16.88248
172.5388, 16.87613
173.0209, 16.84264
173.5031, 16.76252
173.9852, 16.67929
174.4673, 16.65014
174.9494, 16.66701
175.4315, 16.64891
175.9136, 16.48628
176.3958, 16.18727
176.8779, 16.01908
177.3600, 16.17174
177.8421, 16.34060
178.3242, 16.34653
178.8063, 16.18649
179.2885, 15.96853
179.7706, 15.78249
180.2527, 15.61673
180.7348, 15.53805
181.2169, 15.63853
181.6990, 15.76015
182.1812, 15.81958
182.6633, 15.80485
183.1454, 15.75886
183.6275, 15.73388
184.1096, 15.70930
184.5917, 15.75864
185.0738, 15.98397
185.5560, 16.20255
186.0381, 16.26507
186.5202, 16.14219
187.0023, 15.93467
187.4844, 15.81427
187.9665, 15.84933
188.4487, 15.87129
188.9308, 15.96644
189.4129, 16.00837
189.8950, 15.85892
190.3771, 15.47508
190.8592, 14.94603
191.3414, 14.42927
191.8235, 13.86341
192.3056, 13.43157
192.7877, 13.20323
193.2698, 13.10832
193.7519, 13.08783
194.2341, 13.14123
194.7162, 13.18766
195.1983, 13.01031
195.6804, 12.52941
196.1625, 12.15199
196.6446, 12.05532
197.1268, 12.15099
197.6089, 12.24451
198.0910, 12.27864
198.5731, 12.27191
199.0552, 12.26133
199.5373, 12.25342
200.0195, 12.21578
200.5016, 12.08477
200.9837, 11.88973
201.4658, 11.79333
201.9479, 11.90696
202.4300, 12.07810
202.9122, 12.14350
203.3943, 12.09565
203.8764, 11.98397
204.3585, 11.80461
204.8406, 11.55800
205.3227, 11.39916
205.8048, 11.46307
206.2870, 11.55794
206.7691, 11.53353
207.2512, 11.37455
207.7333, 11.19265
208.2154, 11.09850
208.6975, 11.09869
209.1797, 11.14867
209.6618, 11.35611
210.1439, 11.53387
210.6260, 11.55841
211.1081, 11.41505
211.5902, 11.19776
212.0724, 11.01057
212.5545, 10.83952
213.0366, 10.75010
213.5187, 10.79215
214.0008, 10.87612
214.4829, 10.97946
214.9651, 11.08423
215.4472, 11.14839
215.9293, 11.08916
216.4114, 10.78128
216.8935, 10.61511
217.3756, 10.62656
217.8578, 10.72567
218.3399, 10.88721
218.8220, 11.08943
219.3041, 11.28186
219.7862, 11.38533
220.2683, 11.36319
220.7505, 11.30928
221.2326, 11.17019
221.7147, 11.03531
222.1968, 11.00102
222.6789, 11.08047
223.1610, 11.17725
223.6432, 11.14285
224.1253, 10.87097
224.6074, 10.68229
225.0895, 10.59153
225.5716, 10.57325
226.0537, 10.63449
226.5358, 10.77213
227.0180, 10.91605
227.5001, 10.96184
227.9822, 10.86885
228.4643, 10.80137
228.9464, 10.77429
229.4285, 10.77482
229.9107, 10.80647
230.3928, 10.87199
230.8749, 10.92409
231.3570, 10.88780
231.8391, 10.75373
232.3212, 10.64164
232.8034, 10.56400
233.2855, 10.52083
233.7676, 10.52988
234.2497, 10.60374
234.7318, 10.67360
235.2139, 10.61411
235.6961, 10.44586
236.1782, 10.38751
236.6603, 10.63283
237.1424, 10.97940
237.6245, 11.08525
238.1066, 10.85539
238.5888, 10.56448
239.0709, 10.47515
239.5530, 10.53503
240.0351, 10.60198
240.5172, 10.61443
240.9993, 10.60561
241.4815, 10.63808
241.9636, 10.71988
242.4457, 10.83360
242.9278, 11.02801
243.4099, 11.24779
243.8920, 11.36215
244.3742, 11.24011
244.8563, 10.98646
245.3384, 10.85750
245.8205, 10.91572
246.3026, 10.95851
246.7847, 10.84383
247.2668, 10.64384
247.7490, 10.47301
248.2311, 10.39571
248.7132, 10.37503
249.1953, 10.31021
249.6774, 10.16318
250.1595, 10.05193
250.6417, 10.07749
251.1238, 10.15023
251.6059, 10.14723
252.0880, 9.994082
252.5701, 9.754862
253.0522, 9.589823
253.5344, 9.530746
254.0165, 9.489295
254.4986, 9.449756
254.9807, 9.406219
255.4628, 9.345598
255.9449, 9.258389
256.4271, 9.166320
256.9092, 9.128568
257.3913, 9.197063
257.8734, 9.219647
258.3555, 8.935719
258.8376, 9.216665
259.3198, 9.364545
259.8019, 9.386518
260.2840, 8.905466
260.7661, 9.073967
261.2482, 8.982157
261.7303, 8.879673
262.2125, 9.061125
262.6946, 9.031167
263.1767, 8.928905
263.6588, 8.766800
264.1409, 8.599734
264.6230, 8.532374
265.1052, 8.640137
265.5873, 8.702550
266.0694, 8.660070
266.5515, 8.608170
267.0336, 8.643741
267.5157, 8.776488
267.9979, 8.911870
268.4800, 8.889963
268.9621, 8.563737
269.4442, 8.406139
269.9263, 8.526095
270.4084, 8.699554
270.8906, 8.799462
271.3727, 8.800406
271.8548, 8.734186
272.3369, 8.622130
272.8190, 8.406163
273.3011, 8.352942
273.7833, 8.580420
274.2654, 8.838532
274.7475, 8.981251
275.2296, 9.009321
275.7117, 9.018902
276.1938, 9.114480
276.6760, 9.329289
277.1581, 9.418222
277.6402, 9.244582
278.1223, 9.101182
278.6044, 9.185514
279.0865, 9.439327
279.5686, 9.641302
280.0508, 9.604403
280.5329, 9.322802
281.0150, 9.095388
281.4971, 8.888452
281.9792, 8.755239
282.4613, 8.787388
282.9435, 8.914068
283.4256, 8.959108
283.9077, 8.792033
284.3898, 8.451501
284.8719, 8.299267
285.3540, 8.536427
285.8362, 8.704585
286.3183, 8.658217
286.8004, 8.216986
287.2825, 8.521041
287.7646, 8.692035
288.2467, 8.737119
288.7289, 8.279177
289.2110, 8.470788
289.6931, 8.402087
290.1752, 8.322712
290.6573, 8.605745
291.1394, 8.220966
291.6216, 8.498251
292.1037, 8.511252
292.5858, 8.519049
293.0679, 8.197007
293.5500, 8.015164
294.0321, 8.160032
294.5143, 8.410976
294.9964, 8.516247
295.4785, 8.408537
295.9606, 8.197282
296.4427, 8.027279
296.9248, 7.904123
297.4070, 7.817001
297.8891, 7.793725
298.3712, 7.789678
298.8533, 7.757064
299.3354, 7.691408
299.8175, 7.637406
300.2997, 7.650905
300.7818, 7.749077
301.2639, 7.532238
301.7460, 7.824923
302.2281, 7.984547
302.7102, 8.018260
303.1924, 7.548945
303.6745, 7.729187
304.1566, 7.649117
304.6387, 7.558373
305.1208, 7.830037
305.6029, 7.433888
306.0851, 7.699802
306.5672, 7.701435
307.0493, 7.824024
307.5314, 7.684692
308.0135, 7.626261
308.4956, 7.829832
308.9778, 7.888327
309.4599, 7.718846
309.9420, 7.739574
310.4241, 7.693373
310.9062, 7.526613
311.3883, 7.391681
311.8705, 7.354572
312.3526, 7.370236
312.8347, 7.331811
313.3168, 7.190132
313.7989, 7.115762
314.2810, 7.202973
314.7632, 7.355327
315.2453, 7.452178
315.7274, 7.460928
316.2095, 7.403905
316.6916, 7.292670
317.1737, 7.101138
317.6559, 6.975559
318.1380, 6.940396
318.6201, 6.968499
319.1022, 7.073532
319.5843, 7.247879
320.0664, 7.385470
320.5485, 7.379888
321.0306, 7.215428
321.5128, 7.063105
321.9949, 6.863002
322.4770, 6.723174
322.9591, 6.764816
323.4412, 6.951753
323.9233, 7.102300
324.4055, 7.084524
324.8876, 6.927072
325.3697, 6.846637
325.8518, 6.880280
326.3339, 6.936524
326.8160, 7.011970
327.2982, 7.084538
327.7803, 7.097277
328.2624, 7.013416
328.7445, 6.879552
329.2266, 6.827656
329.7087, 6.927198
330.1909, 6.972232
330.6730, 6.864172
331.1551, 6.701884
331.6372, 6.622540
332.1193, 6.666827
332.6014, 6.762573
333.0836, 6.809674
333.5657, 6.793422
334.0478, 6.763374
334.5299, 6.728914
335.0120, 6.676256
335.4941, 6.570524
335.9763, 6.418036
336.4584, 6.288446
336.9405, 6.252328
337.4226, 6.319953
337.9047, 6.372002
338.3868, 6.385163
338.8690, 6.406759
339.3511, 6.487237
339.8332, 6.601811
340.3153, 6.675004
340.7974, 6.658107
341.2795, 6.561272
341.7617, 6.444274
342.2438, 6.216520
342.7259, 6.077110
343.2080, 6.155429
343.6901, 6.329597
344.1722, 6.398913
344.6544, 6.277758
345.1365, 6.070605
345.6186, 5.994608
346.1007, 6.155932
346.5828, 6.299118
347.0649, 6.490054
347.5471, 6.622483
348.0292, 6.549955
348.5113, 6.268716
348.9934, 5.954677
349.4755, 5.822360
349.9576, 5.916076
350.4398, 6.024232
350.9219, 6.196699
351.4040, 6.337131
351.8861, 6.378747
352.3682, 6.338891
352.8503, 6.279159
353.3325, 6.243818
353.8146, 6.232006
354.2967, 6.230978
354.7788, 6.299298
355.2609, 6.311776
355.7430, 6.163883
356.2252, 5.964367
356.7073, 5.869743
357.1894, 5.710554
357.6715, 6.013941
358.1536, 6.182130
358.6357, 6.222385
359.1179, 5.751532
359.5999, 5.940670
360.0821, 5.865313
360.5642, 5.779110
361.0463, 6.061139
361.5284, 5.664626
362.0105, 5.940815
362.4926, 5.948473
362.9748, 6.079031
363.4569, 5.747908
363.9390, 5.696512
364.4211, 5.618677
364.9032, 5.524373
365.3853, 5.488051
365.8675, 5.579957
366.3496, 5.779816
366.8317, 5.889868
367.3138, 5.823427
367.7959, 5.772662
368.2780, 5.780745
368.7602, 5.826796
369.2423, 5.893555
369.7244, 5.975184
370.2065, 6.048201
370.6886, 6.063047
371.1707, 6.002120
371.6529, 5.924794
372.1350, 5.796323
372.6171, 5.685699
373.0992, 5.650280
373.5813, 5.692270
374.0634, 5.754551
374.5456, 5.769148
375.0277, 5.731713
375.5098, 5.744780
375.9919, 5.882559
376.4740, 5.990911
376.9561, 5.990512
377.4383, 5.907788
377.9204, 5.806941
378.4025, 5.723043
378.8846, 5.646651
379.3667, 5.536141
379.8488, 5.353930
380.3310, 5.237010
380.8131, 5.310075
381.2952, 5.444214
381.7773, 5.492757
382.2594, 5.399877
382.7415, 5.304090
383.2237, 5.395412
383.7058, 5.672364
384.1879, 5.865056
384.6700, 5.900993
385.1521, 5.830381
385.6342, 5.675713
386.1164, 5.447081
386.5985, 5.255006
387.0806, 5.099956
387.5627, 5.032640
388.0448, 5.041657
388.5269, 5.352478
389.0091, 5.528101
389.4912, 5.575791
389.9733, 5.112372
390.4554, 5.308945
390.9375, 5.241023
391.4196, 5.162255
391.9018, 5.162422
392.3839, 5.066438
392.8660, 5.014387
393.3481, 5.024963
393.8302, 5.082817
394.3123, 5.164828
394.7945, 5.292129
395.2766, 5.376504
395.7587, 5.378592
396.2408, 5.316297
396.7229, 5.177888
397.2050, 4.944952
397.6872, 4.778391
398.1693, 4.911648
398.6514, 5.382345
399.1335, 5.639374
399.6156, 5.490007
400.0977, 5.258093
400.5798, 5.173194
401.0620, 5.219957
401.5441, 5.266571
402.0262, 5.230368
402.5083, 5.130237
402.9904, 5.061906
403.4725, 5.008249
403.9547, 5.001390
404.4368, 5.110766
404.9189, 5.246545
405.4010, 5.263212
405.8831, 5.122408
406.3652, 4.962249
406.8474, 5.005810
407.3295, 5.399837
407.8116, 5.560540
408.2937, 5.320107
408.7758, 5.024763
409.2579, 4.822058
409.7401, 4.734995
410.2222, 4.760719
410.7043, 4.913103
411.1864, 5.169238
411.6685, 5.331984
412.1506, 5.341533
412.6328, 5.322323
413.1149, 5.286102
413.5970, 5.234164
414.0791, 5.155394
414.5612, 5.048259
415.0433, 4.944818
415.5255, 4.895678
416.0076, 4.909970
416.4897, 4.947176
416.9718, 5.017778
417.4539, 5.100415
417.9360, 5.212186
418.4182, 5.333315
418.9003, 5.406296
419.3824, 5.386536
419.8645, 5.286280
420.3466, 5.150052
420.8287, 4.950589
421.3109, 4.774015
421.7930, 4.619416
422.2751, 4.519394
422.7572, 4.540278
423.2393, 4.721584
423.7214, 4.923408
424.2036, 4.978970
424.6857, 4.894412
425.1678, 4.834443
425.6499, 4.836000
426.1320, 4.873692
426.6141, 4.951136
427.0963, 5.057160
427.5784, 5.097253
428.0605, 4.953589
428.5426, 4.751410
429.0247, 4.709628
429.5068, 4.848795
429.9890, 4.978552
430.4711, 4.958799
430.9532, 4.844156
431.4353, 4.822322
431.9174, 4.973460
432.3995, 5.099174
432.8817, 5.067037
433.3638, 4.940914
433.8459, 4.854939
434.3280, 4.851800
434.8101, 4.893550
435.2922, 4.938304
435.7744, 4.997656
436.2565, 5.000781
436.7386, 4.876406
437.2207, 4.749994
437.7028, 4.727468
438.1849, 4.791009
438.6671, 4.842215
439.1492, 4.810894
439.6313, 4.716582
440.1134, 4.674950
440.5955, 4.719345
441.0776, 4.776684
441.5598, 4.899620
442.0418, 5.001326
442.5240, 4.957993
443.0061, 4.753531
443.4882, 4.521128
443.9703, 4.444478
444.4524, 4.567485
444.9345, 4.639316
445.4167, 4.604635
445.8988, 4.572661
446.3809, 4.590861
446.8630, 4.639612
447.3451, 4.671976
447.8272, 4.655587
448.3094, 4.620279
448.7915, 4.649218
449.2736, 4.770908
449.7557, 4.875184
450.2378, 4.956095
450.7199, 4.995749
451.2021, 4.957682
451.6842, 4.844462
452.1663, 4.733633
452.6484, 4.671344
453.1305, 4.659296
453.6126, 4.730798
454.0948, 4.938371
454.5769, 5.106857
455.0590, 5.043990
455.5411, 4.868686
456.0232, 4.798474
456.5053, 4.958611
456.9875, 5.129846
457.4696, 5.092604
457.9517, 4.894494
458.4338, 4.763938
458.9159, 4.797440
459.3980, 4.888029
459.8802, 4.854979
460.3623, 4.682416
460.8444, 4.574214
461.3265, 4.623085
461.8086, 4.713087
462.2907, 4.731322
462.7729, 4.681290
463.2550, 4.639322
463.7371, 4.654535
464.2192, 4.722455
464.7013, 4.819947
465.1834, 5.080779
465.6656, 5.199999
466.1477, 5.003382
466.6298, 4.710032
467.1119, 4.560762
467.5940, 4.607964
468.0761, 4.738345
468.5583, 4.819145
469.0404, 4.842027
469.5225, 4.873073
470.0046, 4.970847
470.4867, 5.014995
470.9688, 4.922498
471.4510, 4.760686
471.9331, 4.639649
472.4152, 4.612847
472.8973, 4.641809
473.3794, 4.652051
473.8615, 4.633542
474.3437, 4.639912
474.8258, 4.734123
475.3079, 4.811737
475.7900, 4.776341
476.2721, 4.649284
476.7542, 4.559613
477.2364, 4.644085
477.7185, 4.809842
478.2006, 4.817616
478.6827, 4.635252
479.1648, 4.486319
479.6469, 4.525111
480.1291, 4.651868
480.6112, 4.669138
481.0933, 4.510643
481.5754, 4.405855
482.0575, 4.549411
482.5396, 4.807554
483.0217, 4.919527
483.5038, 4.829959
483.9860, 4.673681
484.4681, 4.563396
484.9502, 4.502923
485.4323, 4.492260
485.9144, 4.566124
486.3965, 4.649376
486.8787, 4.753193
487.3608, 4.836332
487.8429, 4.806110
488.3250, 4.625807
488.8071, 4.389235
489.2892, 4.265678
489.7714, 4.300473
490.2535, 4.339706
490.7356, 4.381274
491.2177, 4.428283
491.6998, 4.489251
492.1819, 4.556921
492.6641, 4.615188
493.1462, 4.653820
493.6283, 4.675867
494.1104, 4.704491
494.5925, 4.780275
495.0746, 4.751786
495.5568, 4.399632
496.0389, 4.059350
496.5210, 4.016994
497.0031, 4.271108
497.4852, 4.527792
497.9673, 4.555360
498.4495, 4.429915
498.9316, 4.348676
499.4137, 4.314577
499.8958, 4.350069
500.3779, 4.575514
500.8600, 4.840835
501.3422, 4.809870
501.8243, 4.282981
502.3064, 3.859818
502.7885, 3.931421
503.2706, 4.283533
503.7527, 4.543487
504.2349, 4.630443
504.7170, 4.632552
505.1991, 4.627463
505.6812, 4.614764
506.1633, 4.597800
506.6454, 4.560758
507.1276, 4.537321
507.6097, 4.574861
508.0918, 4.624032
508.5739, 4.587436
509.0560, 4.433165
509.5381, 4.255411
510.0203, 4.213277
510.5024, 4.357122
510.9845, 4.463919
511.4666, 4.515735
511.9487, 4.547776
512.4308, 4.570154
512.9130, 4.583145
513.3951, 4.590833
513.8772, 4.602023
514.3593, 4.588222
514.8414, 4.467023
515.3235, 4.212626
515.8057, 4.045039
516.2878, 4.034439
516.7699, 4.111760
517.2520, 4.238518
517.7341, 4.404529
518.2162, 4.546250
518.6984, 4.680357
519.1805, 4.751513
519.6626, 4.633447
520.1447, 4.343199
520.6268, 4.122432
521.1089, 4.100194
521.5911, 4.199680
522.0732, 4.254894
522.5553, 4.270039
523.0374, 4.243714
523.5195, 4.097748
524.0016, 3.964357
524.4838, 3.986935
524.9659, 4.149916
525.4480, 4.328873
525.9301, 4.440244
526.4122, 4.484406
526.8943, 4.458833
527.3765, 4.273962
527.8586, 4.147966
528.3407, 4.123734
528.8228, 4.144478
529.3049, 4.179707
529.7870, 4.216574
530.2692, 4.234564
530.7513, 4.191613
531.2334, 4.111134
531.7155, 4.147359
532.1976, 4.352372
532.6797, 4.552566
533.1619, 4.693298
533.6440, 4.782433
534.1261, 4.816774
534.6082, 4.791079
535.0903, 4.746505
535.5724, 4.707090
536.0546, 4.668432
536.5367, 4.611252
537.0188, 4.530279
537.5009, 4.473003
537.9830, 4.484014
538.4651, 4.549097
538.9473, 4.584013
539.4294, 4.521046
539.9115, 4.515540
540.3936, 4.713881
540.8757, 4.945191
541.3578, 4.955526
541.8400, 4.717454
542.3221, 4.454834
542.8042, 4.404947
543.2863, 4.572111
543.7684, 4.683950
544.2505, 4.726696
544.7326, 4.724452
545.2147, 4.630408
545.6968, 4.519464
546.1790, 4.488076
546.6611, 4.555458
547.1432, 4.631066
547.6253, 4.586809
548.1074, 4.440236
548.5895, 4.425059
549.0717, 4.643291
549.5538, 4.792831
550.0359, 4.586739
550.5180, 4.222934
551.0001, 3.997736
551.4822, 3.995041
551.9644, 4.047531
552.4465, 4.043449
552.9286, 4.021326
553.4107, 4.086293
553.8928, 4.261271
554.3749, 4.410582
554.8571, 4.396574
555.3392, 4.225500
555.8213, 4.145488
556.3034, 4.223886
556.7855, 4.296691
557.2676, 4.320861
557.7498, 4.317207
558.2319, 4.304245
558.7140, 4.289939
559.1961, 4.284190
559.6782, 4.295746
560.1603, 4.324326
560.6425, 4.388324
561.1246, 4.569435
561.6067, 4.660470
562.0888, 4.507164
562.5709, 4.286037
563.0530, 4.213741
563.5352, 4.346153
564.0173, 4.510268
564.4994, 4.588489
564.9815, 4.581222
565.4636, 4.456910
565.9457, 4.183291
566.4279, 3.945724
566.9100, 3.878960
567.3921, 3.947614
567.8742, 4.002948
568.3563, 4.035036
568.8384, 4.070397
569.3206, 4.135686
569.8027, 4.200211
570.2848, 4.220223
570.7669, 4.193223
571.2490, 4.156275
571.7311, 4.142462
572.2133, 4.148407
572.6954, 4.136413
573.1775, 4.063267
573.6596, 4.033240
574.1417, 4.090653
574.6238, 4.173627
575.1060, 4.214166
575.5881, 3.966452
576.0702, 4.275845
576.5523, 4.450039
577.0344, 4.496299
577.5165, 4.031452
577.9987, 4.226594
578.4808, 4.157243
578.9629, 4.077045
579.4450, 4.365079
579.9271, 3.974571
580.4092, 4.256765
580.8914, 4.270429
581.3735, 4.406991
581.8556, 4.277427
582.3377, 4.230061
582.8198, 4.448908
583.3019, 4.520351
583.7841, 4.156893
584.2662, 4.048585
584.7483, 3.978284
585.2304, 3.942720
585.7125, 3.955495
586.1946, 4.095857
586.6768, 4.211812
587.1589, 4.162599
587.6410, 4.007240
588.1231, 3.923232
588.6052, 4.026111
589.0873, 4.218756
589.5695, 4.304608
590.0516, 4.277032
590.5337, 3.907591
591.0158, 4.216781
591.4979, 4.390772
591.9800, 4.436830
592.4622, 3.971779
592.9443, 4.166718
593.4264, 4.097164
593.9085, 4.016763
594.3906, 4.304594
594.8727, 3.913882
595.3549, 4.435325
595.8370, 4.373255
596.3191, 4.190638
596.8012, 4.119298
597.2833, 4.177339
597.7654, 4.220514
598.2476, 4.262629
598.7297, 4.276636
599.2118, 4.261019
599.6939, 3.972421
600.1760, 4.290785
600.6581, 4.473950
601.1403, 4.529184
601.6224, 4.073307
602.1045, 4.277421
602.5866, 4.217041
603.0687, 4.145815
603.5508, 4.442818
604.0330, 4.061284
604.5151, 4.352448
604.9972, 4.355455
605.4793, 4.420455
605.9614, 4.450999
606.4435, 4.402196
606.9257, 4.314371
607.4078, 4.236075
607.8899, 4.173930
608.3720, 4.127329
608.8541, 4.092990
609.3362, 4.079475
609.8184, 4.115726
610.3005, 4.262459
610.7826, 4.368360
611.2647, 4.461982
611.7468, 4.491965
612.2289, 4.379987
612.7111, 4.175475
613.1932, 4.004942
613.6753, 3.940739
614.1574, 3.946451
614.6395, 3.952552
615.1216, 3.956524
615.6038, 4.001378
616.0859, 4.120745
616.5680, 4.246223
617.0501, 4.343755
617.5322, 4.405479
618.0143, 4.390775
618.4965, 4.220798
618.9786, 4.051533
619.4607, 3.964226
619.9428, 3.945957
620.4249, 4.000907
620.9070, 4.123146
621.3892, 4.215972
621.8713, 4.166262
622.3534, 3.977265
622.8355, 3.904602
623.3176, 4.050669
623.7997, 4.186203
624.2819, 4.326302
624.7640, 4.409775
625.2461, 4.317263
625.7282, 4.073917
626.2103, 3.911979
626.6924, 4.085749
627.1745, 4.440528
627.6566, 4.573705
628.1387, 4.469944
628.6208, 4.360231
629.1030, 4.334582
629.5851, 4.339299
630.0672, 4.273327
630.5493, 4.127061
631.0314, 4.065123
631.5135, 4.216886
631.9957, 4.359451
632.4778, 4.326859
632.9599, 4.181685
633.4420, 4.052497
633.9241, 3.990396
634.4063, 3.988073
634.8884, 4.050205
635.3705, 4.191642
635.8526, 4.270097
636.3347, 4.210835
636.8168, 4.193690
637.2990, 4.334738
637.7811, 4.521558
638.2632, 4.620021
638.7453, 4.600943
639.2274, 4.528904
639.7095, 4.401536
640.1917, 4.268079
640.6738, 4.238091
641.1559, 4.313192
641.6380, 4.366939
642.1201, 4.323977
642.6022, 4.230548
643.0844, 4.194020
643.5665, 4.264734
644.0486, 4.287884
644.5307, 4.203467
645.0128, 4.129708
645.4949, 4.126107
645.9771, 4.184055
646.4592, 4.294755
646.9413, 4.456813
647.4234, 4.600135
647.9055, 4.603690
648.3876, 4.470797
648.8698, 4.369657
649.3519, 4.318852
649.8340, 4.289157
650.3161, 4.287928
650.7982, 4.288848
651.2803, 4.223567
651.7625, 4.029092
652.2446, 3.920106
652.7267, 4.058280
653.2088, 4.275762
653.6909, 4.401135
654.1730, 4.421697
654.6552, 4.370520
655.1373, 4.257098
655.6194, 4.136401
656.1015, 4.171231
656.5836, 4.466350
657.0657, 4.645540
657.5479, 4.609776
658.0300, 4.527565
658.5121, 4.455304
658.9942, 4.390322
659.4763, 4.311069
659.9584, 4.195234
660.4406, 4.113224
660.9227, 4.151240
661.4048, 4.269552
661.8869, 4.389441
662.3690, 4.500570
662.8511, 4.518300
663.3333, 4.346692
663.8154, 4.055906
664.2975, 3.941906
664.7796, 4.157469
665.2617, 4.338090
665.7438, 4.531326
666.2260, 4.640669
666.7081, 4.517509
667.1902, 4.257154
667.6723, 4.115113
668.1544, 4.240189
668.6365, 4.465650
669.1187, 4.517849
669.6008, 4.405715
670.0829, 4.339625
670.5650, 4.364143
671.0471, 4.395671
671.5292, 4.357665
672.0114, 4.278913
672.4935, 4.263489
672.9756, 4.346915
673.4577, 4.433966
673.9398, 4.541655
674.4219, 4.608867
674.9041, 4.525239
675.3862, 4.332372
675.8683, 4.202437
676.3504, 4.244032
676.8325, 4.401081
677.3146, 4.573768
677.7968, 4.800181
678.2789, 4.842545
678.7610, 4.516219
679.2431, 4.206200
679.7252, 4.178945
680.2073, 4.323637
680.6895, 4.412123
681.1716, 4.367146
681.6537, 4.339105
682.1358, 4.478358
682.6179, 4.656570
683.1000, 4.656324
683.5822, 4.480921
684.0643, 4.318555
684.5464, 4.289297
685.0285, 4.361748
685.5106, 4.457741
685.9927, 4.627674
686.4749, 4.702177
686.9570, 4.600901
687.4391, 4.475680
687.9212, 4.355494
688.4033, 4.266398
688.8854, 4.260813
689.3676, 4.373762
689.8497, 4.491027
690.3318, 4.513988
690.8139, 4.472074
691.2960, 4.420446
691.7781, 4.365758
692.2603, 4.307839
692.7424, 4.234999
693.2245, 4.179080
693.7066, 4.233566
694.1887, 4.535399
694.6708, 4.667309
695.1530, 4.469368
695.6351, 4.278806
696.1172, 4.262426
696.5993, 4.364633
697.0814, 4.487198
697.5635, 4.598418
698.0457, 4.672481
698.5278, 4.668568
699.0099, 4.607054
699.4920, 4.561651
699.9741, 4.540636
700.4562, 4.480616
700.9384, 4.338759
701.4205, 4.148556
701.9026, 3.961524
702.3847, 3.700449
702.8668, 3.670644
703.3489, 4.131011
703.8311, 4.558696
704.3132, 4.666506
704.7953, 4.578749
705.2774, 4.502984
705.7595, 4.507536
706.2416, 4.544394
706.7238, 4.556787
707.2059, 4.557283
707.6880, 4.629589
708.1701, 4.794838
708.6522, 4.863462
709.1343, 4.709323
709.6164, 4.473443
710.0985, 4.372302
710.5806, 4.416743
711.0627, 4.502205
711.5449, 4.712439
712.0270, 4.864380
712.5091, 4.833745
712.9912, 4.707293
713.4733, 4.594979
713.9554, 4.528888
714.4376, 4.499582
714.9197, 4.511080
715.4018, 4.547528
715.8839, 4.535794
716.3660, 4.465096
716.8481, 4.430954
717.3303, 4.485806
717.8124, 4.557058
718.2945, 4.540550
718.7766, 4.446092
719.2587, 4.424992
719.7408, 4.582868
720.2230, 4.706618
720.7051, 4.677871
721.1872, 4.589517
721.6693, 4.547652
722.1514, 4.567223
722.6335, 4.604311
723.1157, 4.625090
723.5978, 4.641214
724.0799, 4.711851
724.5620, 4.854949
725.0441, 4.847642
725.5262, 4.548474
726.0084, 4.269464
726.4905, 4.355793
726.9726, 4.685015
727.4547, 4.768878
727.9368, 4.346280
728.4189, 4.047717
728.9011, 4.151722
729.3832, 4.394965
729.8653, 4.571763
730.3474, 4.653283
730.8295, 4.649168
731.3116, 4.557530
731.7938, 4.444801
732.2759, 4.436257
732.7580, 4.533724
733.2401, 4.618666
733.7222, 4.689355
734.2043, 4.726250
734.6865, 4.702170
735.1686, 4.642468
735.6507, 4.605926
736.1328, 4.602972
736.6149, 4.587489
737.0970, 4.517227
737.5792, 4.461976
738.0613, 4.491396
738.5434, 4.567281
739.0255, 4.589626
739.5076, 4.530283
739.9897, 4.502225
740.4719, 4.694069
740.9540, 5.055209
741.4361, 5.200921
741.9182, 5.090348
742.4003, 4.965265
742.8824, 4.897518
743.3646, 4.875361
743.8467, 4.896465
744.3288, 4.961199
744.8109, 5.012784
745.2930, 5.067640
745.7751, 5.084076
746.2573, 4.995638
746.7394, 4.887467
747.2215, 4.876070
747.7036, 4.963205
748.1857, 5.049073
748.6678, 5.060416
749.1500, 5.019427
749.6321, 4.956676
750.1142, 4.872215
750.5963, 4.859563
751.0784, 4.970536
751.5605, 5.056064
752.0427, 4.970830
752.5248, 4.754493
753.0069, 4.629435
753.4890, 4.664619
753.9711, 4.675587
754.4532, 4.565008
754.9354, 4.488024
755.4175, 4.599706
755.8996, 4.829958
756.3817, 5.016770
756.8638, 5.094198
757.3459, 5.084953
757.8281, 4.949329
758.3102, 4.745799
758.7923, 4.731817
759.2744, 4.932395
759.7565, 5.118890
760.2386, 5.180397
760.7208, 5.169686
761.2029, 5.182209
761.6850, 5.242150
762.1671, 5.222990
762.6492, 5.038620
763.1313, 4.884703
763.6135, 4.831748
764.0956, 4.835268
764.5777, 4.865146
765.0598, 4.905093
765.5419, 4.906702
766.0240, 4.785619
766.5062, 4.655819
766.9883, 4.715505
767.4704, 4.916407
767.9525, 5.051261
768.4346, 5.069434
768.9167, 5.057164
769.3989, 5.095037
769.8810, 5.166471
770.3631, 5.162094
770.8452, 4.986281
771.3273, 4.909574
771.8094, 5.054957
772.2916, 5.197598
772.7737, 5.206021
773.2558, 5.124345
773.7379, 5.054693
774.2200, 5.027502
774.7021, 5.005136
775.1843, 4.953638
775.6664, 4.898079
776.1485, 4.849251
776.6306, 4.824794
777.1127, 4.918974
777.5948, 5.179022
778.0770, 5.425516
778.5591, 5.343102
779.0412, 4.903911
779.5233, 4.752266
780.0054, 5.045220
780.4875, 5.296278
780.9697, 5.322453
781.4518, 5.255380
781.9339, 5.207227
782.4160, 5.180053
782.8981, 5.171137
783.3802, 5.231821
783.8624, 5.251073
784.3445, 5.089776
784.8266, 4.899359
785.3087, 4.917954
785.7908, 5.130354
786.2729, 5.306494
786.7551, 5.290679
787.2372, 5.163366
787.7193, 5.075557
788.2014, 5.027306
788.6835, 5.002601
789.1656, 5.009557
789.6478, 4.997322
790.1299, 4.887640
790.6120, 4.767525
791.0941, 4.879715
791.5762, 5.361835
792.0583, 5.652285
792.5404, 5.614156
793.0225, 5.495317
793.5046, 5.359290
793.9868, 5.238424
794.4689, 5.151648
794.9510, 5.108247
795.4331, 5.133922
795.9152, 5.327336
796.3973, 5.546188
796.8795, 5.492307
797.3616, 5.231914
797.8437, 5.115328
798.3258, 5.234006
798.8079, 5.372129
799.2900, 5.326627
799.7722, 5.145552
800.2543, 5.108619
800.7364, 5.337686
801.2185, 5.461144
801.7006, 5.322355
802.1827, 5.200908
802.6649, 5.294623
803.1470, 5.477714
803.6291, 5.485664
804.1112, 5.221845
804.5933, 5.024797
805.0754, 5.119210
805.5576, 5.317693
806.0397, 5.471543
806.5218, 5.566998
807.0039, 5.601005
807.4860, 5.573909
807.9681, 5.503844
808.4503, 5.395056
808.9324, 5.264718
809.4145, 5.218663
809.8966, 5.272677
810.3787, 5.309592
810.8608, 5.289819
811.3430, 5.264816
811.8251, 5.288522
812.3072, 5.350680
812.7893, 5.378997
813.2714, 5.328577
813.7535, 5.311524
814.2357, 5.359836
814.7178, 5.431322
815.1999, 5.524320
815.6820, 5.611198
816.1641, 5.644938
816.6462, 5.609067
817.1284, 5.531057
817.6105, 5.413900
818.0926, 5.281226
818.5747, 5.162951
819.0568, 5.067601
819.5389, 5.044439
820.0211, 5.113423
820.5032, 5.218571
820.9853, 5.296995
821.4674, 5.351030
821.9495, 5.418489
822.4316, 5.526754
822.9138, 5.589525
823.3959, 5.575521
823.8780, 5.526685
824.3601, 5.441005
824.8422, 5.344752
825.3243, 5.309636
825.8065, 5.369657
826.2886, 5.437457
826.7707, 5.490205
827.2528, 5.527972
827.7349, 5.562895
828.2170, 5.580428
828.6992, 5.531548
829.1813, 5.404855
829.6634, 5.288137
830.1455, 5.295477
830.6276, 5.384091
831.1097, 5.393563
831.5919, 5.325907
832.0740, 5.314995
832.5561, 5.411296
833.0382, 5.518982
833.5203, 5.534029
834.0024, 5.477868
834.4846, 5.522218
834.9667, 5.827275
835.4488, 5.966479
835.9309, 5.745254
836.4130, 5.543073
836.8951, 5.600114
837.3773, 5.798177
837.8594, 5.916044
838.3415, 5.901696
838.8236, 5.845260
839.3057, 5.783394
839.7878, 5.709025
840.2700, 5.590497
840.7521, 5.459612
841.2342, 5.400362
841.7163, 5.425248
842.1984, 5.435889
842.6805, 5.320174
843.1627, 5.153089
843.6448, 5.204732
844.1269, 5.484223
844.6090, 5.632092
845.0911, 5.563673
845.5732, 5.435509
846.0554, 5.345583
846.5375, 5.280486
847.0196, 5.195721
847.5017, 5.031377
847.9838, 4.989476
848.4659, 5.151443
848.9481, 5.336464
849.4302, 5.525394
849.9123, 5.671685
850.3944, 5.705657
850.8765, 5.628872
851.3586, 5.549317
851.8408, 5.537643
852.3229, 5.528271
852.8050, 5.451457
853.2871, 5.343885
853.7692, 5.245482
854.2513, 5.177132
854.7335, 5.202063
855.2156, 5.370451
855.6977, 5.580974
856.1798, 5.628773
856.6619, 5.520094
857.1440, 5.445069
857.6262, 5.416388
858.1083, 5.405365
858.5904, 5.410423
859.0725, 5.409372
859.5546, 5.363586
860.0367, 5.266087
860.5189, 5.207808
861.0010, 5.205513
861.4831, 5.218219
861.9652, 5.245646
862.4473, 5.280690
862.9294, 5.345098
863.4116, 5.411287
863.8937, 5.400359
864.3758, 5.266701
864.8579, 5.127481
865.3400, 5.028837
865.8221, 4.983253
866.3043, 5.036950
866.7864, 5.153450
867.2685, 5.245594
867.7506, 5.282063
868.2327, 5.273317
868.7148, 5.213608
869.1970, 5.127953
869.6791, 5.099901
870.1612, 5.129620
870.6433, 5.207726
871.1254, 5.355337
871.6075, 5.437137
872.0897, 5.324120
872.5718, 5.088489
873.0539, 4.965217
873.5360, 4.996608
874.0181, 5.043525
874.5002, 5.196826
874.9823, 5.258316
875.4644, 5.053643
875.9465, 4.789705
876.4286, 4.722154
876.9108, 4.862663
877.3929, 4.982486
877.8750, 4.976751
878.3571, 4.962386
878.8392, 5.052568
879.3214, 5.138915
879.8035, 5.031204
880.2856, 4.787703
880.7677, 4.669144
881.2498, 4.814852
881.7319, 5.026645
882.2141, 5.025032
882.6962, 4.896083
883.1783, 4.951629
883.6604, 5.175045
884.1425, 5.232530
884.6246, 4.993357
885.1068, 4.669412
885.5889, 4.483827
886.0710, 4.427958
886.5531, 4.452788
887.0352, 4.608429
887.5173, 4.695786
887.9995, 4.654386
888.4816, 4.590553
888.9637, 4.576632
889.4458, 4.582949
889.9279, 4.548851
890.4100, 4.466117
890.8922, 4.372268
891.3743, 4.232280
891.8564, 4.128585
892.3385, 4.097692
892.8206, 4.124129
893.3027, 4.220400
893.7849, 4.361856
894.2670, 4.448828
894.7491, 4.402545
895.2312, 4.348480
895.7133, 4.438013
896.1954, 4.578035
896.6776, 4.614073
897.1597, 4.548720
897.6418, 4.444163
898.1239, 4.329304
898.6060, 4.249853
899.0881, 4.289352
899.5703, 4.411351
900.0524, 4.403945
900.5345, 4.258536
901.0166, 4.141459
901.4987, 4.077987
901.9808, 4.117680
902.4630, 4.353590
902.9451, 4.684595
903.4272, 4.738984
903.9093, 4.331362
904.3914, 4.078461
904.8735, 4.080855
905.3557, 4.114478
905.8378, 4.102435
906.3199, 4.081181
906.8020, 4.093472
907.2841, 4.139605
907.7662, 4.184783
908.2484, 4.234282
908.7305, 4.263926
909.2126, 4.306958
909.6947, 4.290934
910.1768, 4.071595
910.6589, 3.746636
911.1411, 3.557625
911.6232, 3.596970
912.1053, 3.725318
912.5874, 3.857722
913.0695, 3.982588
913.5516, 4.059404
914.0338, 4.113462
914.5159, 4.274736
914.9980, 4.549371
915.4801, 4.681013
915.9622, 4.440837
916.4443, 4.016181
916.9265, 3.865308
917.4086, 3.987320
917.8907, 4.097000
918.3728, 4.180183
918.8549, 4.216096
919.3370, 4.187218
919.8192, 4.122039
920.3013, 4.046376
920.7834, 3.957341
921.2655, 3.968135
921.7476, 4.192209
922.2297, 4.319929
922.7119, 4.268684
923.1940, 4.148438
923.6761, 3.932898
924.1582, 3.715289
924.6403, 3.708840
925.1224, 3.990320
925.6046, 4.223521
926.0867, 4.335621
926.5688, 4.367837
927.0509, 4.289581
927.5330, 4.176510
928.0151, 4.144655
928.4973, 4.172979
928.9794, 4.092865
929.4615, 3.756835
929.9436, 3.474323
930.4257, 3.597775
930.9078, 3.892994
931.3900, 4.035983
931.8721, 4.028063
932.3542, 3.948202
932.8363, 3.832006
933.3184, 3.736658
933.8005, 3.743932
934.2827, 3.786804
934.7648, 3.622696
935.2469, 3.290036
935.7290, 3.192081
936.2111, 3.402446
936.6932, 3.640765
937.1754, 3.749009
937.6575, 3.768929
938.1396, 3.774591
938.6217, 3.766974
939.1038, 3.726078
939.5859, 3.627802
940.0681, 3.562375
940.5502, 3.570804
941.0323, 3.592674
941.5144, 3.571867
941.9965, 3.521917
942.4786, 3.497049
942.9608, 3.469143
943.4429, 3.522453
943.9250, 3.801841
944.4071, 3.996830
944.8892, 3.907061
945.3713, 3.715551
945.8535, 3.622559
946.3356, 3.640514
946.8177, 3.685335
947.2998, 3.768138
947.7819, 3.813985
948.2640, 3.733825
948.7462, 3.644587
949.2283, 3.676395
949.7104, 3.782037
950.1925, 3.852587
950.6746, 3.853957
951.1567, 3.809202
951.6389, 3.714323
952.1210, 3.602475
952.6031, 3.510577
953.0852, 3.435649
953.5673, 3.349364
954.0494, 3.264775
954.5316, 3.277531
955.0137, 3.442872
955.4958, 3.647525
955.9779, 3.735950
956.4600, 3.721468
956.9421, 3.660823
957.4242, 3.554848
957.9063, 3.414262
958.3884, 3.232860
958.8705, 3.123171
959.3527, 3.193143
959.8348, 3.367675
960.3169, 3.415046
960.7990, 3.300970
961.2811, 3.242047
961.7632, 3.239152
962.2454, 3.304676
962.7275, 3.482337
963.2096, 3.676800
963.6917, 3.798572
964.1738, 3.846297
964.6559, 3.801292
965.1381, 3.545423
965.6202, 3.388927
966.1023, 3.376745
966.5844, 3.421552
967.0665, 3.537321
967.5486, 3.660010
968.0308, 3.708292
968.5129, 3.676933
968.9950, 3.605000
969.4771, 3.418858
969.9592, 3.301960
970.4413, 3.410274
970.9235, 3.527617
971.4056, 3.432523
971.8877, 3.223554
972.3698, 3.129275
972.8519, 3.211009
973.3340, 3.316228
973.8162, 3.367933
974.2983, 3.399036
974.7804, 3.413102
975.2625, 3.436531
975.7446, 3.536374
976.2267, 3.683779
976.7089, 3.761412
977.1910, 3.712078
977.6731, 3.618307
978.1552, 3.555244
978.6373, 3.510358
979.1194, 3.460585
979.6016, 3.409259
980.0837, 3.353624
980.5658, 3.301811
981.0479, 3.329346
981.5300, 3.500435
982.0121, 3.693439
982.4943, 3.645432
982.9764, 3.414811
983.4585, 3.362566
983.9406, 3.492499
984.4227, 3.529198
984.9048, 3.375793
985.3870, 3.256202
985.8691, 3.397227
986.3512, 3.687821
986.8333, 3.736281
987.3154, 3.498964
987.7975, 3.385605
988.2797, 3.439696
988.7618, 3.531415
989.2439, 3.629936
989.7260, 3.702676
990.2081, 3.709186
990.6902, 3.654421
991.1724, 3.579980
991.6545, 3.449387
992.1366, 3.386204
992.6187, 3.433398
993.1008, 3.495281
993.5829, 3.521507
994.0651, 3.542938
994.5472, 3.630474
995.0293, 3.787118
995.5114, 3.818552
995.9935, 3.621013
996.4756, 3.445759
996.9578, 3.289343
997.4399, 3.200792
997.9220, 3.253395
998.4041, 3.370606
998.8862, 3.427075
999.3683, 3.407374
999.8505, 3.415970
1000.333, 3.555981
1000.815, 3.626517
1001.297, 3.514640
1001.779, 3.338130
1002.261, 3.099882
1002.743, 2.903115
1003.225, 2.995180
1003.707, 3.441428
1004.190, 3.746602
1004.672, 3.511696
1005.154, 3.226857
1005.636, 3.233526
1006.118, 3.363404
1006.600, 3.434101
1007.082, 3.431727
1007.564, 3.387881
1008.046, 3.313114
1008.529, 3.260674
1009.011, 3.298670
1009.493, 3.356805
1009.975, 3.349245
1010.457, 3.309022
1010.939, 3.279396
1011.421, 3.278501
1011.903, 3.355960
1012.385, 3.539434
1012.868, 3.692122
1013.350, 3.608341
1013.832, 3.423174
1014.314, 3.419099
1014.796, 3.528044
1015.278, 3.522544
1015.760, 3.378682
1016.242, 3.238583
1016.725, 3.183741
1017.207, 3.200711
1017.689, 3.320837
1018.171, 3.490588
1018.653, 3.465982
1019.135, 3.286534
1019.617, 3.263782
1020.099, 3.460244
1020.581, 3.642643
1021.064, 3.649465
1021.546, 3.560474
1022.028, 3.518487
1022.510, 3.519608
1022.992, 3.524230
1023.474, 3.532796
1023.956, 3.491237
1024.438, 3.377697
1024.921, 3.300521
1025.403, 3.351590
1025.885, 3.464491
1026.367, 3.475320
1026.849, 3.375587
1027.331, 3.310188
1027.813, 3.281932
1028.295, 3.272668
1028.777, 3.280692
1029.260, 3.296270
1029.742, 3.313315
1030.224, 3.329953
1030.706, 3.346829
1031.188, 3.376790
1031.670, 3.321245
1032.152, 3.117332
1032.634, 3.015889
1033.116, 3.115810
1033.599, 3.289210
1034.081, 3.461667
1034.563, 3.606934
1035.045, 3.632683
1035.527, 3.485069
1036.009, 3.410509
1036.491, 3.475619
1036.973, 3.482838
1037.456, 3.330364
1037.938, 3.161400
1038.420, 3.085199
1038.902, 3.089317
1039.384, 3.135643
1039.866, 3.240121
1040.348, 3.342146
1040.830, 3.471088
1041.313, 3.554866
1041.795, 3.557342
1042.277, 3.523571
1042.759, 3.453825
1043.241, 3.378145
1043.723, 3.402294
1044.205, 3.585895
1044.687, 3.705713
1045.169, 3.768616
1045.651, 3.745822
1046.134, 3.577412
1046.616, 3.365067
1047.098, 3.122810
1047.580, 2.910749
1048.062, 2.906622
1048.544, 3.197134
1049.026, 3.443891
1049.508, 3.653062
1049.991, 3.747193
1050.473, 3.641860
1050.955, 3.463775
1051.437, 3.255590
1051.919, 3.070280
1052.401, 3.041851
1052.883, 3.235149
1053.365, 3.376672
1053.848, 3.395195
1054.330, 3.370162
1054.812, 3.290908
1055.294, 3.216670
1055.776, 3.206871
1056.258, 3.240368
1056.740, 3.254802
1057.222, 3.232886
1057.704, 3.234176
1058.187, 3.256370
1058.669, 3.329145
1059.151, 3.633344
1059.633, 3.846058
1060.115, 3.524373
1060.597, 2.929470
1061.079, 2.706066
1061.561, 3.016958
1062.043, 3.279227
1062.526, 3.251717
1063.008, 3.187252
1063.490, 3.200534
1063.972, 3.225339
1064.454, 3.186660
1064.936, 3.116429
1065.418, 3.098017
1065.900, 3.149238
1066.383, 3.176702
1066.865, 3.118201
1067.347, 3.061535
1067.829, 3.033455
1068.311, 3.037363
1068.793, 3.109676
1069.275, 3.202939
1069.757, 3.222875
1070.240, 3.154722
1070.722, 3.097054
1071.204, 3.087669
1071.686, 3.101801
1072.168, 3.145525
1072.650, 3.191195
1073.132, 3.229820
1073.614, 3.247945
1074.096, 3.206382
1074.578, 3.110451
1075.061, 3.065949
1075.543, 3.172990
1076.025, 3.249818
1076.507, 3.177776
1076.989, 3.072204
1077.471, 2.998090
1077.953, 2.965611
1078.435, 2.991862
1078.918, 3.068488
1079.400, 3.136737
1079.882, 3.160013
1080.364, 3.202983
1080.846, 3.356476
1081.328, 3.478678
1081.810, 3.444850
1082.292, 3.328897
1082.774, 3.198805
1083.257, 3.088953
1083.739, 3.090203
1084.221, 3.299449
1084.703, 3.419436
1085.185, 3.218140
1085.667, 2.988878
1086.149, 2.891910
1086.631, 2.898856
1087.114, 3.023639
1087.596, 3.208129
1088.078, 3.280733
1088.560, 3.167153
1089.042, 3.064346
1089.524, 3.062627
1090.006, 3.083603
1090.488, 3.094780
1090.970, 3.096761
1091.453, 3.098262
1091.935, 3.091538
1092.417, 3.044506
1092.899, 2.941591
1093.381, 2.887578
1093.863, 2.964051
1094.345, 3.042758
1094.827, 3.037251
1095.309, 3.033997
1095.792, 3.169937
1096.274, 3.341442
1096.756, 3.298143
1097.238, 2.999755
1097.720, 2.834877
1098.202, 3.058559
1098.684, 3.247589
1099.166, 3.278943
1099.649, 3.207679
1100.131, 2.975051
1100.613, 2.718257
1101.095, 2.658032
1101.577, 2.797336
1102.059, 2.890546
1102.541, 2.822427
1103.023, 2.796417
1103.505, 2.908284
1103.988, 3.018966
1104.470, 3.072004
1104.952, 3.070463
1105.434, 2.979179
1105.916, 2.831790
1106.398, 2.796264
1106.880, 2.979249
1107.362, 3.079665
1107.844, 2.969373
1108.327, 2.873267
1108.809, 2.874704
1109.291, 2.926063
1109.773, 3.001839
1110.255, 3.088818
1110.737, 3.167357
1111.219, 3.263974
1111.701, 3.243976
1112.184, 2.922303
1112.666, 2.728706
1113.148, 2.857099
1113.630, 3.038886
1114.112, 3.118974
1114.594, 3.124449
1115.076, 3.097453
1115.558, 3.032383
1116.041, 2.993651
1116.523, 3.045964
1117.005, 3.009148
1117.487, 2.750003
1117.969, 2.565042
1118.451, 2.654634
1118.933, 2.837189
1119.415, 2.876204
1119.897, 2.786555
1120.380, 2.738626
1120.862, 2.771966
1121.344, 2.737081
1121.826, 2.543634
1122.308, 2.479369
1122.790, 2.728190
1123.272, 2.995679
1123.754, 2.987306
1124.236, 2.785826
1124.719, 2.660155
1125.201, 2.599045
1125.683, 2.712703
1126.165, 3.104379
1126.647, 3.232732
1127.129, 2.870701
1127.611, 2.566895
1128.093, 2.726231
1128.576, 3.112017
1129.058, 3.290999
1129.540, 3.269872
1130.022, 3.176142
1130.504, 2.994075
1130.986, 2.961941
1131.468, 3.135456
1131.950, 3.238384
1132.432, 3.128221
1132.915, 2.953630
1133.397, 2.895686
1133.879, 2.918237
1134.361, 2.891451
1134.843, 2.819962
1135.325, 2.764561
1135.807, 2.728132
1136.289, 2.659007
1136.771, 2.542715
1137.254, 2.498548
1137.736, 2.635567
1138.218, 2.842266
1138.700, 2.904472
1139.182, 2.869797
1139.664, 2.899136
1140.146, 2.981298
1140.628, 3.053496
1141.111, 3.102038
1141.593, 3.141707
1142.075, 3.181576
1142.557, 3.167204
1143.039, 2.975902
1143.521, 2.740284
1144.003, 2.724220
1144.485, 2.816487
1144.968, 2.762795
1145.450, 2.597068
1145.932, 2.520670
1146.414, 2.592850
1146.896, 2.712278
1147.378, 2.823253
1147.860, 2.920316
1148.342, 3.031221
1148.824, 3.097607
1149.307, 2.997919
1149.789, 2.827216
1150.271, 2.738808
1150.753, 2.760761
1151.235, 2.887475
1151.717, 3.154722
1152.199, 3.340933
1152.681, 3.282578
1153.163, 3.145477
1153.646, 2.979155
1154.128, 2.839386
1154.610, 2.781651
1155.092, 2.793108
1155.574, 2.842129
1156.056, 2.923677
1156.538, 3.002824
1157.020, 3.107840
1157.503, 3.153972
1157.985, 2.986650
1158.467, 2.897594
1158.949, 3.235593
1159.431, 3.641249
1159.913, 3.561762
1160.395, 3.055509
1160.877, 2.783775
1161.359, 2.943733
1161.842, 3.013375
1162.324, 2.895127
1162.806, 2.829404
1163.288, 2.941751
1163.770, 3.042613
1164.252, 2.948794
1164.734, 2.776852
1165.216, 2.805544
1165.698, 3.060107
1166.181, 3.158885
1166.663, 3.028794
1167.145, 3.043936
1167.627, 3.332250
1168.109, 3.463597
1168.591, 3.187871
1169.073, 2.824505
1169.555, 2.743320
1170.037, 2.876901
1170.520, 3.003160
1171.002, 3.119483
1171.484, 3.101830
1171.966, 2.950088
1172.448, 2.889315
1172.930, 2.976928
1173.412, 3.009235
1173.894, 2.838409
1174.377, 2.646253
1174.859, 2.755339
1175.341, 3.032721
1175.823, 3.094987
1176.305, 3.013616
1176.787, 3.010934
1177.269, 3.090396
1177.751, 3.117487
1178.234, 3.050488
1178.716, 2.998195
1179.198, 3.069003
1179.680, 3.137486
1180.162, 3.026166
1180.644, 2.865006
1181.126, 2.824230
1181.608, 2.854956
1182.090, 2.840243
1182.573, 2.786802
1183.055, 2.808964
1183.537, 2.962403
1184.019, 3.095636
1184.501, 3.131195
1184.983, 3.121930
1185.465, 3.113714
1185.947, 3.058002
1186.429, 2.814898
1186.912, 2.537346
1187.394, 2.537930
1187.876, 2.832300
1188.358, 3.029927
1188.840, 3.022484
1189.322, 2.989509
1189.804, 2.908669
1190.286, 2.857475
1190.769, 2.881794
1191.251, 2.924599
1191.733, 2.932379
1192.215, 2.925663
1192.697, 2.966723
1193.179, 3.069466
1193.661, 3.085420
1194.143, 2.967583
1194.625, 2.958998
1195.108, 3.136310
1195.590, 3.244085
1196.072, 3.144949
1196.554, 2.986216
1197.036, 2.935504
1197.518, 2.960994
1198.000, 2.969952
1198.482, 2.963645
1198.964, 2.944988
1199.447, 2.919201
1199.929, 2.927177
1200.411, 2.976875
1200.893, 3.051885
1201.375, 3.143674
1201.857, 3.227825
1202.339, 3.296322
1202.821, 3.321412
1203.304, 3.215753
1203.786, 3.058669
1204.268, 3.006178
1204.750, 3.025538
1205.232, 3.001383
1205.714, 2.907874
1206.196, 2.783175
1206.678, 2.621921
1207.161, 2.514167
1207.643, 2.509000
1208.125, 2.585961
1208.607, 2.826283
1209.089, 3.061872
1209.571, 3.094446
1210.053, 2.986090
1210.535, 2.909613
1211.017, 2.891089
1211.500, 2.872697
1211.982, 2.817641
1212.464, 2.805743
1212.946, 2.887768
1213.428, 2.961635
1213.910, 2.986756
1214.392, 2.990551
1214.874, 2.991631
1215.356, 2.995725
1215.839, 3.019601
1216.321, 3.063019
1216.803, 3.138676
1217.285, 3.259670
1217.767, 3.326747
1218.249, 3.323093
1218.731, 3.249382
1219.213, 3.096599
1219.696, 2.970731
1220.178, 2.996066
1220.660, 3.113006
1221.142, 3.216611
1221.624, 3.287663
1222.106, 3.232482
1222.588, 3.086626
1223.070, 2.978100
1223.552, 2.929309
1224.035, 2.906056
1224.517, 2.892384
1224.999, 2.880221
1225.481, 2.892158
1225.963, 2.868909
1226.445, 2.690474
1226.927, 2.507874
1227.409, 2.483889
1227.891, 2.572217
1228.374, 2.711135
1228.856, 2.867472
1229.338, 2.945281
1229.820, 2.863930
1230.302, 2.890728
1230.784, 3.255134
1231.266, 3.503531
1231.748, 3.416924
1232.231, 3.256024
1232.713, 3.166724
1233.195, 3.115514
1233.677, 3.063037
1234.159, 3.006597
1234.641, 2.911940
1235.123, 2.752867
1235.605, 2.695188
1236.088, 2.769611
1236.570, 2.765038
1237.052, 2.612034
1237.534, 2.532199
1238.016, 2.677867
1238.498, 2.887399
1238.980, 2.918981
1239.462, 2.854936
1239.944, 2.941322
1240.427, 3.114152
1240.909, 3.184989
1241.391, 3.161689
1241.873, 3.123430
1242.355, 3.091782
1242.837, 3.054863
1243.319, 3.005844
1243.801, 2.953945
1244.283, 2.865397
1244.766, 2.823903
1245.248, 2.969828
1245.730, 3.124636
1246.212, 3.060383
1246.694, 2.900150
1247.176, 2.891991
1247.658, 3.044522
1248.140, 3.139938
1248.622, 3.124513
1249.105, 3.097750
1249.587, 3.067302
1250.069, 3.020873
1250.551, 2.931694
1251.033, 2.870922
1251.515, 2.897942
1251.997, 2.950478
1252.479, 2.928475
1252.962, 2.852357
1253.444, 2.850777
1253.926, 2.921299
1254.408, 2.920994
1254.890, 2.849028
1255.372, 2.817394
1255.854, 2.851532
1256.336, 2.906625
1256.818, 2.957353
1257.301, 2.998435
1257.783, 3.005754
1258.265, 3.020902
1258.747, 3.139724
1259.229, 3.271556
1259.711, 3.287413
1260.193, 3.218908
1260.675, 3.133327
1261.157, 3.046066
1261.640, 2.942295
1262.122, 2.794979
1262.604, 2.744331
1263.086, 2.919006
1263.568, 3.076857
1264.050, 3.108247
1264.532, 3.138668
1265.014, 3.281288
1265.497, 3.425990
1265.979, 3.450060
1266.461, 3.365760
1266.943, 3.195882
1267.425, 2.901607
1267.907, 2.857678
1268.389, 3.097431
1268.871, 3.199389
1269.354, 3.086440
1269.836, 3.017309
1270.318, 3.110794
1270.800, 3.233448
1271.282, 3.265252
1271.764, 3.220318
1272.246, 3.071525
1272.728, 2.895770
1273.210, 2.824728
1273.693, 2.833014
1274.175, 2.879967
1274.657, 2.946635
1275.139, 3.006336
1275.621, 3.052625
1276.103, 3.108066
1276.585, 3.204366
1277.067, 3.275114
1277.549, 3.295133
1278.032, 3.289367
1278.514, 3.219823
1278.996, 3.180679
1279.478, 3.309714
1279.960, 3.482880
1280.442, 3.439390
1280.924, 3.188737
1281.406, 3.031530
1281.889, 2.971900
1282.371, 2.983698
1282.853, 3.067014
1283.335, 3.206645
1283.817, 3.397808
1284.299, 3.542291
1284.781, 3.579469
1285.263, 3.502713
1285.745, 3.304615
1286.228, 2.984390
##END=



