##NAMES=Stibarsen
##RRUFFID=R060115
##IDEAL CHEMISTRY=SbAs
##LOCALITY=Moctezuma, Sonora, Mexico
##OWNER=RRUFF
##SOURCE=University of Arizona Mineral Museum
##DESCRIPTION=Tin-white reniform mass with many small inclusions of antimony
##STATUS=The identification of this mineral is confirmed by single-crystal X-ray diffraction and chemical analysis.
##URL=rruff.info/R060115
##MEASURED CHEMISTRY=gray phase: Sb_1.00_As_1.00_; light inclusions: Sb_2.00_(Sb_1.12_As_0.88_)_Σ=2_
92.02539, 89.38262
92.50751, 91.76778
92.98962, 93.54333
93.47174, 92.74174
93.95386, 90.89272
94.43597, 88.72340
94.91809, 86.66296
95.40021, 84.70977
95.88232, 82.50591
96.36444, 79.94267
96.84656, 77.29491
97.32867, 74.66880
97.81078, 72.07922
98.29290, 69.53085
98.77502, 66.97816
99.25713, 64.30923
99.73925, 61.72752
100.2214, 59.17785
100.7035, 56.73133
101.1856, 54.36608
101.6677, 52.09099
102.1498, 49.99404
102.6320, 48.19197
103.1141, 46.76831
103.5962, 45.46327
104.0783, 44.30924
104.5604, 43.24382
105.0425, 42.20721
105.5247, 41.17279
106.0068, 40.16308
106.4889, 39.21277
106.9710, 38.30968
107.4531, 37.45562
107.9352, 36.62224
108.4173, 35.82205
108.8995, 35.12025
109.3816, 34.53250
109.8637, 34.07394
110.3458, 33.75875
110.8279, 33.60225
111.3100, 33.53136
111.7922, 33.44831
112.2743, 33.32246
112.7564, 33.28947
113.2385, 33.48163
113.7206, 33.73303
114.2027, 33.91497
114.6849, 33.97350
115.1670, 33.91206
115.6491, 33.72798
116.1312, 33.11580
116.6133, 32.74656
117.0954, 32.92774
117.5776, 33.39409
118.0597, 33.73793
118.5418, 33.66391
119.0239, 33.16357
119.5060, 32.78817
119.9881, 32.58560
120.4703, 32.43210
120.9524, 32.31297
121.4345, 32.21020
121.9166, 32.08032
122.3987, 31.89136
122.8808, 31.63199
123.3630, 31.28319
123.8451, 30.73290
124.3272, 30.14884
124.8093, 29.71557
125.2914, 29.47400
125.7735, 29.29711
126.2557, 29.03323
126.7378, 28.70300
127.2199, 28.40838
127.7020, 28.19480
128.1841, 28.04871
128.6662, 27.93785
129.1483, 27.88904
129.6305, 27.83436
130.1126, 27.73351
130.5947, 27.58575
131.0768, 27.39483
131.5589, 27.13943
132.0410, 26.80534
132.5232, 26.52460
133.0053, 26.35217
133.4874, 26.21151
133.9695, 26.06988
134.4516, 25.91950
134.9337, 25.77074
135.4159, 25.63124
135.8980, 25.46643
136.3801, 25.38591
136.8622, 25.46697
137.3443, 25.58179
137.8264, 25.64000
138.3086, 25.60490
138.7907, 25.47802
139.2728, 25.26263
139.7549, 24.84289
140.2370, 24.46249
140.7191, 24.17350
141.2013, 23.92853
141.6834, 23.63968
142.1655, 23.24851
142.6476, 22.80306
143.1297, 22.52486
143.6118, 22.59722
144.0939, 22.61129
144.5761, 22.33077
145.0582, 21.81814
145.5403, 21.36307
146.0224, 21.16156
146.5045, 21.14520
146.9866, 21.06436
147.4688, 20.84964
147.9509, 20.61800
148.4330, 20.50079
148.9151, 20.51810
149.3972, 20.52269
149.8793, 20.35049
150.3615, 20.12446
150.8436, 20.01407
151.3257, 20.15959
151.8078, 20.41909
152.2899, 20.45576
152.7720, 20.16782
153.2542, 19.81956
153.7363, 19.47784
154.2184, 19.16367
154.7005, 18.90962
155.1826, 18.74871
155.6647, 18.67099
156.1469, 18.57740
156.6290, 18.44931
157.1111, 18.32259
157.5932, 18.20010
158.0753, 18.08576
158.5574, 17.98567
159.0396, 17.90435
159.5217, 17.84180
160.0038, 17.80055
160.4859, 17.85258
160.9680, 17.86007
161.4501, 17.71912
161.9323, 17.45729
162.4144, 17.20422
162.8965, 17.10109
163.3786, 17.19852
163.8607, 17.23412
164.3428, 17.16936
164.8250, 17.07565
165.3071, 17.00550
165.7892, 16.96671
166.2713, 16.92883
166.7534, 16.83629
167.2355, 16.67016
167.7177, 16.60900
168.1998, 16.78162
168.6819, 17.03142
169.1640, 17.14145
169.6461, 17.04775
170.1282, 16.88651
170.6104, 16.82304
171.0925, 16.84463
171.5746, 16.87143
172.0567, 16.88248
172.5388, 16.87613
173.0209, 16.84264
173.5031, 16.76252
173.9852, 16.67929
174.4673, 16.65014
174.9494, 16.66701
175.4315, 16.64891
175.9136, 16.48628
176.3958, 16.18727
176.8779, 16.01908
177.3600, 16.17174
177.8421, 16.34060
178.3242, 16.34653
178.8063, 16.18649
179.2885, 15.96853
179.7706, 15.78249
180.2527, 15.61673
180.7348, 15.53805
181.2169, 15.63853
181.6990, 15.76015
182.1812, 15.81958
182.6633, 15.80485
183.1454, 15.75886
183.6275, 15.73388
184.1096, 15.70930
184.5917, 15.75864
185.0738, 15.98397
185.5560, 16.20255
186.0381, 16.26507
186.5202, 16.14219
187.0023, 15.93467
187.4844, 15.81427
187.9665, 15.84933
188.4487, 15.87129
188.9308, 15.96644
189.4129, 16.00837
189.8950, 15.85892
190.3771, 15.47508
190.8592, 14.94603
191.3414, 14.42927
191.8235, 13.86341
192.3056, 13.43157
192.7877, 13.20323
193.2698, 13.10832
193.7519, 13.08783
194.2341, 13.14123
194.7162, 13.18766
195.1983, 13.01031
195.6804, 12.52941
196.1625, 12.15199
196.6446, 12.05532
197.1268, 12.15099
197.6089, 12.24451
198.0910, 12.27864
198.5731, 12.27191
199.0552, 12.26133
199.5373, 12.25342
200.0195, 12.21578
200.5016, 12.08477
200.9837, 11.88973
201.4658, 11.79333
201.9479, 11.90696
202.4300, 12.07810
202.9122, 12.14350
203.3943, 12.09565
203.8764, 11.98397
204.3585, 11.80461
204.8406, 11.55800
205.3227, 11.39916
205.8048, 11.46307
206.2870, 11.55794
206.7691, 11.53353
207.2512, 11.37455
207.7333, 11.19265
208.2154, 11.09850
208.6975, 11.09869
209.1797, 11.14867
209.6618, 11.35611
210.1439, 11.53387
210.6260, 11.55841
211.1081, 11.41505
211.5902, 11.19776
212.0724, 11.01057
212.5545, 10.83952
213.0366, 10.75010
213.5187, 10.79215
214.0008, 10.87612
214.4829, 10.97946
214.9651, 11.08423
215.4472, 11.14839
215.9293, 11.08916
216.4114, 10.78128
216.8935, 10.61511
217.3756, 10.62656
217.8578, 10.72567
218.3399, 10.88721
218.8220, 11.08943
219.3041, 11.28186
219.7862, 11.38533
220.2683, 11.36319
220.7505, 11.30928
221.2326, 11.17019
221.7147, 11.03531
222.1968, 11.00102
222.6789, 11.08047
223.1610, 11.17725
223.6432, 11.14285
224.1253, 10.87097
224.6074, 10.68229
225.0895, 10.59153
225.5716, 10.57325
226.0537, 10.63449
226.5358, 10.77213
227.0180, 10.91605
227.5001, 10.96184
227.9822, 10.86885
228.4643, 10.80137
228.9464, 10.77429
229.4285, 10.77482
229.9107, 10.80647
230.3928, 10.87199
230.8749, 10.92409
231.3570, 10.88780
231.8391, 10.75373
232.3212, 10.64164
232.8034, 10.56400
233.2855, 10.52083
233.7676, 10.52988
234.2497, 10.60374
234.7318, 10.67360
235.2139, 10.61411
235.6961, 10.44586
236.1782, 10.38751
236.6603, 10.63283
237.1424, 10.97940
237.6245, 11.08525
238.1066, 10.85539
238.5888, 10.56448
239.0709, 10.47515
239.5530, 10.53503
240.0351, 10.60198
240.5172, 10.61443
240.9993, 10.60561
241.4815, 10.63808
241.9636, 10.71988
242.4457, 10.83360
242.9278, 11.02801
243.4099, 11.24779
243.8920, 11.36215
244.3742, 11.24011
244.8563, 10.98646
245.3384, 10.85750
245.8205, 10.91572
246.3026, 10.95851
246.7847, 10.84383
247.2668, 10.64384
247.7490, 10.47301
248.2311, 10.39571
248.7132, 10.37503
249.1953, 10.31021
249.6774, 10.16318
250.1595, 10.05193
250.6417, 10.07749
251.1238, 10.15023
251.6059, 10.14723
252.0880, 9.994082
252.5701, 9.754862
253.0522, 9.589823
253.5344, 9.530746
254.0165, 9.489295
254.4986, 9.449756
254.9807, 9.406219
255.4628, 9.345598
255.9449, 9.258389
256.4271, 9.166320
256.9092, 9.128568
257.3913, 9.197063
257.8734, 9.219647
258.3555, 8.935719
258.8376, 9.216665
259.3198, 9.364545
259.8019, 9.386518
260.2840, 8.905466
260.7661, 9.073967
261.2482, 8.982157
261.7303, 8.879673
262.2125, 9.061125
262.6946, 9.031167
263.1767, 8.928905
263.6588, 8.766800
264.1409, 8.599734
264.6230, 8.532374
265.1052, 8.640137
265.5873, 8.702550
266.0694, 8.660070
266.5515, 8.608170
267.0336, 8.643741
267.5157, 8.776488
267.9979, 8.911870
268.4800, 8.889963
268.9621, 8.563737
269.4442, 8.406139
269.9263, 8.526095
270.4084, 8.699554
270.8906, 8.799462
271.3727, 8.800406
271.8548, 8.734186
272.3369, 8.622130
272.8190, 8.406163
273.3011, 8.352942
273.7833, 8.580420
274.2654, 8.838532
274.7475, 8.981251
275.2296, 9.009321
275.7117, 9.018902
276.1938, 9.114480
276.6760, 9.329289
277.1581, 9.418222
277.6402, 9.244582
278.1223, 9.101182
278.6044, 9.185514
279.0865, 9.439327
279.5686, 9.641302
280.0508, 9.604403
280.5329, 9.322802
281.0150, 9.095388
281.4971, 8.888452
281.9792, 8.755239
282.4613, 8.787388
282.9435, 8.914068
283.4256, 8.959108
283.9077, 8.792033
284.3898, 8.451501
284.8719, 8.299267
285.3540, 8.536427
285.8362, 8.704585
286.3183, 8.658217
286.8004, 8.216986
287.2825, 8.521041
287.7646, 8.692035
288.2467, 8.737119
288.7289, 8.279177
289.2110, 8.470788
289.6931, 8.402087
290.1752, 8.322712
290.6573, 8.605745
291.1394, 8.220966
291.6216, 8.498251
292.1037, 8.511252
292.5858, 8.519049
293.0679, 8.197007
293.5500, 8.015164
294.0321, 8.160032
294.5143, 8.410976
294.9964, 8.516247
295.4785, 8.408537
295.9606, 8.197282
296.4427, 8.027279
296.9248, 7.904123
297.4070, 7.817001
297.8891, 7.793725
298.3712, 7.789678
298.8533, 7.757064
299.3354, 7.691408
299.8175, 7.637406
300.2997, 7.650905
300.7818, 7.749077
301.2639, 7.532238
301.7460, 7.824923
302.2281, 7.984547
302.7102, 8.018260
303.1924, 7.548945
303.6745, 7.729187
304.1566, 7.649117
304.6387, 7.558373
305.1208, 7.830037
305.6029, 7.433888
306.0851, 7.699802
306.5672, 7.701435
307.0493, 7.824024
307.5314, 7.684692
308.0135, 7.626261
308.4956, 7.829832
308.9778, 7.888327
309.4599, 7.718846
309.9420, 7.739574
310.4241, 7.693373
310.9062, 7.526613
311.3883, 7.391681
311.8705, 7.354572
312.3526, 7.370236
312.8347, 7.331811
313.3168, 7.190132
313.7989, 7.115762
314.2810, 7.202973
314.7632, 7.355327
315.2453, 7.452178
315.7274, 7.460928
316.2095, 7.403905
316.6916, 7.292670
317.1737, 7.101138
317.6559, 6.975559
318.1380, 6.940396
318.6201, 6.968499
319.1022, 7.073532
319.5843, 7.247879
320.0664, 7.385470
320.5485, 7.379888
321.0306, 7.215428
321.5128, 7.063105
321.9949, 6.863002
322.4770, 6.723174
322.9591, 6.764816
323.4412, 6.951753
323.9233, 7.102300
324.4055, 7.084524
324.8876, 6.927072
325.3697, 6.846637
325.8518, 6.880280
326.3339, 6.936524
326.8160, 7.011970
327.2982, 7.084538
327.7803, 7.097277
328.2624, 7.013416
328.7445, 6.879552
329.2266, 6.827656
329.7087, 6.927198
330.1909, 6.972232
330.6730, 6.864172
331.1551, 6.701884
331.6372, 6.622540
332.1193, 6.666827
332.6014, 6.762573
333.0836, 6.809674
333.5657, 6.793422
334.0478, 6.763374
334.5299, 6.728914
335.0120, 6.676256
335.4941, 6.570524
335.9763, 6.418036
336.4584, 6.288446
336.9405, 6.252328
337.4226, 6.319953
337.9047, 6.372002
338.3868, 6.385163
338.8690, 6.406759
339.3511, 6.487237
339.8332, 6.601811
340.3153, 6.675004
340.7974, 6.658107
341.2795, 6.561272
341.7617, 6.444274
342.2438, 6.216520
342.7259, 6.077110
343.2080, 6.155429
343.6901, 6.329597
344.1722, 6.398913
344.6544, 6.277758
345.1365, 6.070605
345.6186, 5.994608
346.1007, 6.155932
346.5828, 6.299118
347.0649, 6.490054
347.5471, 6.622483
348.0292, 6.549955
348.5113, 6.268716
348.9934, 5.954677
349.4755, 5.822360
349.9576, 5.916076
350.4398, 6.024232
350.9219, 6.196699
351.4040, 6.337131
351.8861, 6.378747
352.3682, 6.338891
352.8503, 6.279159
353.3325, 6.243818
353.8146, 6.232006
354.2967, 6.230978
354.7788, 6.299298
355.2609, 6.311776
355.7430, 6.163883
356.2252, 5.964367
356.7073, 5.869743
357.1894, 5.710554
357.6715, 6.013941
358.1536, 6.182130
358.6357, 6.222385
359.1179, 5.751532
359.5999, 5.940670
360.0821, 5.865313
360.5642, 5.779110
361.0463, 6.061139
361.5284, 5.664626
362.0105, 5.940815
362.4926, 5.948473
362.9748, 6.079031
363.4569, 5.747908
363.9390, 5.696512
364.4211, 5.618677
364.9032, 5.524373
365.3853, 5.488051
365.8675, 5.579957
366.3496, 5.779816
366.8317, 5.889868
367.3138, 5.823427
367.7959, 5.772662
368.2780, 5.780745
368.7602, 5.826796
369.2423, 5.893555
369.7244, 5.975184
370.2065, 6.048201
370.6886, 6.063047
371.1707, 6.002120
371.6529, 5.924794
372.1350, 5.796323
372.6171, 5.685699
373.0992, 5.650280
373.5813, 5.692270
374.0634, 5.754551
374.5456, 5.769148
375.0277, 5.731713
375.5098, 5.744780
375.9919, 5.882559
376.4740, 5.990911
376.9561, 5.990512
377.4383, 5.907788
377.9204, 5.806941
378.4025, 5.723043
378.8846, 5.646651
379.3667, 5.536141
379.8488, 5.353930
380.3310, 5.237010
380.8131, 5.310075
381.2952, 5.444214
381.7773, 5.492757
382.2594, 5.399877
382.7415, 5.304090
383.2237, 5.395412
383.7058, 5.672364
384.1879, 5.865056
384.6700, 5.900993
385.1521, 5.830381
385.6342, 5.675713
386.1164, 5.447081
386.5985, 5.255006
387.0806, 5.099956
387.5627, 5.032640
388.0448, 5.041657
388.5269, 5.352478
389.0091, 5.528101
389.4912, 5.575791
389.9733, 5.112372
390.4554, 5.308945
390.9375, 5.241023
391.4196, 5.162255
391.9018, 5.162422
392.3839, 5.066438
392.8660, 5.014387
393.3481, 5.024963
393.8302, 5.082817
394.3123, 5.164828
394.7945, 5.292129
395.2766, 5.376504
395.7587, 5.378592
396.2408, 5.316297
396.7229, 5.177888
397.2050, 4.944952
397.6872, 4.778391
398.1693, 4.911648
398.6514, 5.382345
399.1335, 5.639374
399.6156, 5.490007
400.0977, 5.258093
400.5798, 5.173194
401.0620, 5.219957
401.5441, 5.266571
402.0262, 5.230368
402.5083, 5.130237
402.9904, 5.061906
403.4725, 5.008249
403.9547, 5.001390
404.4368, 5.110766
404.9189, 5.246545
405.4010, 5.263212
405.8831, 5.122408
406.3652, 4.962249
406.8474, 5.005810
407.3295, 5.399837
407.8116, 5.560540
408.2937, 5.320107
408.7758, 5.024763
409.2579, 4.822058
409.7401, 4.734995
410.2222, 4.760719
410.7043, 4.913103
411.1864, 5.169238
411.6685, 5.331984
412.1506, 5.341533
412.6328, 5.322323
413.1149, 5.286102
413.5970, 5.234164
414.0791, 5.155394
414.5612, 5.048259
415.0433, 4.944818
415.5255, 4.895678
416.0076, 4.909970
416.4897, 4.947176
416.9718, 5.017778
417.4539, 5.100415
417.9360, 5.212186
418.4182, 5.333315
418.9003, 5.406296
419.3824, 5.386536
419.8645, 5.286280
420.3466, 5.150052
420.8287, 4.950589
421.3109, 4.774015
421.7930, 4.619416
422.2751, 4.519394
422.7572, 4.540278
423.2393, 4.721584
423.7214, 4.923408
424.2036, 4.978970
424.6857, 4.894412
425.1678, 4.834443
425.6499, 4.836000
426.1320, 4.873692
426.6141, 4.951136
427.0963, 5.057160
427.5784, 5.097253
428.0605, 4.953589
428.5426, 4.751410
429.0247, 4.709628
429.5068, 4.848795
429.9890, 4.978552
430.4711, 4.958799
430.9532, 4.844156
431.4353, 4.822322
431.9174, 4.973460
432.3995, 5.099174
432.8817, 5.067037
433.3638, 4.940914
433.8459, 4.854939
434.3280, 4.851800
434.8101, 4.893550
435.2922, 4.938304
435.7744, 4.997656
436.2565, 5.000781
436.7386, 4.876406
437.2207, 4.749994
437.7028, 4.727468
438.1849, 4.791009
438.6671, 4.842215
439.1492, 4.810894
439.6313, 4.716582
440.1134, 4.674950
440.5955, 4.719345
441.0776, 4.776684
441.5598, 4.899620
442.0418, 5.001326
442.5240, 4.957993
443.0061, 4.753531
443.4882, 4.521128
443.9703, 4.444478
444.4524, 4.567485
444.9345, 4.639316
445.4167, 4.604635
445.8988, 4.572661
446.3809, 4.590861
446.8630, 4.639612
447.3451, 4.671976
447.8272, 4.655587
448.3094, 4.620279
448.7915, 4.649218
449.2736, 4.770908
449.7557, 4.875184
450.2378, 4.956095
450.7199, 4.995749
451.2021, 4.957682
451.6842, 4.844462
452.1663, 4.733633
452.6484, 4.671344
453.1305, 4.659296
453.6126, 4.730798
454.0948, 4.938371
454.5769, 5.106857
455.0590, 5.043990
455.5411, 4.868686
456.0232, 4.798474
456.5053, 4.958611
456.9875, 5.129846
457.4696, 5.092604
457.9517, 4.894494
458.4338, 4.763938
458.9159, 4.797440
459.3980, 4.888029
459.8802, 4.854979
460.3623, 4.682416
460.8444, 4.574214
461.3265, 4.623085
461.8086, 4.713087
462.2907, 4.731322
462.7729, 4.681290
463.2550, 4.639322
463.7371, 4.654535
464.2192, 4.722455
464.7013, 4.819947
465.1834, 5.080779
465.6656, 5.199999
466.1477, 5.003382
466.6298, 4.710032
467.1119, 4.560762
467.5940, 4.607964
468.0761, 4.738345
468.5583, 4.819145
469.0404, 4.842027
469.5225, 4.873073
470.0046, 4.970847
470.4867, 5.014995
470.9688, 4.922498
471.4510, 4.760686
471.9331, 4.639649
472.4152, 4.612847
472.8973, 4.641809
473.3794, 4.652051
473.8615, 4.633542
474.3437, 4.639912
474.8258, 4.734123
475.3079, 4.811737
475.7900, 4.776341
476.2721, 4.649284
476.7542, 4.559613
477.2364, 4.644085
477.7185, 4.809842
478.2006, 4.817616
478.6827, 4.635252
479.1648, 4.486319
479.6469, 4.525111
480.1291, 4.651868
480.6112, 4.669138
481.0933, 4.510643
481.5754, 4.405855
482.0575, 4.549411
482.5396, 4.807554
483.0217, 4.919527
483.5038, 4.829959
483.9860, 4.673681
484.4681, 4.563396
484.9502, 4.502923
485.4323, 4.492260
485.9144, 4.566124
486.3965, 4.649376
486.8787, 4.753193
487.3608, 4.836332
487.8429, 4.806110
488.3250, 4.625807
488.8071, 4.389235
489.2892, 4.265678
489.7714, 4.300473
490.2535, 4.339706
490.7356, 4.381274
491.2177, 4.428283
491.6998, 4.489251
492.1819, 4.556921
492.6641, 4.615188
493.1462, 4.653820
493.6283, 4.675867
494.1104, 4.704491
494.5925, 4.780275
495.0746, 4.751786
495.5568, 4.399632
496.0389, 4.059350
496.5210, 4.016994
497.0031, 4.271108
497.4852, 4.527792
497.9673, 4.555360
498.4495, 4.429915
498.9316, 4.348676
499.4137, 4.314577
499.8958, 4.350069
500.3779, 4.575514
500.8600, 4.840835
501.3422, 4.809870
501.8243, 4.282981
502.3064, 3.859818
502.7885, 3.931421
503.2706, 4.283533
503.7527, 4.543487
504.2349, 4.630443
504.7170, 4.632552
505.1991, 4.627463
505.6812, 4.614764
506.1633, 4.597800
506.6454, 4.560758
507.1276, 4.537321
507.6097, 4.574861
508.0918, 4.624032
508.5739, 4.587436
509.0560, 4.433165
509.5381, 4.255411
510.0203, 4.213277
510.5024, 4.357122
510.9845, 4.463919
511.4666, 4.515735
511.9487, 4.547776
512.4308, 4.570154
512.9130, 4.583145
513.3951, 4.590833
513.8772, 4.602023
514.3593, 4.588222
514.8414, 4.467023
515.3235, 4.212626
515.8057, 4.045039
516.2878, 4.034439
516.7699, 4.111760
517.2520, 4.238518
517.7341, 4.404529
518.2162, 4.546250
518.6984, 4.680357
519.1805, 4.751513
519.6626, 4.633447
520.1447, 4.343199
520.6268, 4.122432
521.1089, 4.100194
521.5911, 4.199680
522.0732, 4.254894
522.5553, 4.270039
523.0374, 4.243714
523.5195, 4.097748
524.0016, 3.964357
524.4838, 3.986935
524.9659, 4.149916
525.4480, 4.328873
525.9301, 4.440244
526.4122, 4.484406
526.8943, 4.458833
527.3765, 4.273962
527.8586, 4.147966
528.3407, 4.123734
528.8228, 4.144478
529.3049, 4.179707
529.7870, 4.216574
530.2692, 4.234564
530.7513, 4.191613
531.2334, 4.111134
531.7155, 4.147359
532.1976, 4.352372
532.6797, 4.552566
533.1619, 4.693298
533.6440, 4.782433
534.1261, 4.816774
534.6082, 4.791079
535.0903, 4.746505
535.5724, 4.707090
536.0546, 4.668432
536.5367, 4.611252
537.0188, 4.530279
537.5009, 4.473003
537.9830, 4.484014
538.4651, 4.549097
538.9473, 4.584013
539.4294, 4.521046
539.9115, 4.515540
540.3936, 4.713881
540.8757, 4.945191
541.3578, 4.955526
541.8400, 4.717454
542.3221, 4.454834
542.8042, 4.404947
543.2863, 4.572111
543.7684, 4.683950
544.2505, 4.726696
544.7326, 4.724452
545.2147, 4.630408
545.6968, 4.519464
546.1790, 4.488076
546.6611, 4.555458
547.1432, 4.631066
547.6253, 4.586809
548.1074, 4.440236
548.5895, 4.425059
549.0717, 4.643291
549.5538, 4.792831
550.0359, 4.586739
550.5180, 4.222934
551.0001, 3.997736
551.4822, 3.995041
551.9644, 4.047531
552.4465, 4.043449
552.9286, 4.021326
553.4107, 4.086293
553.8928, 4.261271
554.3749, 4.410582
554.8571, 4.396574
555.3392, 4.225500
555.8213, 4.145488
556.3034, 4.223886
556.7855, 4.296691
557.2676, 4.320861
557.7498, 4.317207
558.2319, 4.304245
558.7140, 4.289939
559.1961, 4.284190
559.6782, 4.295746
560.1603, 4.324326
560.6425, 4.388324
561.1246, 4.569435
561.6067, 4.660470
562.0888, 4.507164
562.5709, 4.286037
563.0530, 4.213741
563.5352, 4.346153
564.0173, 4.510268
564.4994, 4.588489
564.9815, 4.581222
565.4636, 4.456910
565.9457, 4.183291
566.4279, 3.945724
566.9100, 3.878960
567.3921, 3.947614
567.8742, 4.002948
568.3563, 4.035036
568.8384, 4.070397
569.3206, 4.135686
569.8027, 4.200211
570.2848, 4.220223
570.7669, 4.193223
571.2490, 4.156275
571.7311, 4.142462
572.2133, 4.148407
572.6954, 4.136413
573.1775, 4.063267
573.6596, 4.033240
574.1417, 4.090653
574.6238, 4.173627
575.1060, 4.214166
575.5881, 3.966452
576.0702, 4.275845
576.5523, 4.450039
577.0344, 4.496299
577.5165, 4.031452
577.9987, 4.226594
578.4808, 4.157243
578.9629, 4.077045
579.4450, 4.365079
579.9271, 3.974571
580.4092, 4.256765
580.8914, 4.270429
581.3735, 4.406991
581.8556, 4.277427
582.3377, 4.230061
582.8198, 4.448908
583.3019, 4.520351
583.7841, 4.156893
584.2662, 4.048585
584.7483, 3.978284
585.2304, 3.942720
585.7125, 3.955495
586.1946, 4.095857
586.6768, 4.211812
