##NAMES=Strontioruizite
##RRUFFID=R160085
##IDEAL CHEMISTRY=Sr_2_Mn^3+^_2_Si_4_O_11_(OH)_4_&#183;2H_2_O
##LOCALITY=N’Chwaning III mine, Kalahari manganese field, Northern Cape Province, South Africa
##OWNER=RRUFF
##SOURCE=Bruce Cairncross
##DESCRIPTION=Clusters of brown, elongate crystals, associated with clusters of purple sugilite, bronze fibrous potassic-magnesioarfvedsonite, and dark red-brown lipuite
##STATUS=The identification of this mineral is confirmed by single-crystal X-ray diffraction and chemical analysis.
##URL=rruff.info/R160085
##MEASURED CHEMISTRY=(Sr_1.61_Ca_0.42_)_Σ2.03_(Mn^3+^_1.95_Fe^3+^_0.05_)_Σ2.00_Si_3.98_O_11_(OH)_4_·2H_2_O
8.813672e+001, 4.774139e+002
8.861884e+001, 4.843894e+002
8.910095e+001, 4.909923e+002
8.958307e+001, 4.970726e+002
9.006519e+001, 5.033289e+002
9.054730e+001, 5.105862e+002
9.102942e+001, 5.193345e+002
9.151154e+001, 5.276946e+002
9.199365e+001, 5.354166e+002
9.247577e+001, 5.418531e+002
9.295789e+001, 5.448936e+002
9.344000e+001, 5.405571e+002
9.392212e+001, 5.320927e+002
9.440424e+001, 5.287203e+002
9.488635e+001, 5.320776e+002
9.536847e+001, 5.376116e+002
9.585059e+001, 5.386570e+002
9.633270e+001, 5.353937e+002
9.681482e+001, 5.316915e+002
9.729694e+001, 5.290358e+002
9.777905e+001, 5.274426e+002
9.826117e+001, 5.279610e+002
9.874329e+001, 5.308575e+002
9.922540e+001, 5.355897e+002
9.970752e+001, 5.417458e+002
1.001896e+002, 5.499504e+002
1.006718e+002, 5.568318e+002
1.011539e+002, 5.593606e+002
1.016360e+002, 5.563060e+002
1.021181e+002, 5.548652e+002
1.026002e+002, 5.559880e+002
1.030823e+002, 5.594532e+002
1.035645e+002, 5.638452e+002
1.040466e+002, 5.693679e+002
1.045287e+002, 5.755937e+002
1.050108e+002, 5.820004e+002
1.054929e+002, 5.869461e+002
1.059750e+002, 5.949873e+002
1.064572e+002, 6.081710e+002
1.069393e+002, 6.274694e+002
1.074214e+002, 6.431026e+002
1.079035e+002, 6.557820e+002
1.083856e+002, 6.647885e+002
1.088677e+002, 6.691555e+002
1.093499e+002, 6.638150e+002
1.098320e+002, 6.589612e+002
1.103141e+002, 6.565832e+002
1.107962e+002, 6.570221e+002
1.112783e+002, 6.588257e+002
1.117604e+002, 6.623820e+002
1.122426e+002, 6.671630e+002
1.127247e+002, 6.723055e+002
1.132068e+002, 6.772770e+002
1.136889e+002, 6.828945e+002
1.141710e+002, 6.894986e+002
1.146531e+002, 6.974633e+002
1.151353e+002, 7.057522e+002
1.156174e+002, 7.152069e+002
1.160995e+002, 7.249730e+002
1.165816e+002, 7.330148e+002
1.170637e+002, 7.374551e+002
1.175458e+002, 7.404995e+002
1.180280e+002, 7.437365e+002
1.185101e+002, 7.482263e+002
1.189922e+002, 7.520241e+002
1.194743e+002, 7.533721e+002
1.199564e+002, 7.527943e+002
1.204385e+002, 7.526422e+002
1.209207e+002, 7.538914e+002
1.214028e+002, 7.563943e+002
1.218849e+002, 7.599078e+002
1.223670e+002, 7.631868e+002
1.228491e+002, 7.684333e+002
1.233312e+002, 7.804019e+002
1.238134e+002, 7.986091e+002
1.242955e+002, 8.135723e+002
1.247776e+002, 8.147546e+002
1.252597e+002, 8.070759e+002
1.257418e+002, 8.005095e+002
1.262239e+002, 7.994788e+002
1.267061e+002, 8.019780e+002
1.271882e+002, 8.048199e+002
1.276703e+002, 8.079674e+002
1.281524e+002, 8.119795e+002
1.286345e+002, 8.181130e+002
1.291166e+002, 8.259167e+002
1.295988e+002, 8.333653e+002
1.300809e+002, 8.388696e+002
1.305630e+002, 8.431655e+002
1.310451e+002, 8.492592e+002
1.315272e+002, 8.577731e+002
1.320093e+002, 8.663733e+002
1.324915e+002, 8.711297e+002
1.329736e+002, 8.720366e+002
1.334557e+002, 8.728596e+002
1.339378e+002, 8.757421e+002
1.344199e+002, 8.805594e+002
1.349020e+002, 8.851702e+002
1.353842e+002, 8.893673e+002
1.358663e+002, 8.932862e+002
1.363484e+002, 8.973926e+002
1.368305e+002, 9.016454e+002
1.373126e+002, 9.060872e+002
1.377947e+002, 9.100957e+002
1.382769e+002, 9.132157e+002
1.387590e+002, 9.196442e+002
1.392411e+002, 9.316391e+002
1.397232e+002, 9.467911e+002
1.402053e+002, 9.546578e+002
1.406874e+002, 9.534055e+002
1.411696e+002, 9.488622e+002
1.416517e+002, 9.448231e+002
1.421338e+002, 9.412675e+002
1.426159e+002, 9.383790e+002
1.430980e+002, 9.363049e+002
1.435801e+002, 9.350450e+002
1.440623e+002, 9.340440e+002
1.445444e+002, 9.332913e+002
1.450265e+002, 9.329083e+002
1.455086e+002, 9.329887e+002
1.459907e+002, 9.335060e+002
1.464728e+002, 9.346261e+002
1.469550e+002, 9.368810e+002
1.474371e+002, 9.404269e+002
1.479192e+002, 9.424180e+002
1.484013e+002, 9.424398e+002
1.488834e+002, 9.411530e+002
1.493655e+002, 9.391185e+002
1.498477e+002, 9.352559e+002
1.503298e+002, 9.317812e+002
1.508119e+002, 9.291894e+002
1.512940e+002, 9.276448e+002
1.517761e+002, 9.259920e+002
1.522583e+002, 9.239852e+002
1.527404e+002, 9.219587e+002
1.532225e+002, 9.202541e+002
1.537046e+002, 9.191111e+002
1.541867e+002, 9.181339e+002
1.546688e+002, 9.176511e+002
1.551510e+002, 9.182498e+002
1.556331e+002, 9.170550e+002
1.561152e+002, 9.114510e+002
1.565973e+002, 9.043316e+002
1.570794e+002, 8.996229e+002
1.575615e+002, 9.006418e+002
1.580437e+002, 9.021535e+002
1.585258e+002, 9.019384e+002
1.590079e+002, 8.991418e+002
1.594900e+002, 8.965100e+002
1.599721e+002, 8.945331e+002
1.604542e+002, 8.932646e+002
1.609364e+002, 8.927986e+002
1.614185e+002, 8.932027e+002
1.619006e+002, 8.943691e+002
1.623827e+002, 8.964727e+002
1.628648e+002, 9.001456e+002
1.633469e+002, 9.032634e+002
1.638291e+002, 9.047181e+002
1.643112e+002, 9.048764e+002
1.647933e+002, 9.046487e+002
1.652754e+002, 9.040032e+002
1.657575e+002, 9.033741e+002
1.662396e+002, 9.030878e+002
1.667218e+002, 9.032441e+002
1.672039e+002, 9.037081e+002
1.676860e+002, 9.046045e+002
1.681681e+002, 9.058012e+002
1.686502e+002, 9.068961e+002
1.691323e+002, 9.071057e+002
1.696145e+002, 9.073378e+002
1.700966e+002, 9.086080e+002
1.705787e+002, 9.116885e+002
1.710608e+002, 9.150555e+002
1.715429e+002, 9.175320e+002
1.720250e+002, 9.192229e+002
1.725072e+002, 9.205353e+002
1.729893e+002, 9.213494e+002
1.734714e+002, 9.220557e+002
1.739535e+002, 9.232662e+002
1.744356e+002, 9.255274e+002
1.749177e+002, 9.278611e+002
1.753999e+002, 9.292546e+002
1.758820e+002, 9.297653e+002
1.763641e+002, 9.298371e+002
1.768462e+002, 9.294168e+002
1.773283e+002, 9.288372e+002
1.778104e+002, 9.287374e+002
1.782926e+002, 9.294072e+002
1.787747e+002, 9.305693e+002
1.792568e+002, 9.322399e+002
1.797389e+002, 9.343611e+002
1.802210e+002, 9.359069e+002
1.807031e+002, 9.358152e+002
1.811853e+002, 9.344371e+002
1.816674e+002, 9.325850e+002
1.821495e+002, 9.301385e+002
1.826316e+002, 9.275957e+002
1.831137e+002, 9.260555e+002
1.835958e+002, 9.255109e+002
1.840780e+002, 9.253080e+002
1.845601e+002, 9.246485e+002
1.850422e+002, 9.237322e+002
1.855243e+002, 9.234049e+002
1.860064e+002, 9.241144e+002
1.864885e+002, 9.255332e+002
1.869707e+002, 9.269182e+002
1.874528e+002, 9.282986e+002
1.879349e+002, 9.294808e+002
1.884170e+002, 9.297516e+002
1.888991e+002, 9.293455e+002
1.893812e+002, 9.301921e+002
1.898634e+002, 9.339320e+002
1.903455e+002, 9.393837e+002
1.908276e+002, 9.416160e+002
1.913097e+002, 9.402045e+002
1.917918e+002, 9.379650e+002
1.922739e+002, 9.382587e+002
1.927561e+002, 9.410329e+002
1.932382e+002, 9.436107e+002
1.937203e+002, 9.449808e+002
1.942024e+002, 9.453601e+002
1.946845e+002, 9.461115e+002
1.951666e+002, 9.472717e+002
1.956488e+002, 9.485647e+002
1.961309e+002, 9.496222e+002
1.966130e+002, 9.504230e+002
1.970951e+002, 9.513165e+002
1.975772e+002, 9.525577e+002
1.980593e+002, 9.540770e+002
1.985415e+002, 9.550707e+002
1.990236e+002, 9.554939e+002
1.995057e+002, 9.555788e+002
1.999878e+002, 9.555035e+002
2.004699e+002, 9.552451e+002
2.009520e+002, 9.552634e+002
2.014342e+002, 9.558762e+002
2.019163e+002, 9.570871e+002
2.023984e+002, 9.579779e+002
2.028805e+002, 9.585604e+002
2.033626e+002, 9.588770e+002
2.038447e+002, 9.588348e+002
2.043269e+002, 9.583054e+002
2.048090e+002, 9.580824e+002
2.052911e+002, 9.584830e+002
2.057732e+002, 9.595111e+002
2.062553e+002, 9.605323e+002
2.067374e+002, 9.615460e+002
2.072196e+002, 9.624881e+002
2.077017e+002, 9.631860e+002
2.081838e+002, 9.634739e+002
2.086659e+002, 9.640043e+002
2.091480e+002, 9.651166e+002
2.096301e+002, 9.668848e+002
2.101123e+002, 9.679921e+002
2.105944e+002, 9.681816e+002
2.110765e+002, 9.680306e+002
2.115586e+002, 9.685009e+002
2.120407e+002, 9.699915e+002
2.125228e+002, 9.709130e+002
2.130050e+002, 9.704191e+002
2.134871e+002, 9.682328e+002
2.139692e+002, 9.675443e+002
2.144513e+002, 9.691616e+002
2.149334e+002, 9.713881e+002
2.154155e+002, 9.717399e+002
2.158977e+002, 9.695693e+002
2.163798e+002, 9.671129e+002
2.168619e+002, 9.651384e+002
2.173440e+002, 9.637967e+002
2.178261e+002, 9.618043e+002
2.183082e+002, 9.590242e+002
2.187904e+002, 9.557869e+002
2.192725e+002, 9.525213e+002
2.197546e+002, 9.492482e+002
2.202367e+002, 9.460421e+002
2.207188e+002, 9.432756e+002
2.212009e+002, 9.412540e+002
2.216831e+002, 9.373992e+002
2.221652e+002, 9.312936e+002
2.226473e+002, 9.237753e+002
2.231294e+002, 9.158588e+002
2.236115e+002, 9.067087e+002
2.240936e+002, 8.987335e+002
2.245758e+002, 8.927858e+002
2.250579e+002, 8.892523e+002
2.255400e+002, 8.852485e+002
2.260221e+002, 8.807934e+002
2.265042e+002, 8.758461e+002
2.269863e+002, 8.702518e+002
2.274685e+002, 8.630887e+002
2.279506e+002, 8.568829e+002
2.284327e+002, 8.524723e+002
2.289148e+002, 8.500597e+002
2.293969e+002, 8.475120e+002
2.298790e+002, 8.446707e+002
2.303612e+002, 8.417994e+002
2.308433e+002, 8.392947e+002
2.313254e+002, 8.374977e+002
2.318075e+002, 8.353439e+002
2.322896e+002, 8.323431e+002
2.327717e+002, 8.283192e+002
2.332539e+002, 8.252012e+002
2.337360e+002, 8.233461e+002
2.342181e+002, 8.221530e+002
2.347002e+002, 8.209685e+002
2.351823e+002, 8.198061e+002
2.356644e+002, 8.186823e+002
2.361466e+002, 8.176231e+002
2.366287e+002, 8.166539e+002
2.371108e+002, 8.156583e+002
2.375929e+002, 8.144400e+002
2.380750e+002, 8.134373e+002
2.385571e+002, 8.130488e+002
2.390393e+002, 8.130690e+002
2.395214e+002, 8.141523e+002
2.400035e+002, 8.167115e+002
2.404856e+002, 8.208748e+002
2.409677e+002, 8.245537e+002
2.414498e+002, 8.274919e+002
2.419320e+002, 8.301781e+002
2.424141e+002, 8.331237e+002
2.428962e+002, 8.364979e+002
2.433783e+002, 8.397269e+002
2.438604e+002, 8.424266e+002
2.443425e+002, 8.445792e+002
2.448247e+002, 8.479743e+002
2.453068e+002, 8.535250e+002
2.457889e+002, 8.593020e+002
2.462710e+002, 8.636722e+002
2.467531e+002, 8.660182e+002
2.472352e+002, 8.681263e+002
2.477174e+002, 8.701686e+002
2.481995e+002, 8.721450e+002
2.486816e+002, 8.743967e+002
2.491637e+002, 8.772919e+002
2.496458e+002, 8.800856e+002
2.501279e+002, 8.821420e+002
2.506101e+002, 8.832396e+002
2.510922e+002, 8.841553e+002
2.515743e+002, 8.846511e+002
2.520564e+002, 8.849371e+002
2.525385e+002, 8.867246e+002
2.530206e+002, 8.906464e+002
2.535028e+002, 8.952852e+002
2.539849e+002, 8.995883e+002
2.544670e+002, 9.034960e+002
2.549491e+002, 9.072117e+002
2.554312e+002, 9.102213e+002
2.559133e+002, 9.129186e+002
2.563955e+002, 9.180284e+002
2.568776e+002, 9.272864e+002
2.573597e+002, 9.362668e+002
2.578418e+002, 9.421254e+002
2.583239e+002, 9.440099e+002
2.588061e+002, 9.451293e+002
2.592882e+002, 9.459000e+002
2.597703e+002, 9.460382e+002
2.602524e+002, 9.444869e+002
2.607345e+002, 9.410244e+002
2.612166e+002, 9.363046e+002
2.616988e+002, 9.304271e+002
2.621809e+002, 9.231571e+002
2.626630e+002, 9.159839e+002
2.631451e+002, 9.091876e+002
2.636272e+002, 9.025095e+002
2.641093e+002, 8.953038e+002
2.645915e+002, 8.871475e+002
2.650736e+002, 8.793437e+002
2.655557e+002, 8.724329e+002
2.660378e+002, 8.666992e+002
2.665199e+002, 8.612431e+002
2.670020e+002, 8.560690e+002
2.674842e+002, 8.511978e+002
2.679663e+002, 8.467572e+002
2.684484e+002, 8.427244e+002
2.689305e+002, 8.391827e+002
2.694126e+002, 8.361922e+002
2.698947e+002, 8.337028e+002
2.703769e+002, 8.317454e+002
2.708590e+002, 8.302173e+002
2.713411e+002, 8.292808e+002
2.718232e+002, 8.295363e+002
2.723053e+002, 8.313884e+002
2.727874e+002, 8.327623e+002
2.732696e+002, 8.325801e+002
2.737517e+002, 8.306894e+002
2.742338e+002, 8.298656e+002
2.747159e+002, 8.303141e+002
2.751980e+002, 8.313903e+002
2.756801e+002, 8.323500e+002
2.761623e+002, 8.332382e+002
2.766444e+002, 8.337253e+002
2.771265e+002, 8.333815e+002
2.776086e+002, 8.323392e+002
2.780907e+002, 8.329102e+002
2.785728e+002, 8.355688e+002
2.790550e+002, 8.385471e+002
2.795371e+002, 8.395525e+002
2.800192e+002, 8.384033e+002
2.805013e+002, 8.379082e+002
2.809834e+002, 8.389373e+002
2.814655e+002, 8.412368e+002
2.819477e+002, 8.435610e+002
2.824298e+002, 8.459070e+002
2.829119e+002, 8.482014e+002
2.833940e+002, 8.502028e+002
2.838761e+002, 8.519169e+002
2.843582e+002, 8.541322e+002
2.848404e+002, 8.572266e+002
2.853225e+002, 8.607995e+002
2.858046e+002, 8.635522e+002
2.862867e+002, 8.653879e+002
2.867688e+002, 8.670934e+002
2.872509e+002, 8.693294e+002
2.877331e+002, 8.720267e+002
2.882152e+002, 8.746559e+002
2.886973e+002, 8.772299e+002
2.891794e+002, 8.795609e+002
2.896615e+002, 8.812516e+002
2.901436e+002, 8.823154e+002
2.906258e+002, 8.828019e+002
2.911079e+002, 8.826135e+002
2.915900e+002, 8.818510e+002
2.920721e+002, 8.810002e+002
2.925542e+002, 8.802222e+002
2.930363e+002, 8.791635e+002
2.935185e+002, 8.771711e+002
2.940006e+002, 8.742892e+002
2.944827e+002, 8.711598e+002
2.949648e+002, 8.679394e+002
2.954469e+002, 8.646889e+002
2.959290e+002, 8.616811e+002
2.964112e+002, 8.589581e+002
2.968933e+002, 8.562621e+002
2.973754e+002, 8.530579e+002
2.978575e+002, 8.495701e+002
2.983396e+002, 8.465666e+002
2.988217e+002, 8.448174e+002
2.993039e+002, 8.437048e+002
2.997860e+002, 8.421172e+002
3.002681e+002, 8.399827e+002
3.007502e+002, 8.378500e+002
3.012323e+002, 8.365677e+002
3.017144e+002, 8.357225e+002
3.021966e+002, 8.343798e+002
3.026787e+002, 8.314010e+002
3.031608e+002, 8.281464e+002
3.036429e+002, 8.265479e+002
3.041250e+002, 8.265399e+002
3.046071e+002, 8.265135e+002
3.050893e+002, 8.247994e+002
3.055714e+002, 8.223082e+002
3.060535e+002, 8.205450e+002
3.065356e+002, 8.200262e+002
3.070177e+002, 8.203203e+002
3.074998e+002, 8.217617e+002
3.079820e+002, 8.240212e+002
3.084641e+002, 8.252830e+002
3.089462e+002, 8.234591e+002
3.094283e+002, 8.204188e+002
3.099104e+002, 8.183158e+002
3.103925e+002, 8.182582e+002
3.108747e+002, 8.182101e+002
3.113568e+002, 8.162185e+002
3.118389e+002, 8.130513e+002
3.123210e+002, 8.108581e+002
3.128031e+002, 8.114716e+002
3.132852e+002, 8.129982e+002
3.137674e+002, 8.139660e+002
3.142495e+002, 8.139603e+002
3.147316e+002, 8.139283e+002
3.152137e+002, 8.146189e+002
3.156958e+002, 8.155652e+002
3.161779e+002, 8.159676e+002
3.166601e+002, 8.146703e+002
3.171422e+002, 8.134221e+002
3.176243e+002, 8.131883e+002
3.181064e+002, 8.141675e+002
3.185885e+002, 8.154403e+002
3.190706e+002, 8.169453e+002
3.195528e+002, 8.184946e+002
3.200349e+002, 8.198743e+002
3.205170e+002, 8.206809e+002
3.209991e+002, 8.216427e+002
3.214812e+002, 8.231248e+002
3.219633e+002, 8.251461e+002
3.224455e+002, 8.269346e+002
3.229276e+002, 8.278061e+002
3.234097e+002, 8.286820e+002
3.238918e+002, 8.302515e+002
3.243739e+002, 8.335860e+002
3.248560e+002, 8.365360e+002
3.253382e+002, 8.384408e+002
3.258203e+002, 8.395128e+002
3.263024e+002, 8.411441e+002
3.267845e+002, 8.438144e+002
3.272666e+002, 8.467871e+002
3.277487e+002, 8.497260e+002
3.282309e+002, 8.527233e+002
3.287130e+002, 8.554913e+002
3.291951e+002, 8.575871e+002
3.296772e+002, 8.594650e+002
3.301593e+002, 8.623337e+002
3.306414e+002, 8.672200e+002
3.311236e+002, 8.718792e+002
3.316057e+002, 8.754156e+002
3.320878e+002, 8.771360e+002
3.325699e+002, 8.798855e+002
3.330520e+002, 8.839771e+002
3.335341e+002, 8.888780e+002
3.340163e+002, 8.938391e+002
3.344984e+002, 8.988011e+002
3.349805e+002, 9.038731e+002
3.354626e+002, 9.090316e+002
3.359447e+002, 9.142884e+002
3.364268e+002, 9.202324e+002
3.369090e+002, 9.272168e+002
3.373911e+002, 9.344493e+002
3.378732e+002, 9.407461e+002
3.383553e+002, 9.454795e+002
3.388374e+002, 9.519406e+002
3.393195e+002, 9.613854e+002
3.398017e+002, 9.729041e+002
3.402838e+002, 9.827034e+002
3.407659e+002, 9.905042e+002
3.412480e+002, 9.975800e+002
3.417301e+002, 1.004805e+003
3.422122e+002, 1.012135e+003
3.426944e+002, 1.019633e+003
3.431765e+002, 1.027422e+003
3.436586e+002, 1.035171e+003
3.441407e+002, 1.042084e+003
3.446228e+002, 1.048135e+003
3.451049e+002, 1.053579e+003
3.455871e+002, 1.058490e+003
3.460692e+002, 1.062928e+003
3.465513e+002, 1.066838e+003
3.470334e+002, 1.070287e+003
3.475155e+002, 1.073094e+003
3.479977e+002, 1.075201e+003
3.484798e+002, 1.076535e+003
3.489619e+002, 1.076500e+003
3.494440e+002, 1.073822e+003
3.499261e+002, 1.069966e+003
3.504082e+002, 1.068264e+003
3.508904e+002, 1.068701e+003
3.513725e+002, 1.069013e+003
3.518546e+002, 1.067153e+003
3.523367e+002, 1.063709e+003
3.528188e+002, 1.059892e+003
3.533009e+002, 1.055908e+003
3.537831e+002, 1.051827e+003
3.542652e+002, 1.047598e+003
3.547473e+002, 1.043283e+003
3.552294e+002, 1.039190e+003
3.557115e+002, 1.035938e+003
3.561936e+002, 1.032834e+003
3.566758e+002, 1.029047e+003
3.571579e+002, 1.024180e+003
3.576400e+002, 1.019305e+003
3.581221e+002, 1.015042e+003
3.586042e+002, 1.011357e+003
3.590863e+002, 1.008061e+003
3.595685e+002, 1.004969e+003
3.600506e+002, 1.002357e+003
3.605327e+002, 1.000747e+003
3.610148e+002, 1.000347e+003
3.614969e+002, 9.993036e+002
3.619790e+002, 9.959765e+002
3.624612e+002, 9.919274e+002
3.629433e+002, 9.887821e+002
3.634254e+002, 9.874346e+002
3.639075e+002, 9.865648e+002
3.643896e+002, 9.858952e+002
3.648717e+002, 9.853782e+002
3.653539e+002, 9.848095e+002
3.658360e+002, 9.840179e+002
3.663181e+002, 9.832012e+002
3.668002e+002, 9.824508e+002
3.672823e+002, 9.813067e+002
3.677644e+002, 9.807930e+002
3.682466e+002, 9.813385e+002
3.687287e+002, 9.825878e+002
3.692108e+002, 9.835342e+002
3.696929e+002, 9.839485e+002
3.701750e+002, 9.843181e+002
3.706571e+002, 9.847789e+002
3.711393e+002, 9.853129e+002
3.716214e+002, 9.860840e+002
3.721035e+002, 9.873560e+002
3.725856e+002, 9.887136e+002
3.730677e+002, 9.895000e+002
3.735498e+002, 9.892136e+002
3.740320e+002, 9.895620e+002
3.745141e+002, 9.912920e+002
3.749962e+002, 9.942526e+002
3.754783e+002, 9.957730e+002
3.759604e+002, 9.951326e+002
3.764425e+002, 9.946450e+002
3.769247e+002, 9.967272e+002
3.774068e+002, 1.001902e+003
3.778889e+002, 1.005525e+003
3.783710e+002, 1.006864e+003
3.788531e+002, 1.006428e+003
3.793352e+002, 1.005116e+003
3.798174e+002, 1.002866e+003
3.802995e+002, 1.000548e+003
3.807816e+002, 9.984639e+002
3.812637e+002, 9.966457e+002
3.817458e+002, 9.956727e+002
3.822279e+002, 9.956736e+002
3.827101e+002, 9.959550e+002
3.831922e+002, 9.960039e+002
3.836743e+002, 9.956830e+002
3.841564e+002, 9.943650e+002
3.846385e+002, 9.911320e+002
3.851206e+002, 9.870517e+002
3.856028e+002, 9.841121e+002
3.860849e+002, 9.822656e+002
3.865670e+002, 9.805753e+002
3.870491e+002, 9.781633e+002
3.875312e+002, 9.754468e+002
3.880133e+002, 9.730916e+002
3.884955e+002, 9.713305e+002
3.889776e+002, 9.698890e+002
3.894597e+002, 9.688058e+002
3.899418e+002, 9.679219e+002
3.904239e+002, 9.667609e+002
3.909060e+002, 9.644998e+002
3.913882e+002, 9.622394e+002
3.918703e+002, 9.607790e+002
3.923524e+002, 9.602099e+002
3.928345e+002, 9.603752e+002
3.933166e+002, 9.614212e+002
3.937987e+002, 9.630888e+002
3.942809e+002, 9.650309e+002
3.947630e+002, 9.678584e+002
3.952451e+002, 9.702423e+002
3.957272e+002, 9.712943e+002
3.962093e+002, 9.711162e+002
3.966914e+002, 9.717916e+002
3.971736e+002, 9.744266e+002
3.976557e+002, 9.775865e+002
3.981378e+002, 9.804059e+002
3.986199e+002, 9.821126e+002
3.991020e+002, 9.843054e+002
3.995841e+002, 9.878133e+002
4.000663e+002, 9.917989e+002
4.005484e+002, 9.941735e+002
4.010305e+002, 9.934540e+002
4.015126e+002, 9.929996e+002
4.019947e+002, 9.942755e+002
4.024768e+002, 9.979592e+002
4.029590e+002, 9.995654e+002
4.034411e+002, 9.983136e+002
4.039232e+002, 9.958835e+002
4.044053e+002, 9.942546e+002
4.048874e+002, 9.938632e+002
4.053695e+002, 9.927259e+002
4.058517e+002, 9.902125e+002
4.063338e+002, 9.867152e+002
4.068159e+002, 9.838422e+002
4.072980e+002, 9.816811e+002
4.077801e+002, 9.797486e+002
4.082622e+002, 9.781306e+002
4.087444e+002, 9.767216e+002
4.092265e+002, 9.738094e+002
