##NAMES=Sugilite
##RRUFFID=R130754
##IDEAL CHEMISTRY=KNa_2_Fe^3+^_2_(Li_3_Si_12_)O_30_
##LOCALITY=N'Chwaning III mine, Kalahari manganese field, Northern Cape Province, South Africa
##OWNER=RRUFF
##SOURCE=Jaco and Tania Janse van Nieuwenhuizen
##DESCRIPTION=Fibrous spheres and layer of purple color, associated with dark-red lipuite (R140946).
##STATUS=The identification of this mineral has been confirmed only by single crystal X-ray diffraction.
##URL=rruff.info/R130754
8.806445e+001, 8.406755e+002
8.854657e+001, 8.374293e+002
8.902869e+001, 8.363427e+002
8.951080e+001, 8.379499e+002
8.999292e+001, 8.414559e+002
9.047504e+001, 8.467325e+002
9.095715e+001, 8.541846e+002
9.143927e+001, 8.616224e+002
9.192139e+001, 8.657360e+002
9.240350e+001, 8.667081e+002
9.288562e+001, 8.669246e+002
9.336774e+001, 8.615461e+002
9.384985e+001, 8.454091e+002
9.433197e+001, 8.197776e+002
9.481409e+001, 7.971026e+002
9.529620e+001, 7.738670e+002
9.577832e+001, 7.519833e+002
9.626044e+001, 7.317910e+002
9.674255e+001, 7.129529e+002
9.722467e+001, 6.946654e+002
9.770679e+001, 6.761203e+002
9.818890e+001, 6.598362e+002
9.867102e+001, 6.466896e+002
9.915314e+001, 6.349218e+002
9.963525e+001, 6.229553e+002
1.001174e+002, 6.100108e+002
1.005995e+002, 5.965596e+002
1.010816e+002, 5.843144e+002
1.015637e+002, 5.731848e+002
1.020458e+002, 5.632816e+002
1.025280e+002, 5.546868e+002
1.030101e+002, 5.471580e+002
1.034922e+002, 5.403493e+002
1.039743e+002, 5.340754e+002
1.044564e+002, 5.282952e+002
1.049385e+002, 5.231050e+002
1.054207e+002, 5.192782e+002
1.059028e+002, 5.151480e+002
1.063849e+002, 5.098623e+002
1.068670e+002, 5.033852e+002
1.073491e+002, 4.960383e+002
1.078312e+002, 4.876400e+002
1.083134e+002, 4.783055e+002
1.087955e+002, 4.702344e+002
1.092776e+002, 4.641522e+002
1.097597e+002, 4.593392e+002
1.102418e+002, 4.547537e+002
1.107239e+002, 4.501599e+002
1.112061e+002, 4.460389e+002
1.116882e+002, 4.429649e+002
1.121703e+002, 4.407230e+002
1.126524e+002, 4.386439e+002
1.131345e+002, 4.361610e+002
1.136166e+002, 4.333224e+002
1.140988e+002, 4.310844e+002
1.145809e+002, 4.303283e+002
1.150630e+002, 4.295797e+002
1.155451e+002, 4.280046e+002
1.160272e+002, 4.255695e+002
1.165093e+002, 4.228259e+002
1.169915e+002, 4.203895e+002
1.174736e+002, 4.182749e+002
1.179557e+002, 4.164687e+002
1.184378e+002, 4.149745e+002
1.189199e+002, 4.137135e+002
1.194020e+002, 4.126337e+002
1.198842e+002, 4.117154e+002
1.203663e+002, 4.109740e+002
1.208484e+002, 4.104451e+002
1.213305e+002, 4.102249e+002
1.218126e+002, 4.101416e+002
1.222947e+002, 4.105718e+002
1.227769e+002, 4.110453e+002
1.232590e+002, 4.108839e+002
1.237411e+002, 4.096792e+002
1.242232e+002, 4.077039e+002
1.247053e+002, 4.062018e+002
1.251874e+002, 4.047079e+002
1.256696e+002, 4.039958e+002
1.261517e+002, 4.046434e+002
1.266338e+002, 4.064288e+002
1.271159e+002, 4.084716e+002
1.275980e+002, 4.103515e+002
1.280801e+002, 4.120354e+002
1.285623e+002, 4.135294e+002
1.290444e+002, 4.145734e+002
1.295265e+002, 4.156086e+002
1.300086e+002, 4.171685e+002
1.304907e+002, 4.193575e+002
1.309728e+002, 4.215332e+002
1.314550e+002, 4.236071e+002
1.319371e+002, 4.253763e+002
1.324192e+002, 4.263711e+002
1.329013e+002, 4.259202e+002
1.333834e+002, 4.246392e+002
1.338655e+002, 4.244333e+002
1.343477e+002, 4.260121e+002
1.348298e+002, 4.276996e+002
1.353119e+002, 4.289979e+002
1.357940e+002, 4.298814e+002
1.362761e+002, 4.303145e+002
1.367582e+002, 4.302040e+002
1.372404e+002, 4.295395e+002
1.377225e+002, 4.288406e+002
1.382046e+002, 4.285483e+002
1.386867e+002, 4.278293e+002
1.391688e+002, 4.262519e+002
1.396509e+002, 4.239358e+002
1.401331e+002, 4.212825e+002
1.406152e+002, 4.185519e+002
1.410973e+002, 4.154034e+002
1.415794e+002, 4.136933e+002
1.420615e+002, 4.133148e+002
1.425436e+002, 4.140901e+002
1.430258e+002, 4.158116e+002
1.435079e+002, 4.184808e+002
1.439900e+002, 4.223570e+002
1.444721e+002, 4.277565e+002
1.449542e+002, 4.347444e+002
1.454363e+002, 4.437575e+002
1.459185e+002, 4.563283e+002
1.464006e+002, 4.704022e+002
1.468827e+002, 4.845672e+002
1.473648e+002, 4.988789e+002
1.478469e+002, 5.111050e+002
1.483290e+002, 5.174968e+002
1.488112e+002, 5.192296e+002
1.492933e+002, 5.149098e+002
1.497754e+002, 5.015170e+002
1.502575e+002, 4.813130e+002
1.507396e+002, 4.603683e+002
1.512217e+002, 4.395815e+002
1.517039e+002, 4.200330e+002
1.521860e+002, 4.025592e+002
1.526681e+002, 3.870470e+002
1.531502e+002, 3.738514e+002
1.536323e+002, 3.635771e+002
1.541144e+002, 3.563286e+002
1.545966e+002, 3.500801e+002
1.550787e+002, 3.446269e+002
1.555608e+002, 3.398890e+002
1.560429e+002, 3.360048e+002
1.565250e+002, 3.329985e+002
1.570071e+002, 3.305308e+002
1.574893e+002, 3.280544e+002
1.579714e+002, 3.253167e+002
1.584535e+002, 3.233127e+002
1.589356e+002, 3.226397e+002
1.594177e+002, 3.224213e+002
1.598998e+002, 3.220025e+002
1.603820e+002, 3.211370e+002
1.608641e+002, 3.200341e+002
1.613462e+002, 3.192221e+002
1.618283e+002, 3.191742e+002
1.623104e+002, 3.187356e+002
1.627925e+002, 3.176241e+002
1.632747e+002, 3.161640e+002
1.637568e+002, 3.146241e+002
1.642389e+002, 3.131387e+002
1.647210e+002, 3.117645e+002
1.652031e+002, 3.107691e+002
1.656852e+002, 3.105573e+002
1.661674e+002, 3.102671e+002
1.666495e+002, 3.097016e+002
1.671316e+002, 3.089705e+002
1.676137e+002, 3.082928e+002
1.680958e+002, 3.078068e+002
1.685779e+002, 3.074621e+002
1.690601e+002, 3.069244e+002
1.695422e+002, 3.061269e+002
1.700243e+002, 3.052558e+002
1.705064e+002, 3.042297e+002
1.709885e+002, 3.031369e+002
1.714706e+002, 3.022998e+002
1.719528e+002, 3.019210e+002
1.724349e+002, 3.020053e+002
1.729170e+002, 3.022950e+002
1.733991e+002, 3.031157e+002
1.738812e+002, 3.038831e+002
1.743633e+002, 3.040268e+002
1.748455e+002, 3.035299e+002
1.753276e+002, 3.031023e+002
1.758097e+002, 3.032647e+002
1.762918e+002, 3.037860e+002
1.767739e+002, 3.042969e+002
1.772560e+002, 3.049854e+002
1.777382e+002, 3.054437e+002
1.782203e+002, 3.051241e+002
1.787024e+002, 3.040075e+002
1.791845e+002, 3.021551e+002
1.796666e+002, 2.996149e+002
1.801487e+002, 2.964261e+002
1.806309e+002, 2.924926e+002
1.811130e+002, 2.875729e+002
1.815951e+002, 2.819908e+002
1.820772e+002, 2.765109e+002
1.825593e+002, 2.710818e+002
1.830414e+002, 2.659065e+002
1.835236e+002, 2.609649e+002
1.840057e+002, 2.562856e+002
1.844878e+002, 2.518795e+002
1.849699e+002, 2.477067e+002
1.854520e+002, 2.438233e+002
1.859341e+002, 2.406127e+002
1.864163e+002, 2.386407e+002
1.868984e+002, 2.367879e+002
1.873805e+002, 2.346357e+002
1.878626e+002, 2.324093e+002
1.883447e+002, 2.305689e+002
1.888268e+002, 2.294908e+002
1.893090e+002, 2.291441e+002
1.897911e+002, 2.282814e+002
1.902732e+002, 2.258691e+002
1.907553e+002, 2.239867e+002
1.912374e+002, 2.234989e+002
1.917195e+002, 2.240268e+002
1.922017e+002, 2.246783e+002
1.926838e+002, 2.247961e+002
1.931659e+002, 2.243679e+002
1.936480e+002, 2.236633e+002
1.941301e+002, 2.223933e+002
1.946122e+002, 2.211884e+002
1.950944e+002, 2.202759e+002
1.955765e+002, 2.196621e+002
1.960586e+002, 2.192839e+002
1.965407e+002, 2.191287e+002
1.970228e+002, 2.192082e+002
1.975049e+002, 2.192091e+002
1.979871e+002, 2.193250e+002
1.984692e+002, 2.192192e+002
1.989513e+002, 2.184262e+002
1.994334e+002, 2.170309e+002
1.999155e+002, 2.158674e+002
2.003976e+002, 2.157212e+002
2.008798e+002, 2.165397e+002
2.013619e+002, 2.170251e+002
2.018440e+002, 2.170531e+002
2.023261e+002, 2.167831e+002
2.028082e+002, 2.162084e+002
2.032903e+002, 2.153154e+002
2.037725e+002, 2.145583e+002
2.042546e+002, 2.144442e+002
2.047367e+002, 2.147679e+002
2.052188e+002, 2.149434e+002
2.057009e+002, 2.147841e+002
2.061830e+002, 2.144536e+002
2.066652e+002, 2.141436e+002
2.071473e+002, 2.138474e+002
2.076294e+002, 2.136106e+002
2.081115e+002, 2.134159e+002
2.085936e+002, 2.133030e+002
2.090757e+002, 2.133818e+002
2.095579e+002, 2.138755e+002
2.100400e+002, 2.145130e+002
2.105221e+002, 2.146954e+002
2.110042e+002, 2.142242e+002
2.114863e+002, 2.137380e+002
2.119685e+002, 2.136217e+002
2.124506e+002, 2.136834e+002
2.129327e+002, 2.136412e+002
2.134148e+002, 2.133186e+002
2.138969e+002, 2.128190e+002
2.143790e+002, 2.124748e+002
2.148612e+002, 2.123845e+002
2.153433e+002, 2.122920e+002
2.158254e+002, 2.120116e+002
2.163075e+002, 2.116921e+002
2.167896e+002, 2.115537e+002
2.172717e+002, 2.117507e+002
2.177539e+002, 2.121994e+002
2.182360e+002, 2.125295e+002
2.187181e+002, 2.127436e+002
2.192002e+002, 2.128108e+002
2.196823e+002, 2.126249e+002
2.201644e+002, 2.123216e+002
2.206466e+002, 2.120920e+002
2.211287e+002, 2.120596e+002
2.216108e+002, 2.121808e+002
2.220929e+002, 2.122075e+002
2.225750e+002, 2.120195e+002
2.230571e+002, 2.118626e+002
2.235393e+002, 2.118591e+002
2.240214e+002, 2.118976e+002
2.245035e+002, 2.117708e+002
2.249856e+002, 2.113327e+002
2.254677e+002, 2.106796e+002
2.259498e+002, 2.104324e+002
2.264320e+002, 2.111672e+002
2.269141e+002, 2.116907e+002
2.273962e+002, 2.115474e+002
2.278783e+002, 2.111058e+002
2.283604e+002, 2.109987e+002
2.288425e+002, 2.116226e+002
2.293247e+002, 2.127999e+002
2.298068e+002, 2.135029e+002
2.302889e+002, 2.133302e+002
2.307710e+002, 2.131788e+002
2.312531e+002, 2.131403e+002
2.317352e+002, 2.132532e+002
2.322174e+002, 2.136113e+002
2.326995e+002, 2.142966e+002
2.331816e+002, 2.152007e+002
2.336637e+002, 2.158342e+002
2.341458e+002, 2.160147e+002
2.346279e+002, 2.161905e+002
2.351101e+002, 2.164939e+002
2.355922e+002, 2.168696e+002
2.360743e+002, 2.172020e+002
2.365564e+002, 2.174260e+002
2.370385e+002, 2.175832e+002
2.375206e+002, 2.177941e+002
2.380028e+002, 2.179907e+002
2.384849e+002, 2.183224e+002
2.389670e+002, 2.189315e+002
2.394491e+002, 2.197132e+002
2.399312e+002, 2.204450e+002
2.404133e+002, 2.210317e+002
2.408955e+002, 2.215045e+002
2.413776e+002, 2.219381e+002
2.418597e+002, 2.223303e+002
2.423418e+002, 2.226975e+002
2.428239e+002, 2.229944e+002
2.433060e+002, 2.232638e+002
2.437882e+002, 2.236458e+002
2.442703e+002, 2.242318e+002
2.447524e+002, 2.248895e+002
2.452345e+002, 2.253378e+002
2.457166e+002, 2.254913e+002
2.461987e+002, 2.258441e+002
2.466809e+002, 2.268902e+002
2.471630e+002, 2.283756e+002
2.476451e+002, 2.294029e+002
2.481272e+002, 2.295131e+002
2.486093e+002, 2.293556e+002
2.490914e+002, 2.297022e+002
2.495736e+002, 2.305473e+002
2.500557e+002, 2.315460e+002
2.505378e+002, 2.325957e+002
2.510199e+002, 2.336630e+002
2.515020e+002, 2.346502e+002
2.519841e+002, 2.356540e+002
2.524663e+002, 2.363839e+002
2.529484e+002, 2.363821e+002
2.534305e+002, 2.357571e+002
2.539126e+002, 2.354874e+002
2.543947e+002, 2.364081e+002
2.548768e+002, 2.382556e+002
2.553590e+002, 2.397891e+002
2.558411e+002, 2.409133e+002
2.563232e+002, 2.416118e+002
2.568053e+002, 2.418925e+002
2.572874e+002, 2.418086e+002
2.577695e+002, 2.415477e+002
2.582516e+002, 2.410754e+002
2.587338e+002, 2.404688e+002
2.592159e+002, 2.402108e+002
2.596980e+002, 2.406243e+002
2.601801e+002, 2.409323e+002
2.606622e+002, 2.407090e+002
2.611443e+002, 2.400866e+002
2.616265e+002, 2.393498e+002
2.621086e+002, 2.385918e+002
2.625907e+002, 2.378499e+002
2.630728e+002, 2.373324e+002
2.635549e+002, 2.371784e+002
2.640370e+002, 2.370428e+002
2.645192e+002, 2.366081e+002
2.650013e+002, 2.361150e+002
2.654834e+002, 2.359636e+002
2.659655e+002, 2.364162e+002
2.664476e+002, 2.373363e+002
2.669297e+002, 2.382407e+002
2.674119e+002, 2.390124e+002
2.678940e+002, 2.399745e+002
2.683761e+002, 2.410952e+002
2.688582e+002, 2.424603e+002
2.693403e+002, 2.442364e+002
2.698224e+002, 2.465468e+002
2.703046e+002, 2.491929e+002
2.707867e+002, 2.515984e+002
2.712688e+002, 2.534953e+002
2.717509e+002, 2.556380e+002
2.722330e+002, 2.583035e+002
2.727151e+002, 2.611977e+002
2.731973e+002, 2.641158e+002
2.736794e+002, 2.669868e+002
2.741615e+002, 2.696966e+002
2.746436e+002, 2.720716e+002
2.751257e+002, 2.742525e+002
2.756078e+002, 2.757388e+002
2.760900e+002, 2.762429e+002
2.765721e+002, 2.763036e+002
2.770542e+002, 2.763201e+002
2.775363e+002, 2.764196e+002
2.780184e+002, 2.765136e+002
2.785005e+002, 2.764440e+002
2.789827e+002, 2.761302e+002
2.794648e+002, 2.758246e+002
2.799469e+002, 2.755197e+002
2.804290e+002, 2.752399e+002
2.809111e+002, 2.750170e+002
2.813932e+002, 2.748498e+002
2.818754e+002, 2.747008e+002
2.823575e+002, 2.745464e+002
2.828396e+002, 2.744596e+002
2.833217e+002, 2.741440e+002
2.838038e+002, 2.736480e+002
2.842859e+002, 2.729241e+002
2.847681e+002, 2.720998e+002
2.852502e+002, 2.710802e+002
2.857323e+002, 2.695346e+002
2.862144e+002, 2.670676e+002
2.866965e+002, 2.635248e+002
2.871786e+002, 2.598904e+002
2.876608e+002, 2.560528e+002
2.881429e+002, 2.522190e+002
2.886250e+002, 2.484136e+002
2.891071e+002, 2.446777e+002
2.895892e+002, 2.410611e+002
2.900714e+002, 2.375752e+002
2.905535e+002, 2.342322e+002
2.910356e+002, 2.311237e+002
2.915177e+002, 2.281557e+002
2.919998e+002, 2.255308e+002
2.924819e+002, 2.232348e+002
2.929641e+002, 2.213271e+002
2.934462e+002, 2.199307e+002
2.939283e+002, 2.191429e+002
2.944104e+002, 2.188940e+002
2.948925e+002, 2.186700e+002
2.953746e+002, 2.184928e+002
2.958568e+002, 2.183175e+002
2.963389e+002, 2.182157e+002
2.968210e+002, 2.180896e+002
2.973031e+002, 2.178106e+002
2.977852e+002, 2.173151e+002
2.982673e+002, 2.166382e+002
2.987495e+002, 2.158955e+002
2.992316e+002, 2.151664e+002
2.997137e+002, 2.142354e+002
3.001958e+002, 2.131817e+002
3.006779e+002, 2.118820e+002
3.011600e+002, 2.101246e+002
3.016422e+002, 2.078584e+002
3.021243e+002, 2.053462e+002
3.026064e+002, 2.030747e+002
3.030885e+002, 2.011986e+002
3.035706e+002, 1.993173e+002
3.040527e+002, 1.973836e+002
3.045349e+002, 1.954816e+002
3.050170e+002, 1.936550e+002
3.054991e+002, 1.919248e+002
3.059812e+002, 1.903267e+002
3.064633e+002, 1.889033e+002
3.069454e+002, 1.876660e+002
3.074276e+002, 1.866067e+002
3.079097e+002, 1.856960e+002
3.083918e+002, 1.849614e+002
3.088739e+002, 1.844727e+002
3.093560e+002, 1.841934e+002
3.098381e+002, 1.840056e+002
3.103203e+002, 1.838100e+002
3.108024e+002, 1.836086e+002
3.112845e+002, 1.833953e+002
3.117666e+002, 1.827663e+002
3.122487e+002, 1.825317e+002
3.127308e+002, 1.833609e+002
3.132130e+002, 1.848111e+002
3.136951e+002, 1.858762e+002
3.141772e+002, 1.858599e+002
3.146593e+002, 1.849769e+002
3.151414e+002, 1.847243e+002
3.156235e+002, 1.856100e+002
3.161057e+002, 1.865419e+002
3.165878e+002, 1.873464e+002
3.170699e+002, 1.880949e+002
3.175520e+002, 1.889226e+002
3.180341e+002, 1.898897e+002
3.185162e+002, 1.909155e+002
3.189984e+002, 1.917752e+002
3.194805e+002, 1.920647e+002
3.199626e+002, 1.927339e+002
3.204447e+002, 1.940045e+002
3.209268e+002, 1.955365e+002
3.214089e+002, 1.970620e+002
3.218911e+002, 1.984987e+002
3.223732e+002, 1.998602e+002
3.228553e+002, 2.011571e+002
3.233374e+002, 2.022510e+002
3.238195e+002, 2.036333e+002
3.243016e+002, 2.055147e+002
3.247838e+002, 2.074689e+002
3.252659e+002, 2.091548e+002
3.257480e+002, 2.106040e+002
3.262301e+002, 2.121115e+002
3.267122e+002, 2.139931e+002
3.271943e+002, 2.162911e+002
3.276765e+002, 2.185474e+002
3.281586e+002, 2.207500e+002
3.286407e+002, 2.229162e+002
3.291228e+002, 2.250683e+002
3.296049e+002, 2.271927e+002
3.300870e+002, 2.292733e+002
3.305692e+002, 2.313015e+002
3.310513e+002, 2.332768e+002
3.315334e+002, 2.351587e+002
3.320155e+002, 2.369603e+002
3.324976e+002, 2.386661e+002
3.329797e+002, 2.404164e+002
3.334619e+002, 2.420257e+002
3.339440e+002, 2.432498e+002
3.344261e+002, 2.439811e+002
3.349082e+002, 2.443222e+002
3.353904e+002, 2.445376e+002
3.358725e+002, 2.448617e+002
3.363546e+002, 2.446375e+002
3.368367e+002, 2.437800e+002
3.373188e+002, 2.424681e+002
3.378009e+002, 2.408103e+002
3.382831e+002, 2.388527e+002
3.387652e+002, 2.366112e+002
3.392473e+002, 2.340830e+002
3.397294e+002, 2.311159e+002
3.402115e+002, 2.283018e+002
3.406936e+002, 2.257976e+002
3.411758e+002, 2.232815e+002
3.416579e+002, 2.205474e+002
3.421400e+002, 2.176336e+002
3.426221e+002, 2.147459e+002
3.431042e+002, 2.120451e+002
3.435863e+002, 2.095303e+002
3.440685e+002, 2.071425e+002
3.445506e+002, 2.049985e+002
3.450327e+002, 2.028844e+002
3.455148e+002, 2.007110e+002
3.459969e+002, 1.985491e+002
3.464790e+002, 1.965314e+002
3.469612e+002, 1.947214e+002
3.474433e+002, 1.930860e+002
3.479254e+002, 1.914857e+002
3.484075e+002, 1.900039e+002
3.488896e+002, 1.884345e+002
3.493717e+002, 1.865101e+002
3.498539e+002, 1.846389e+002
3.503360e+002, 1.832443e+002
3.508181e+002, 1.824409e+002
3.513002e+002, 1.818559e+002
3.517823e+002, 1.808775e+002
3.522644e+002, 1.792790e+002
3.527466e+002, 1.780388e+002
3.532287e+002, 1.776736e+002
3.537108e+002, 1.772877e+002
3.541929e+002, 1.762945e+002
3.546750e+002, 1.747766e+002
3.551571e+002, 1.732986e+002
3.556393e+002, 1.723856e+002
3.561214e+002, 1.720306e+002
3.566035e+002, 1.716416e+002
3.570856e+002, 1.711842e+002
3.575677e+002, 1.707364e+002
3.580498e+002, 1.702868e+002
3.585320e+002, 1.698710e+002
3.590141e+002, 1.695537e+002
3.594962e+002, 1.693865e+002
3.599783e+002, 1.693168e+002
3.604604e+002, 1.692384e+002
3.609425e+002, 1.692290e+002
3.614247e+002, 1.690171e+002
3.619068e+002, 1.683916e+002
3.623889e+002, 1.676141e+002
3.628710e+002, 1.668560e+002
3.633531e+002, 1.661562e+002
3.638352e+002, 1.656353e+002
3.643174e+002, 1.654776e+002
3.647995e+002, 1.657127e+002
3.652816e+002, 1.660187e+002
3.657637e+002, 1.665123e+002
3.662458e+002, 1.669014e+002
3.667279e+002, 1.669575e+002
3.672101e+002, 1.667107e+002
3.676922e+002, 1.664001e+002
3.681743e+002, 1.661113e+002
3.686564e+002, 1.658771e+002
3.691385e+002, 1.658830e+002
3.696206e+002, 1.662580e+002
3.701028e+002, 1.666401e+002
3.705849e+002, 1.667494e+002
3.710670e+002, 1.667232e+002
3.715491e+002, 1.668114e+002
3.720312e+002, 1.671589e+002
3.725133e+002, 1.676065e+002
3.729955e+002, 1.679048e+002
3.734776e+002, 1.680304e+002
3.739597e+002, 1.682310e+002
3.744418e+002, 1.686895e+002
3.749239e+002, 1.692353e+002
3.754060e+002, 1.696019e+002
3.758882e+002, 1.696971e+002
3.763703e+002, 1.699145e+002
3.768524e+002, 1.706192e+002
3.773345e+002, 1.716997e+002
3.778166e+002, 1.727247e+002
3.782987e+002, 1.736400e+002
3.787809e+002, 1.743904e+002
3.792630e+002, 1.748255e+002
3.797451e+002, 1.749913e+002
3.802272e+002, 1.752447e+002
3.807093e+002, 1.757337e+002
3.811914e+002, 1.763585e+002
3.816736e+002, 1.770626e+002
3.821557e+002, 1.778467e+002
3.826378e+002, 1.784713e+002
3.831199e+002, 1.787210e+002
3.836020e+002, 1.786454e+002
3.840841e+002, 1.785685e+002
3.845663e+002, 1.784534e+002
3.850484e+002, 1.783822e+002
3.855305e+002, 1.784562e+002
3.860126e+002, 1.786219e+002
3.864947e+002, 1.787213e+002
3.869768e+002, 1.786987e+002
3.874590e+002, 1.785556e+002
3.879411e+002, 1.782527e+002
3.884232e+002, 1.777194e+002
3.889053e+002, 1.772679e+002
3.893874e+002, 1.771485e+002
3.898695e+002, 1.770526e+002
3.903517e+002, 1.764983e+002
3.908338e+002, 1.754199e+002
3.913159e+002, 1.743972e+002
3.917980e+002, 1.740836e+002
3.922801e+002, 1.746106e+002
3.927622e+002, 1.746688e+002
3.932444e+002, 1.737210e+002
3.937265e+002, 1.728572e+002
3.942086e+002, 1.728370e+002
3.946907e+002, 1.733767e+002
3.951728e+002, 1.736238e+002
3.956549e+002, 1.730427e+002
3.961371e+002, 1.718993e+002
3.966192e+002, 1.712768e+002
3.971013e+002, 1.716581e+002
3.975834e+002, 1.719788e+002
3.980655e+002, 1.721131e+002
3.985476e+002, 1.721778e+002
3.990298e+002, 1.722715e+002
3.995119e+002, 1.724279e+002
3.999940e+002, 1.726611e+002
4.004761e+002, 1.730303e+002
4.009582e+002, 1.736800e+002
4.014403e+002, 1.739393e+002
4.019225e+002, 1.734436e+002
4.024046e+002, 1.729549e+002
4.028867e+002, 1.728253e+002
4.033688e+002, 1.729993e+002
4.038509e+002, 1.732877e+002
4.043330e+002, 1.736077e+002
4.048152e+002, 1.738904e+002
4.052973e+002, 1.737027e+002
4.057794e+002, 1.724499e+002
4.062615e+002, 1.716260e+002
4.067436e+002, 1.718021e+002
4.072257e+002, 1.723467e+002
4.077079e+002, 1.727015e+002
4.081900e+002, 1.726851e+002
4.086721e+002, 1.723224e+002
4.091542e+002, 1.715493e+002
4.096363e+002, 1.702544e+002
4.101184e+002, 1.691443e+002
4.106006e+002, 1.683749e+002
4.110827e+002, 1.677408e+002
4.115648e+002, 1.672196e+002
4.120469e+002, 1.667595e+002
