##NAMES=Svabite
##RRUFFID=R050180
##IDEAL CHEMISTRY=Ca_5_(As^5+^O_4_)_3_F
##LOCALITY=Ultevis, Sweden
##OWNER=RRUFF
##SOURCE=Marcus Origlieri
##DESCRIPTION=White prismatic hexagonal crystals associated with reddish brown andradite, R060326
##STATUS=The identification of this mineral is confirmed by single-crystal X-ray diffraction and chemical analysis.
##URL=rruff.info/R050180
##MEASURED CHEMISTRY=Ca_5.00_(As_2.63_P_0.37_O_12_)(F_0.67_Cl_0.33_)
146.9404, 5009.881
147.4225, 5037.755
147.9046, 5063.679
148.3867, 5084.114
148.8689, 5093.473
149.3510, 5084.061
149.8331, 5049.906
150.3152, 5017.285
150.7973, 5015.176
151.2794, 5047.367
151.7616, 5069.405
152.2437, 5046.121
152.7258, 5012.499
153.2079, 4997.223
153.6900, 5010.556
154.1721, 5040.882
154.6543, 5070.720
155.1364, 5105.664
155.6185, 5126.630
156.1006, 5113.866
156.5827, 5090.135
157.0648, 5083.342
157.5470, 5111.737
158.0291, 5166.812
158.5112, 5204.209
158.9933, 5203.234
159.4754, 5205.638
159.9575, 5224.907
160.4397, 5254.747
160.9218, 5281.730
161.4039, 5293.316
161.8860, 5286.979
162.3681, 5301.905
162.8502, 5361.379
163.3324, 5419.122
163.8145, 5456.920
164.2966, 5475.434
164.7787, 5486.152
165.2608, 5500.135
165.7429, 5517.204
166.2251, 5539.625
166.7072, 5575.753
167.1893, 5610.831
167.6714, 5633.828
168.1535, 5643.005
168.6356, 5644.927
169.1178, 5647.526
169.5999, 5648.459
170.0820, 5657.113
170.5641, 5692.070
171.0462, 5728.565
171.5283, 5732.552
172.0105, 5690.719
172.4926, 5628.174
172.9747, 5590.960
173.4568, 5579.690
173.9389, 5579.203
174.4210, 5594.044
174.9032, 5616.928
175.3853, 5630.246
175.8674, 5626.147
176.3495, 5610.236
176.8316, 5593.353
177.3137, 5574.082
177.7959, 5557.087
178.2780, 5544.375
178.7601, 5536.048
179.2422, 5533.739
179.7243, 5547.389
180.2064, 5561.878
180.6886, 5556.547
181.1707, 5524.223
181.6528, 5480.435
182.1349, 5431.745
182.6170, 5372.753
183.0991, 5341.722
183.5813, 5399.713
184.0634, 5480.664
184.5455, 5514.754
185.0276, 5463.037
185.5097, 5374.628
185.9918, 5343.174
186.4740, 5391.884
186.9561, 5448.729
187.4382, 5504.758
187.9203, 5547.589
188.4024, 5556.722
188.8845, 5511.358
189.3667, 5429.616
189.8488, 5384.928
190.3309, 5406.799
190.8130, 5428.587
191.2951, 5427.211
191.7772, 5412.143
192.2594, 5400.155
192.7415, 5403.228
193.2236, 5420.538
193.7057, 5434.887
194.1878, 5443.528
194.6699, 5451.558
195.1521, 5459.663
195.6342, 5468.130
196.1163, 5477.447
196.5984, 5488.599
197.0805, 5502.377
197.5626, 5510.679
198.0448, 5513.281
198.5269, 5511.153
199.0090, 5496.840
199.4911, 5475.404
199.9732, 5463.064
200.4553, 5478.969
200.9375, 5535.130
201.4196, 5569.290
201.9017, 5582.883
202.3838, 5578.867
202.8659, 5549.699
203.3480, 5499.192
203.8302, 5446.302
204.3123, 5413.414
204.7944, 5406.387
205.2765, 5407.672
205.7586, 5426.287
206.2407, 5447.101
206.7229, 5458.821
207.2050, 5459.039
207.6871, 5451.658
208.1692, 5441.644
208.6513, 5429.244
209.1334, 5412.641
209.6156, 5391.375
210.0977, 5366.032
210.5798, 5335.127
211.0619, 5297.848
211.5440, 5260.139
212.0261, 5232.168
212.5083, 5215.976
212.9904, 5201.039
213.4725, 5192.312
213.9546, 5182.180
214.4367, 5154.288
214.9188, 5099.674
215.4010, 5038.603
215.8831, 5010.062
216.3652, 5018.555
216.8473, 5025.345
217.3294, 5008.115
217.8115, 4979.813
218.2937, 4972.514
218.7758, 5002.581
219.2579, 5047.803
219.7400, 5071.938
220.2221, 5071.729
220.7042, 5070.033
221.1864, 5081.233
221.6685, 5101.174
222.1506, 5113.360
222.6327, 5111.832
223.1148, 5100.348
223.5969, 5083.564
224.0791, 5058.752
224.5612, 5039.352
225.0433, 5035.322
225.5254, 5045.499
226.0075, 5058.625
226.4896, 5065.175
226.9718, 5079.500
227.4539, 5116.557
227.9360, 5179.421
228.4181, 5255.056
228.9002, 5341.940
229.3823, 5439.657
229.8645, 5520.191
230.3466, 5565.692
230.8287, 5594.132
231.3108, 5617.135
231.7929, 5633.238
232.2750, 5658.432
232.7572, 5717.524
233.2393, 5815.495
233.7214, 5898.490
234.2035, 5939.899
234.6856, 5964.224
235.1677, 5987.827
235.6499, 6013.534
236.1320, 6040.136
236.6141, 6069.887
237.0962, 6106.108
237.5783, 6127.840
238.0604, 6099.436
238.5426, 6070.348
239.0247, 6084.730
239.5068, 6157.194
239.9889, 6244.441
240.4710, 6281.072
240.9531, 6249.834
241.4353, 6229.453
241.9174, 6249.904
242.3995, 6282.114
242.8816, 6307.509
243.3637, 6321.166
243.8458, 6323.396
244.3280, 6311.183
244.8101, 6276.036
245.2922, 6250.428
245.7743, 6247.765
246.2564, 6252.331
246.7385, 6252.860
247.2207, 6245.708
247.7028, 6234.114
248.1849, 6225.729
248.6670, 6228.456
249.1491, 6214.064
249.6312, 6150.667
250.1134, 6085.323
250.5955, 6063.117
251.0776, 6098.500
251.5597, 6156.767
252.0418, 6173.113
252.5239, 6118.951
253.0061, 6083.732
253.4882, 6092.029
253.9703, 6113.552
254.4524, 6125.919
254.9345, 6121.582
255.4166, 6105.735
255.8988, 6086.333
256.3809, 6058.013
256.8630, 6037.718
257.3451, 6018.325
257.8272, 6010.659
258.3094, 6032.891
258.7915, 6089.001
259.2736, 6152.121
259.7557, 6167.828
260.2378, 6093.773
260.7199, 6055.249
261.2021, 6082.150
261.6842, 6129.828
262.1663, 6162.577
262.6484, 6169.907
263.1305, 6167.565
263.6126, 6185.332
264.0948, 6241.554
264.5769, 6282.087
265.0590, 6300.372
265.5411, 6307.085
266.0232, 6307.827
266.5053, 6304.977
266.9875, 6301.445
267.4696, 6300.767
267.9517, 6297.004
268.4338, 6309.428
268.9159, 6352.499
269.3980, 6400.125
269.8802, 6434.912
270.3623, 6452.052
270.8444, 6456.152
271.3265, 6454.148
271.8086, 6447.630
272.2907, 6430.461
272.7729, 6387.187
273.2550, 6345.694
273.7371, 6321.994
274.2192, 6320.598
274.7013, 6339.688
275.1834, 6383.293
275.6656, 6481.961
276.1477, 6532.201
276.6298, 6509.489
277.1119, 6466.429
277.5940, 6423.750
278.0761, 6390.937
278.5583, 6380.021
279.0404, 6412.812
279.5225, 6517.789
280.0046, 6585.938
280.4867, 6608.182
280.9688, 6608.627
281.4510, 6589.758
281.9331, 6558.016
282.4152, 6530.098
282.8973, 6526.236
283.3794, 6553.292
283.8615, 6579.173
284.3437, 6602.695
284.8258, 6626.439
285.3079, 6657.682
285.7900, 6692.612
286.2721, 6716.650
286.7542, 6710.339
287.2364, 6662.514
287.7185, 6648.102
288.2006, 6704.442
288.6827, 6757.007
289.1648, 6765.176
289.6469, 6738.786
290.1291, 6717.509
290.6112, 6739.502
291.0933, 6809.636
291.5754, 6860.313
292.0575, 6882.679
292.5396, 6894.672
293.0218, 6896.659
293.5039, 6892.255
293.9860, 6887.537
294.4681, 6887.333
294.9502, 6891.545
295.4323, 6893.848
295.9145, 6903.797
296.3966, 6901.681
296.8787, 6896.179
297.3608, 6848.716
297.8429, 6847.902
298.3250, 6830.951
298.8072, 6742.935
299.2893, 6751.737
299.7714, 6724.829
300.2535, 6698.570
300.7356, 6727.303
301.2177, 6660.970
301.6999, 6693.274
302.1820, 6689.290
302.6641, 6705.128
303.1462, 6685.021
303.6283, 6678.903
304.1104, 6713.151
304.5926, 6728.474
305.0747, 6712.796
305.5568, 6742.982
306.0389, 6697.366
306.5210, 6722.407
307.0031, 6779.188
307.4853, 6776.455
307.9674, 6818.364
308.4495, 6846.313
308.9316, 6803.011
309.4137, 6889.661
309.8958, 6923.271
310.3780, 6902.362
310.8601, 6991.252
311.3422, 7002.469
311.8243, 7041.351
312.3064, 7050.502
312.7885, 7061.070
313.2707, 7098.337
313.7528, 7167.070
314.2349, 7248.607
314.7170, 7320.655
315.1991, 7382.737
315.6812, 7435.882
316.1634, 7466.213
316.6455, 7498.438
317.1276, 7548.811
317.6097, 7617.249
318.0918, 7688.560
318.5739, 7746.822
319.0561, 7790.109
319.5382, 7833.516
320.0203, 7857.276
320.5024, 7900.268
320.9845, 7990.079
321.4666, 8117.935
321.9488, 8249.936
322.4309, 8359.893
322.9130, 8448.875
323.3951, 8534.589
323.8772, 8609.920
324.3593, 8691.447
324.8415, 8789.563
325.3236, 8899.266
325.8057, 9009.358
326.2878, 9110.828
326.7699, 9208.238
327.2520, 9321.689
327.7342, 9464.845
328.2163, 9600.884
328.6984, 9710.621
329.1805, 9805.010
329.6626, 9898.021
330.1447, 9991.437
330.6269, 10091.84
331.1090, 10211.38
331.5911, 10350.48
332.0732, 10507.47
332.5553, 10687.18
333.0374, 10882.64
333.5196, 11088.33
334.0017, 11302.43
334.4838, 11528.09
334.9659, 11773.24
335.4480, 12038.91
335.9301, 12308.27
336.4123, 12570.10
336.8944, 12838.05
337.3765, 13126.76
337.8586, 13440.22
338.3407, 13764.51
338.8228, 14081.52
339.3050, 14396.38
339.7871, 14735.54
340.2692, 15106.72
340.7513, 15504.65
341.2334, 15932.24
341.7155, 16389.68
342.1977, 16835.25
342.6798, 17231.96
343.1619, 17603.09
343.6440, 18003.53
344.1261, 18447.91
344.6082, 18913.03
345.0904, 19379.49
345.5725, 19845.81
346.0546, 20320.42
346.5367, 20826.26
347.0188, 21333.27
347.5009, 21807.90
347.9831, 22244.43
348.4652, 22665.08
348.9473, 23088.72
349.4294, 23512.58
349.9115, 23896.51
350.3936, 24245.53
350.8758, 24548.41
351.3579, 24788.19
351.8400, 24968.86
352.3221, 25121.15
352.8042, 25275.49
353.2863, 25408.92
353.7685, 25425.58
354.2506, 25263.69
354.7327, 25070.03
355.2148, 24919.68
355.6969, 24776.24
356.1790, 24557.94
356.6612, 24225.55
357.1433, 23812.79
357.6254, 23394.16
358.1075, 22956.63
358.5896, 22539.12
359.0717, 22153.92
359.5539, 21788.25
360.0360, 21422.49
360.5181, 21052.01
361.0002, 20690.83
361.4823, 20363.20
361.9644, 20090.94
362.4466, 19801.42
362.9287, 19473.80
363.4108, 19145.76
363.8929, 18839.85
364.3750, 18557.74
364.8571, 18294.87
365.3393, 18047.15
365.8214, 17817.83
366.3035, 17579.25
366.7856, 17299.31
367.2677, 17042.87
367.7498, 16844.76
368.2320, 16687.78
368.7141, 16532.95
369.1962, 16356.67
369.6783, 16159.47
370.1604, 15946.43
370.6425, 15690.33
371.1247, 15451.64
371.6068, 15240.31
372.0889, 15051.87
372.5710, 14887.87
373.0531, 14749.19
373.5352, 14620.11
374.0174, 14470.10
374.4995, 14290.21
374.9816, 14111.12
375.4637, 13933.73
375.9458, 13761.10
376.4279, 13600.20
376.9101, 13451.24
377.3922, 13300.77
377.8743, 13129.88
378.3564, 12937.82
378.8385, 12763.00
379.3206, 12609.68
379.8028, 12478.21
380.2849, 12379.80
380.7670, 12305.74
381.2491, 12221.59
381.7312, 12107.03
382.2133, 11967.50
382.6955, 11809.72
383.1776, 11618.55
383.6597, 11451.65
384.1418, 11373.71
384.6239, 11342.63
385.1060, 11285.27
385.5882, 11158.83
386.0703, 11019.49
386.5524, 10934.65
387.0345, 10902.34
387.5166, 10866.05
387.9987, 10797.54
388.4809, 10709.89
388.9630, 10630.42
389.4451, 10553.61
389.9272, 10495.22
390.4093, 10463.58
390.8914, 10455.91
391.3736, 10473.70
391.8557, 10523.77
392.3378, 10576.15
392.8199, 10577.47
393.3020, 10509.32
393.7841, 10475.18
394.2663, 10501.91
394.7484, 10560.41
395.2305, 10630.61
395.7126, 10707.76
396.1947, 10781.17
396.6768, 10836.92
397.1590, 10871.03
397.6411, 10947.88
398.1232, 11105.75
398.6053, 11260.20
399.0874, 11365.20
399.5695, 11439.60
400.0517, 11530.34
400.5338, 11666.42
401.0159, 11835.40
401.4980, 11986.86
401.9801, 12092.41
402.4622, 12216.23
402.9444, 12377.16
403.4265, 12551.75
403.9086, 12715.98
404.3907, 12862.30
404.8728, 13003.90
405.3549, 13164.48
405.8371, 13360.43
406.3192, 13526.28
406.8013, 13654.49
407.2834, 13757.25
407.7655, 13850.91
408.2477, 13927.68
408.7298, 13957.38
409.2119, 13900.50
409.6940, 13769.41
410.1761, 13661.74
410.6582, 13612.50
411.1404, 13527.15
411.6225, 13353.82
412.1046, 13123.52
412.5867, 12883.03
413.0688, 12645.80
413.5509, 12409.59
414.0331, 12164.08
414.5152, 11906.76
414.9973, 11672.35
415.4794, 11481.53
415.9615, 11315.03
416.4436, 11143.95
416.9258, 10962.65
417.4079, 10796.29
417.8900, 10655.89
418.3721, 10540.16
418.8542, 10449.61
419.3363, 10387.39
419.8185, 10337.92
420.3006, 10278.99
420.7827, 10209.43
421.2648, 10169.51
421.7469, 10188.68
422.2290, 10221.13
422.7112, 10222.76
423.1933, 10198.01
423.6754, 10186.04
424.1575, 10214.29
424.6396, 10278.56
425.1217, 10344.98
425.6039, 10413.12
426.0860, 10483.51
426.5681, 10564.29
427.0502, 10645.04
427.5323, 10707.28
428.0144, 10744.58
428.4966, 10775.92
428.9787, 10835.77
429.4608, 10937.19
429.9429, 11043.81
430.4250, 11145.16
430.9071, 11258.59
431.3893, 11399.63
431.8714, 11565.29
432.3535, 11735.24
432.8356, 11896.38
433.3177, 12047.94
433.7998, 12180.46
434.2820, 12275.55
434.7641, 12377.19
435.2462, 12506.67
435.7283, 12649.23
436.2104, 12782.82
436.6925, 12897.01
437.1747, 13002.73
437.6568, 13121.82
438.1389, 13257.20
438.6210, 13372.94
439.1031, 13454.45
439.5852, 13513.13
440.0674, 13565.15
440.5495, 13611.98
441.0316, 13639.31
441.5137, 13643.31
441.9958, 13621.72
442.4779, 13567.60
442.9601, 13477.91
443.4422, 13364.69
443.9243, 13229.97
444.4064, 13075.92
444.8885, 12931.36
445.3706, 12805.36
445.8528, 12682.33
446.3349, 12555.09
446.8170, 12422.65
447.2991, 12282.41
447.7812, 12131.23
448.2633, 11976.17
448.7455, 11840.07
449.2276, 11755.70
449.7097, 11646.64
450.1918, 11479.29
450.6739, 11304.00
451.1560, 11174.12
451.6382, 11094.68
452.1203, 11022.46
452.6024, 10905.79
453.0845, 10735.40
453.5666, 10590.69
454.0487, 10490.20
454.5309, 10399.74
455.0130, 10314.08
455.4951, 10231.08
455.9772, 10146.99
456.4594, 10057.77
456.9415, 9971.936
457.4236, 9914.208
457.9057, 9894.600
458.3878, 9866.619
458.8699, 9814.504
459.3521, 9749.036
459.8342, 9673.926
460.3163, 9589.477
460.7984, 9508.887
461.2805, 9447.612
461.7626, 9397.929
462.2448, 9338.703
462.7269, 9268.622
463.2090, 9183.240
463.6911, 9062.618
464.1732, 8917.678
464.6553, 8805.987
465.1375, 8766.552
465.6196, 8734.352
466.1017, 8667.765
466.5838, 8571.103
467.0659, 8454.691
467.5480, 8318.535
468.0302, 8179.948
468.5123, 8084.625
468.9944, 8064.017
469.4765, 8037.727
469.9586, 8013.007
470.4407, 7974.311
470.9229, 7894.250
471.4050, 7778.644
471.8871, 7671.739
472.3692, 7622.827
472.8513, 7634.875
473.3334, 7611.759
473.8156, 7513.656
474.2977, 7423.721
474.7798, 7365.525
475.2619, 7327.419
475.7440, 7292.690
476.2261, 7254.942
476.7083, 7216.022
477.1904, 7181.091
477.6725, 7152.171
478.1546, 7111.514
478.6367, 7044.063
479.1188, 6974.631
479.6010, 6918.459
480.0831, 6876.588
480.5652, 6851.851
481.0473, 6855.665
481.5294, 6873.682
482.0115, 6887.209
482.4937, 6895.636
482.9758, 6885.867
483.4579, 6842.274
483.9400, 6774.127
484.4221, 6723.818
484.9042, 6706.853
485.3864, 6687.264
485.8685, 6642.844
486.3506, 6590.815
486.8327, 6563.819
487.3148, 6570.641
487.7969, 6580.061
488.2791, 6545.535
488.7612, 6444.471
489.2433, 6379.796
489.7254, 6387.726
490.2075, 6390.052
490.6896, 6352.933
491.1718, 6281.886
491.6539, 6190.781
492.1360, 6081.911
492.6181, 5972.166
493.1002, 5914.725
493.5823, 5935.461
494.0645, 5941.112
494.5466, 5893.522
495.0287, 5833.626
495.5108, 5793.694
495.9929, 5776.821
496.4750, 5754.084
496.9572, 5692.997
497.4393, 5610.163
497.9214, 5557.881
498.4035, 5546.102
498.8856, 5539.118
499.3677, 5508.378
499.8499, 5462.002
500.3320, 5430.282
500.8141, 5438.681
501.2962, 5436.674
501.7783, 5386.304
502.2604, 5308.087
502.7426, 5244.480
503.2247, 5209.879
503.7068, 5189.454
504.1889, 5160.343
504.6710, 5115.297
505.1531, 5083.810
505.6353, 5070.098
506.1174, 5064.214
506.5995, 5070.506
507.0816, 5080.400
507.5637, 5072.996
508.0458, 5031.692
508.5280, 4972.792
509.0101, 4951.624
509.4922, 4994.589
509.9743, 5012.247
510.4564, 4948.820
510.9385, 4877.997
511.4207, 4864.643
511.9028, 4913.033
512.3849, 4954.175
512.8670, 4926.954
513.3491, 4855.411
513.8312, 4808.254
514.3134, 4794.444
514.7955, 4783.016
515.2776, 4750.367
515.7597, 4704.395
516.2418, 4673.428
516.7239, 4675.547
517.2061, 4670.849
517.6882, 4624.009
518.1703, 4562.498
518.6524, 4540.466
519.1345, 4573.085
519.6166, 4619.740
520.0988, 4626.458
520.5809, 4580.854
521.0630, 4549.785
521.5451, 4544.102
522.0272, 4539.246
522.5093, 4520.923
522.9915, 4496.789
523.4736, 4484.639
523.9557, 4494.799
524.4378, 4512.369
524.9199, 4505.960
525.4020, 4470.684
525.8842, 4432.528
526.3663, 4386.474
526.8484, 4347.892
527.3305, 4329.501
527.8126, 4329.748
528.2947, 4335.295
528.7769, 4346.186
529.2590, 4355.334
529.7411, 4346.528
530.2232, 4319.932
530.7053, 4303.655
531.1874, 4319.185
531.6696, 4349.959
532.1517, 4345.657
532.6338, 4278.150
533.1159, 4236.165
533.5980, 4266.665
534.0801, 4313.376
534.5623, 4312.327
535.0444, 4261.272
535.5265, 4211.584
536.0086, 4211.695
536.4907, 4258.506
536.9728, 4286.147
537.4550, 4289.737
537.9371, 4278.847
538.4192, 4244.603
538.9013, 4203.168
539.3834, 4170.220
539.8655, 4149.890
540.3477, 4138.990
540.8298, 4134.911
541.3119, 4137.597
541.7940, 4150.225
542.2761, 4181.161
542.7582, 4203.249
543.2404, 4182.618
543.7225, 4136.881
544.2046, 4113.685
544.6867, 4147.191
545.1688, 4175.270
545.6509, 4147.701
546.1331, 4088.679
546.6152, 4049.900
547.0973, 4047.932
547.5794, 4067.378
548.0615, 4090.512
548.5436, 4123.431
549.0258, 4134.792
549.5079, 4096.836
549.9900, 4069.456
550.4721, 4090.280
550.9542, 4137.109
551.4363, 4168.137
551.9185, 4163.157
552.4006, 4135.017
552.8827, 4101.791
553.3648, 4060.463
553.8469, 4032.209
554.3290, 4017.231
554.8112, 4021.024
555.2933, 4062.001
555.7754, 4128.936
556.2575, 4168.053
556.7396, 4122.042
557.2217, 4063.949
557.7039, 4084.536
558.1860, 4169.772
558.6681, 4237.366
559.1502, 4249.919
559.6323, 4231.203
560.1144, 4225.183
560.5966, 4237.966
561.0787, 4251.227
561.5608, 4266.951
562.0429, 4281.335
562.5250, 4284.428
563.0071, 4283.448
563.4893, 4300.915
563.9714, 4354.526
564.4535, 4426.506
564.9356, 4460.664
565.4177, 4439.750
565.8998, 4430.933
566.3820, 4457.899
566.8641, 4494.626
567.3462, 4527.382
567.8283, 4554.721
568.3104, 4575.778
568.7925, 4597.042
569.2747, 4608.418
569.7568, 4585.483
570.2389, 4530.362
570.7210, 4486.701
571.2031, 4481.605
571.6852, 4494.707
572.1674, 4473.101
572.6495, 4387.424
573.1316, 4331.252
573.6137, 4342.561
574.0958, 4363.738
574.5779, 4343.826
575.0601, 4288.362
575.5422, 4237.838
576.0243, 4221.960
576.5064, 4230.604
576.9885, 4222.988
577.4706, 4186.932
577.9528, 4164.015
578.4349, 4196.360
578.9170, 4221.661
579.3991, 4179.078
579.8812, 4071.408
580.3633, 3980.920
580.8455, 3967.820
581.3276, 3993.704
581.8097, 4000.765
582.2918, 3987.449
582.7739, 3964.823
583.2560, 3936.269
583.7382, 3904.637
584.2203, 3876.270
584.7024, 3847.658
585.1845, 3828.953
585.6666, 3828.661
586.1487, 3832.714
586.6309, 3831.224
587.1130, 3823.892
587.5951, 3815.842
588.0772, 3811.753
588.5593, 3807.237
589.0414, 3785.999
589.5236, 3741.589
590.0057, 3697.979
590.4878, 3649.743
590.9699, 3612.697
591.4520, 3605.542
591.9341, 3625.708
592.4163, 3640.490
592.8984, 3627.057
593.3805, 3603.459
593.8626, 3593.713
594.3447, 3596.811
594.8268, 3599.091
595.3090, 3592.803
595.7911, 3585.047
596.2732, 3591.573
596.7553, 3627.867
597.2374, 3647.262
597.7195, 3642.591
598.2017, 3627.141
598.6838, 3604.223
599.1659, 3577.693
599.6480, 3552.223
600.1301, 3529.644
600.6122, 3513.213
601.0944, 3510.539
601.5765, 3522.588
602.0586, 3544.196
602.5407, 3591.435
603.0228, 3629.069
603.5049, 3619.743
603.9871, 3572.310
604.4692, 3538.235
604.9513, 3540.683
605.4334, 3556.793
605.9155, 3576.829
606.3976, 3595.334
606.8798, 3592.166
607.3619, 3558.030
607.8440, 3518.646
608.3261, 3515.265
608.8082, 3562.121
609.2903, 3593.938
609.7725, 3610.708
610.2546, 3614.134
610.7367, 3598.193
611.2188, 3571.161
611.7009, 3542.945
612.1830, 3516.113
612.6652, 3498.636
613.1473, 3507.580
613.6294, 3539.288
614.1115, 3557.390
614.5936, 3557.109
615.0757, 3542.094
615.5579, 3507.025
616.0400, 3457.715
616.5221, 3422.469
617.0042, 3403.498
617.4863, 3397.979
617.9684, 3420.750
618.4506, 3449.738
618.9327, 3451.031
619.4148, 3419.573
619.8969, 3380.297
620.3790, 3357.803
620.8611, 3351.622
621.3433, 3345.402
621.8254, 3332.837
622.3075, 3331.080
622.7896, 3356.500
623.2717, 3387.231
623.7538, 3401.664
624.2360, 3396.157
624.7181, 3383.267
625.2002, 3369.888
625.6823, 3354.574
626.1644, 3331.768
626.6465, 3301.944
627.1287, 3277.526
627.6108, 3266.431
628.0929, 3264.330
628.5750, 3259.606
629.0571, 3253.077
629.5392, 3242.174
630.0214, 3215.185
630.5035, 3193.800
630.9856, 3204.959
631.4677, 3234.858
631.9498, 3239.590
632.4319, 3186.142
632.9141, 3113.699
633.3962, 3104.921
633.8783, 3164.686
634.3604, 3215.152
634.8425, 3241.708
635.3246, 3251.630
635.8068, 3243.123
636.2889, 3220.392
636.7710, 3209.180
637.2531, 3222.604
637.7352, 3239.280
638.2173, 3247.276
638.6995, 3250.284
639.1816, 3258.498
639.6637, 3273.939
640.1458, 3283.013
640.6279, 3266.916
641.1100, 3223.775
641.5922, 3188.168
642.0743, 3155.199
642.5564, 3137.897
643.0385, 3151.208
643.5206, 3175.080
644.0027, 3187.281
644.4849, 3183.339
644.9670, 3172.436
645.4491, 3154.672
645.9312, 3136.117
646.4133, 3129.206
646.8954, 3134.002
647.3776, 3138.730
647.8597, 3136.598
648.3418, 3129.575
648.8239, 3122.701
649.3060, 3105.836
649.7881, 3106.458
650.2703, 3148.579
650.7524, 3185.752
651.2345, 3185.811
651.7166, 3157.100
652.1987, 3126.126
652.6808, 3105.822
653.1630, 3092.186
653.6451, 3075.927
654.1272, 3058.262
654.6093, 3059.546
655.0914, 3090.612
655.5735, 3123.852
656.0557, 3133.266
656.5378, 3119.050
657.0199, 3106.548
657.5020, 3104.566
657.9841, 3093.890
658.4662, 3059.717
658.9484, 3017.248
659.4305, 2981.038
659.9126, 2955.938
660.3947, 2946.373
660.8768, 2960.110
661.3589, 2992.867
661.8411, 3018.956
662.3232, 3039.705
662.8053, 3049.139
663.2874, 3037.868
663.7695, 3019.442
664.2516, 3010.945
664.7338, 3013.413
665.2159, 3012.089
665.6980, 2993.838
666.1801, 2977.188
666.6622, 2980.325
667.1443, 2998.206
667.6265, 3018.749
668.1086, 3037.000
668.5907, 3046.148
669.0728, 3030.491
669.5549, 2980.590
670.0370, 2953.833
670.5192, 2966.422
671.0013, 2981.517
671.4834, 2983.728
671.9655, 2979.345
672.4476, 2979.504
672.9297, 2989.160
673.4119, 2991.632
673.8940, 2969.794
674.3761, 2936.724
674.8582, 2909.071
675.3403, 2889.873
675.8224, 2886.466
676.3046, 2905.893
676.7867, 2939.479
677.2688, 2959.429
677.7509, 2961.208
678.2330, 2957.330
678.7151, 2943.628
679.1973, 2929.123
679.6794, 2912.688
680.1615, 2899.715
680.6436, 2905.963
681.1257, 2950.373
681.6078, 2989.395
682.0900, 2958.213
682.5721, 2880.717
683.0542, 2841.244
683.5363, 2857.448
684.0184, 2893.945
684.5005, 2924.896
684.9827, 2949.424
685.4648, 2958.894
685.9469, 2947.039
686.4290, 2927.958
686.9111, 2886.691
687.3932, 2850.556
687.8754, 2848.557
688.3575, 2875.926
688.8396, 2901.000
689.3217, 2905.198
689.8038, 2894.219
690.2859, 2871.112
690.7681, 2838.024
691.2502, 2819.599
691.7323, 2824.992
692.2144, 2839.968
692.6965, 2852.173
693.1786, 2862.211
693.6608, 2854.840
694.1429, 2800.401
694.6250, 2766.081
695.1071, 2786.015
695.5892, 2827.028
696.0714, 2854.842
696.5535, 2862.650
697.0356, 2861.696
697.5177, 2859.949
697.9998, 2856.846
698.4819, 2848.440
698.9641, 2834.241
699.4462, 2828.458
699.9283, 2840.093
700.4104, 2855.826
700.8925, 2856.109
701.3746, 2837.100
701.8568, 2824.747
702.3389, 2823.474
702.8210, 2824.552
703.3031, 2825.529
703.7852, 2826.054
704.2673, 2822.821
704.7495, 2816.181
705.2316, 2817.094
705.7137, 2845.686
706.1958, 2892.375
706.6779, 2913.216
707.1600, 2905.898
707.6422, 2889.766
708.1243, 2869.726
708.6064, 2848.613
709.0885, 2831.891
709.5706, 2821.046
710.0527, 2806.748
710.5349, 2771.804
711.0170, 2750.229
711.4991, 2776.182
711.9812, 2821.930
712.4633, 2839.680
712.9454, 2814.464
713.4276, 2776.497
713.9097, 2753.576
714.3918, 2746.048
714.8739, 2763.329
715.3560, 2812.057
715.8381, 2846.311
716.3203, 2837.701
716.8024, 2808.867
717.2845, 2804.553
717.7666, 2833.746
718.2487, 2851.673
718.7308, 2843.878
719.2130, 2834.590
719.6951, 2842.341
720.1772, 2856.598
720.6593, 2853.656
721.1414, 2825.698
721.6235, 2798.388
722.1057, 2808.587
722.5878, 2847.064
723.0699, 2863.305
723.5520, 2852.742
724.0341, 2836.097
724.5162, 2817.692
724.9984, 2804.610
725.4805, 2814.454
725.9626, 2858.904
726.4447, 2890.274
726.9268, 2905.495
727.4089, 2907.703
727.8911, 2885.321
728.3732, 2854.930
728.8553, 2847.681
729.3374, 2873.943
729.8195, 2902.031
730.3016, 2886.746
730.7838, 2843.655
731.2659, 2838.415
731.7480, 2877.103
732.2301, 2915.148
732.7122, 2930.488
733.1943, 2933.002
733.6765, 2942.886
734.1586, 2967.623
734.6407, 2979.337
735.1228, 2967.846
735.6049, 2954.212
736.0870, 2945.090
736.5692, 2941.241
737.0513, 2946.072
737.5334, 2960.471
738.0155, 2969.694
738.4976, 2949.769
738.9797, 2916.391
739.4619, 2913.488
739.9440, 2942.103
740.4261, 2971.522
740.9082, 2988.687
741.3903, 2995.919
741.8724, 2996.379
742.3546, 2987.074
742.8367, 2981.340
743.3188, 2981.964
743.8009, 2982.777
744.2830, 2978.468
744.7651, 2974.651
745.2473, 2981.810
745.7294, 3002.030
746.2115, 3017.434
746.6936, 3009.287
747.1757, 2991.181
747.6578, 2982.692
748.1400, 2984.421
748.6221, 2996.557
749.1042, 3020.113
749.5863, 3046.794
750.0684, 3064.642
750.5505, 3073.050
751.0327, 3075.759
751.5148, 3061.174
751.9969, 3056.878
752.4790, 3082.966
752.9611, 3114.904
753.4432, 3124.280
753.9254, 3108.144
754.4075, 3091.329
754.8896, 3088.729
755.3717, 3088.244
755.8538, 3069.396
756.3359, 3043.338
756.8181, 3043.897
757.3002, 3080.739
757.7823, 3126.129
758.2644, 3148.843
758.7465, 3149.422
759.2286, 3138.073
759.7108, 3105.073
760.1929, 3084.049
760.6750, 3092.903
761.1571, 3111.664
761.6392, 3122.789
762.1213, 3126.132
762.6035, 3122.956
763.0856, 3104.291
763.5677, 3089.191
764.0498, 3089.097
764.5319, 3098.665
765.0140, 3111.763
765.4962, 3126.252
765.9783, 3140.277
766.4604, 3151.682
766.9425, 3161.925
767.4246, 3179.608
767.9067, 3206.767
768.3889, 3212.649
768.8710, 3180.329
769.3531, 3144.864
769.8352, 3138.596
770.3173, 3160.421
770.7994, 3185.031
771.2816, 3224.794
771.7637, 3250.809
772.2458, 3253.468
772.7279, 3242.854
773.2100, 3217.198
773.6921, 3185.387
774.1743, 3172.712
774.6564, 3198.752
775.1385, 3235.150
775.6206, 3242.008
776.1027, 3226.853
776.5848, 3220.895
777.0670, 3229.393
777.5491, 3230.922
778.0312, 3206.585
778.5133, 3168.205
778.9954, 3157.428
779.4775, 3188.569
779.9597, 3219.928
780.4418, 3256.497
780.9239, 3287.149
781.4060, 3303.456
781.8881, 3310.833
782.3702, 3318.857
782.8524, 3329.656
783.3345, 3342.576
783.8166, 3354.973
784.2987, 3370.640
784.7808, 3396.508
785.2629, 3430.532
785.7451, 3467.481
786.2272, 3505.013
786.7093, 3533.752
787.1914, 3532.608
787.6735, 3498.505
788.1556, 3485.716
788.6378, 3500.327
789.1199, 3521.513
789.6020, 3541.858
790.0841, 3563.257
790.5662, 3588.370
791.0483, 3617.106
791.5305, 3648.960
792.0126, 3694.582
792.4947, 3731.491
792.9768, 3738.659
793.4589, 3734.477
793.9410, 3744.233
794.4232, 3773.129
794.9053, 3810.030
795.3874, 3844.684
795.8695, 3881.512
796.3516, 3929.869
796.8337, 3989.392
797.3159, 4058.625
797.7980, 4138.948
798.2801, 4220.627
798.7622, 4294.600
799.2443, 4360.975
799.7264, 4418.297
800.2086, 4448.637
800.6907, 4498.610
801.1728, 4567.300
801.6549, 4660.851
802.1370, 4792.170
802.6191, 4952.463
803.1013, 5110.660
803.5834, 5246.885
804.0655, 5398.039
804.5476, 5580.880
805.0297, 5796.364
805.5118, 6050.840
805.9940, 6339.778
806.4761, 6642.647
806.9582, 6946.904
807.4403, 7264.734
807.9224, 7613.103
808.4045, 7990.317
808.8867, 8437.459
809.3688, 8963.688
809.8509, 9530.096
810.3330, 10112.23
810.8151, 10726.97
811.2972, 11417.75
811.7794, 12191.20
812.2615, 13015.71
812.7436, 13899.03
813.2257, 14827.06
813.7078, 15782.04
814.1899, 16781.23
814.6721, 17843.64
815.1542, 18975.90
815.6363, 20151.02
816.1184, 21358.92
816.6005, 22594.04
817.0826, 23876.03
817.5648, 25178.76
818.0469, 26422.09
818.5290, 27580.51
819.0111, 28686.99
819.4932, 29780.82
819.9753, 30848.24
820.4575, 31800.67
820.9396, 32647.57
821.4217, 33351.74
821.9038, 33886.45
822.3859, 34293.89
822.8680, 34616.38
823.3502, 34841.48
823.8323, 34915.35
824.3144, 34808.11
824.7965, 34592.59
825.2786, 34284.22
825.7607, 33879.79
826.2429, 33348.38
826.7250, 32720.81
827.2072, 32070.22
827.6893, 31424.48
828.1714, 30765.13
828.6535, 30023.50
829.1356, 29256.71
829.6177, 28647.88
830.0999, 28198.22
830.5820, 27778.41
831.0641, 27329.44
831.5462, 26901.58
832.0283, 26564.43
832.5104, 26320.05
832.9926, 26149.34
833.4747, 26095.46
833.9568, 26043.75
834.4389, 25929.44
834.9210, 25828.41
835.4031, 25814.15
835.8853, 25881.68
836.3674, 25955.90
836.8495, 26004.67
837.3316, 26073.35
837.8137, 26182.18
838.2958, 26322.79
838.7780, 26481.58
839.2601, 26660.94
839.7422, 26876.90
840.2243, 27137.60
840.7064, 27441.42
841.1885, 27783.78
841.6707, 28165.63
842.1528, 28592.79
842.6349, 29065.85
843.1170, 29570.96
843.5991, 30104.45
844.0812, 30655.16
844.5634, 31198.89
845.0455, 31715.34
845.5276, 32308.19
846.0097, 33019.11
846.4918, 33751.80
846.9739, 34504.74
847.4561, 35244.17
847.9382, 35918.21
848.4203, 36526.04
848.9024, 37139.47
849.3845, 37801.54
849.8666, 38449.78
850.3488, 39052.06
850.8309, 39613.71
851.3130, 40152.43
851.7951, 40660.92
852.2772, 41097.97
852.7593, 41413.63
853.2415, 41678.88
853.7236, 42033.35
854.2057, 42435.16
854.6878, 42708.92
855.1699, 42829.19
855.6520, 42872.48
856.1342, 42895.24
856.6163, 42854.17
857.0984, 42637.48
857.5805, 42205.84
858.0626, 41737.50
858.5447, 41309.08
859.0269, 40722.25
859.5090, 39841.13
859.9911, 38777.64
860.4732, 37671.11
860.9553, 36525.36
861.4374, 35335.45
861.9196, 34111.39
862.4017, 32838.12
862.8838, 31469.81
863.3659, 30075.62
863.8480, 28740.77
864.3301, 27471.79
864.8123, 26230.69
865.2944, 24982.10
865.7765, 23769.80
866.2586, 22646.04
866.7407, 21593.41
867.2228, 20562.36
867.7050, 19540.83
868.1871, 18564.58
868.6692, 17653.20
869.1513, 16801.05
869.6334, 15999.33
870.1155, 15245.97
870.5977, 14533.91
871.0798, 13859.43
871.5619, 13236.89
872.0440, 12680.12
872.5261, 12170.79
873.0082, 11688.34
873.4904, 11230.69
873.9725, 10809.20
874.4546, 10446.78
874.9367, 10094.37
875.4188, 9744.330
875.9009, 9395.370
876.3831, 9033.834
876.8652, 8669.136
877.3473, 8344.511
877.8294, 8088.569
878.3115, 7858.918
878.7936, 7627.853
879.2758, 7401.693
879.7579, 7184.569
880.2400, 6979.713
880.7221, 6792.673
881.2042, 6626.228
881.6863, 6479.263
882.1685, 6351.232
882.6506, 6241.202
883.1327, 6145.422
883.6148, 6064.210
884.0969, 5981.601
884.5790, 5890.544
885.0612, 5796.530
885.5433, 5706.200
886.0254, 5619.246
886.5075, 5536.462
886.9896, 5454.452
887.4717, 5381.619
887.9539, 5323.934
888.4360, 5271.663
888.9181, 5219.094
889.4002, 5166.546
889.8823, 5116.357
890.3644, 5071.117
890.8466, 5023.560
891.3287, 4965.667
891.8108, 4910.325
892.2929, 4873.159
892.7750, 4843.949
893.2571, 4801.129
893.7393, 4738.623
894.2214, 4675.411
894.7035, 4634.417
895.1856, 4595.913
895.6677, 4526.272
896.1498, 4436.115
896.6320, 4362.062
897.1141, 4310.549
897.5962, 4253.311
898.0783, 4164.514
898.5604, 4054.471
899.0425, 3948.288
899.5247, 3845.297
900.0068, 3763.819
900.4889, 3711.298
900.9710, 3658.555
901.4531, 3584.644
901.9352, 3503.150
902.4174, 3447.728
902.8995, 3432.593
903.3816, 3395.442
903.8637, 3318.521
904.3458, 3242.812
904.8279, 3176.842
905.3101, 3119.966
905.7922, 3074.786
906.2743, 3040.119
906.7564, 3003.293
907.2385, 2951.225
907.7206, 2909.103
908.2028, 2903.701
908.6849, 2900.121
909.1670, 2855.812
909.6491, 2782.359
910.1312, 2724.202
910.6133, 2701.819
911.0955, 2689.449
911.5776, 2666.702
912.0597, 2636.733
912.5418, 2600.194
913.0239, 2560.818
913.5060, 2532.403
913.9882, 2519.190
914.4703, 2508.222
914.9524, 2485.327
915.4345, 2453.605
915.9166, 2424.802
916.3987, 2399.086
916.8809, 2375.493
917.3630, 2353.979
917.8451, 2334.176
918.3272, 2315.851
918.8093, 2298.972
919.2914, 2282.506
919.7736, 2260.634
920.2557, 2255.747
920.7378, 2291.929
921.2199, 2311.249
921.7020, 2272.526
922.1841, 2213.994
922.6663, 2179.411
923.1484, 2170.416
923.6305, 2172.241
924.1126, 2192.126
924.5947, 2210.744
925.0768, 2226.427
925.5590, 2234.137
926.0411, 2225.367
926.5232, 2204.640
927.0053, 2186.480
927.4874, 2176.159
927.9695, 2170.038
928.4517, 2169.370
928.9338, 2168.656
929.4159, 2153.457
929.8980, 2133.621
930.3801, 2138.741
930.8622, 2176.537
931.3444, 2217.577
931.8265, 2231.569
932.3086, 2230.334
932.7907, 2240.980
933.2728, 2261.371
933.7549, 2280.539
934.2371, 2296.286
934.7192, 2310.656
935.2013, 2324.827
935.6834, 2339.686
936.1655, 2356.890
936.6476, 2375.916
937.1298, 2401.407
937.6119, 2433.762
938.0940, 2470.744
938.5761, 2508.777
939.0582, 2555.161
939.5403, 2621.763
940.0225, 2710.143
940.5046, 2792.010
940.9867, 2861.290
941.4688, 2933.605
941.9509, 3001.095
942.4330, 3081.895
942.9152, 3188.494
943.3973, 3317.643
943.8794, 3460.544
944.3615, 3619.789
944.8436, 3782.233
945.3257, 3953.515
945.8079, 4118.200
946.2900, 4257.033
946.7721, 4387.826
947.2542, 4544.160
947.7363, 4726.238
948.2184, 4889.677
948.7006, 5002.369
949.1827, 5096.726
949.6648, 5202.080
950.1469, 5305.908
950.6290, 5390.135
951.1111, 5455.298
951.5933, 5512.349
952.0754, 5566.718
952.5575, 5612.535
953.0396, 5649.279
953.5217, 5670.265
954.0038, 5655.548
954.4860, 5607.722
954.9681, 5537.445
955.4502, 5448.622
955.9323, 5365.331
956.4144, 5314.618
956.8965, 5279.705
957.3787, 5203.313
957.8608, 5084.311
958.3429, 4966.369
958.8250, 4858.699
959.3071, 4730.649
959.7892, 4561.753
960.2714, 4373.502
960.7535, 4204.839
961.2356, 4060.683
961.7177, 3893.380
962.1998, 3688.052
962.6819, 3490.125
963.1641, 3298.516
963.6462, 3129.494
964.1283, 3005.436
964.6104, 2917.113
965.0925, 2820.644
965.5746, 2709.990
966.0568, 2601.246
966.5389, 2479.743
967.0210, 2378.604
967.5031, 2327.977
967.9852, 2298.782
968.4673, 2248.431
968.9495, 2173.519
969.4316, 2116.082
969.9137, 2100.647
970.3958, 2092.290
970.8779, 2071.006
971.3600, 2052.341
971.8422, 2059.283
972.3243, 2081.786
972.8064, 2086.010
973.2885, 2056.507
973.7706, 2034.150
974.2527, 2072.779
974.7349, 2114.362
975.2170, 2078.467
975.6991, 1999.505
976.1812, 1950.420
976.6633, 1945.603
977.1454, 1957.340
977.6276, 1970.782
978.1097, 1978.583
978.5918, 1964.328
979.0739, 1936.793
979.5560, 1917.383
980.0381, 1908.379
980.5203, 1911.764
981.0024, 1928.355
981.4845, 1946.533
981.9666, 1951.578
982.4487, 1946.245
982.9308, 1940.463
983.4130, 1934.409
983.8951, 1935.761
984.3772, 1946.272
984.8593, 1963.085
985.3414, 1986.636
985.8235, 2009.073
986.3057, 2008.006
986.7878, 1977.440
987.2699, 1969.689
987.7520, 1990.193
988.2341, 2016.480
988.7162, 2045.396
989.1984, 2068.662
989.6805, 2073.528
990.1626, 2064.049
990.6447, 2078.651
991.1268, 2147.158
991.6089, 2174.052
992.0911, 2111.608
992.5732, 2063.491
993.0553, 2096.114
993.5374, 2165.537
994.0195, 2201.836
994.5016, 2201.276
994.9838, 2203.422
995.4659, 2222.187
995.9480, 2226.927
996.4301, 2197.203
996.9122, 2163.863
997.3943, 2148.770
997.8765, 2148.493
998.3586, 2152.036
998.8407, 2159.897
999.3228, 2163.083
999.8049, 2157.492
1000.287, 2148.333
1000.769, 2142.713
1001.251, 2132.290
1001.733, 2099.934
1002.216, 2050.447
1002.698, 2015.091
1003.180, 2009.509
1003.662, 2013.871
1004.144, 2025.059
1004.626, 2033.968
1005.108, 2028.874
1005.590, 2015.750
1006.072, 2008.055
1006.555, 2008.608
1007.037, 2006.937
1007.519, 1984.437
1008.001, 1969.133
1008.483, 1999.584
1008.965, 2050.087
1009.447, 2086.304
1009.929, 2102.822
1010.411, 2098.299
1010.894, 2072.089
1011.376, 2042.737
1011.858, 2023.787
1012.340, 2018.207
1012.822, 2035.999
1013.304, 2071.074
1013.786, 2110.328
1014.268, 2148.917
1014.751, 2174.546
1015.233, 2177.017
1015.715, 2175.282
1016.197, 2205.692
1016.679, 2256.619
1017.161, 2288.105
1017.643, 2299.178
1018.125, 2297.301
1018.607, 2284.913
1019.090, 2265.329
1019.572, 2238.188
1020.054, 2212.903
1020.536, 2220.145
1021.018, 2257.256
1021.500, 2290.761
1021.982, 2317.632
1022.464, 2331.446
1022.947, 2328.796
1023.429, 2315.023
1023.911, 2293.981
1024.393, 2268.719
1024.875, 2264.838
1025.357, 2285.052
1025.839, 2299.319
1026.321, 2303.421
1026.803, 2297.375
1027.286, 2278.624
1027.768, 2255.420
1028.250, 2243.656
1028.732, 2244.225
1029.214, 2241.971
1029.696, 2237.853
1030.178, 2226.343
1030.660, 2202.135
1031.142, 2179.285
1031.625, 2167.897
1032.107, 2166.531
1032.589, 2172.532
1033.071, 2191.350
1033.553, 2196.818
1034.035, 2181.489
1034.517, 2168.969
1034.999, 2171.490
1035.482, 2172.610
1035.964, 2153.102
1036.446, 2118.005
1036.928, 2095.989
1037.410, 2086.745
1037.892, 2091.860
1038.374, 2126.781
1038.856, 2154.086
1039.339, 2152.624
1039.821, 2141.294
1040.303, 2144.291
1040.785, 2160.998
1041.267, 2166.753
1041.749, 2152.375
1042.231, 2141.096
1042.713, 2137.638
1043.195, 2133.700
1043.677, 2119.044
1044.160, 2104.566
1044.642, 2110.178
1045.124, 2138.415
1045.606, 2154.174
1046.088, 2146.651
1046.570, 2137.785
1047.052, 2133.772
1047.534, 2127.501
1048.017, 2101.968
1048.499, 2075.106
1048.981, 2089.512
1049.463, 2159.470
1049.945, 2195.580
1050.427, 2144.562
1050.909, 2108.311
1051.391, 2139.794
1051.874, 2179.642
1052.356, 2170.758
1052.838, 2132.801
1053.320, 2126.067
1053.802, 2171.499
1054.284, 2198.399
1054.766, 2167.685
1055.248, 2142.023
1055.730, 2154.831
1056.213, 2180.482
1056.695, 2194.388
1057.177, 2197.913
1057.659, 2204.281
1058.141, 2219.224
1058.623, 2228.546
1059.105, 2223.862
1059.587, 2216.931
1060.069, 2212.368
1060.552, 2210.319
1061.034, 2205.715
1061.516, 2202.455
1061.998, 2220.084
1062.480, 2280.853
1062.962, 2323.615
1063.444, 2310.739
1063.926, 2288.169
1064.409, 2283.541
1064.891, 2288.631
1065.373, 2288.260
1065.855, 2282.908
1066.337, 2289.165
1066.819, 2327.776
1067.301, 2350.604
1067.783, 2319.122
1068.266, 2282.163
1068.748, 2273.316
1069.230, 2283.622
1069.712, 2299.888
1070.194, 2318.263
1070.676, 2331.045
1071.158, 2330.487
1071.640, 2331.311
1072.122, 2343.962
1072.604, 2357.363
1073.087, 2360.709
1073.569, 2359.241
1074.051, 2359.390
1074.533, 2363.532
1075.015, 2380.585
1075.497, 2436.202
1075.979, 2476.646
1076.462, 2456.751
1076.944, 2428.163
1077.426, 2443.318
1077.908, 2479.808
1078.390, 2490.509
1078.872, 2466.367
1079.354, 2437.649
1079.836, 2392.581
1080.318, 2378.169
1080.801, 2452.609
1081.283, 2537.247
1081.765, 2557.752
1082.247, 2535.146
1082.729, 2520.067
1083.211, 2523.626
1083.693, 2526.247
1084.175, 2523.414
1084.657, 2512.665
1085.140, 2472.718
1085.622, 2441.792
1086.104, 2470.449
1086.586, 2530.857
1087.068, 2558.869
1087.550, 2539.895
1088.032, 2520.108
1088.514, 2521.389
1088.997, 2522.369
1089.479, 2499.448
1089.961, 2483.221
1090.443, 2517.228
1090.925, 2575.286
1091.407, 2596.381
1091.889, 2565.921
1092.371, 2530.955
1092.854, 2499.295
1093.336, 2478.702
1093.818, 2469.191
1094.300, 2475.293
1094.782, 2517.109
1095.264, 2573.174
1095.746, 2593.599
1096.228, 2564.923
1096.710, 2546.675
1097.193, 2573.187
1097.675, 2593.653
1098.157, 2572.095
1098.639, 2550.077
1099.121, 2565.986
1099.603, 2607.763
1100.085, 2647.607
1100.567, 2681.947
1101.049, 2705.253
1101.532, 2705.715
1102.014, 2708.967
1102.496, 2733.362
1102.978, 2754.948
1103.460, 2748.135
1103.942, 2726.336
1104.424, 2721.776
1104.906, 2742.178
1105.389, 2751.433
1105.871, 2720.991
1106.353, 2709.266
1106.835, 2748.533
1107.317, 2796.042
1107.799, 2824.293
1108.281, 2837.551
1108.763, 2844.355
1109.245, 2842.515
1109.728, 2853.550
1110.210, 2889.261
1110.692, 2924.076
1111.174, 2965.646
1111.656, 2992.155
1112.138, 2976.339
1112.620, 2940.497
1113.102, 2928.946
1113.584, 2946.604
1114.067, 2960.049
1114.549, 2963.301
1115.031, 2971.638
1115.513, 2989.041
1115.995, 3009.737
1116.477, 3034.618
1116.959, 3058.280
1117.441, 3071.630
1117.924, 3074.398
1118.406, 3067.857
1118.888, 3033.408
1119.370, 3031.260
1119.852, 3092.257
1120.334, 3145.909
1120.816, 3147.421
1121.298, 3126.406
1121.781, 3129.597
1122.263, 3157.056
1122.745, 3185.373
1123.227, 3220.470
1123.709, 3234.409
1124.191, 3214.902
1124.673, 3198.217
1125.155, 3201.915
1125.637, 3219.509
1126.120, 3243.712
1126.602, 3273.629
1127.084, 3299.348
1127.566, 3319.908
1128.048, 3345.649
1128.530, 3380.970
1129.012, 3400.314
1129.494, 3388.157
1129.976, 3371.661
1130.459, 3382.505
1130.941, 3418.044
1131.423, 3477.042
1131.905, 3558.622
1132.387, 3586.768
1132.869, 3553.800
1133.351, 3528.419
1133.833, 3537.710
1134.316, 3560.150
1134.798, 3575.615
1135.280, 3584.740
1135.762, 3583.135
1136.244, 3575.753
1136.726, 3595.083
1137.208, 3639.073
1137.690, 3675.064
1138.172, 3692.662
1138.655, 3700.270
1139.137, 3701.579
1139.619, 3707.528
1140.101, 3747.366
1140.583, 3757.106
1141.065, 3776.142
1141.547, 3810.489
1142.029, 3818.618
1142.511, 3854.148
1142.994, 3897.007
1143.476, 3936.333
1143.958, 3966.912
1144.440, 3979.183
1144.922, 3981.571
1145.404, 3980.835
1145.886, 3982.023
1146.368, 3997.859
1146.851, 4025.997
1147.333, 4046.044
1147.815, 4046.816
1148.297, 4046.817
1148.779, 4054.593
1149.261, 4073.677
1149.743, 4121.753
1150.225, 4173.601
1150.708, 4189.114
1151.190, 4176.692
1151.672, 4174.037
1152.154, 4192.738
1152.636, 4224.255
1153.118, 4271.155
1153.600, 4321.561
1154.082, 4382.876
1154.564, 4433.063
1155.047, 4437.555
1155.529, 4419.179
1156.011, 4433.341
1156.493, 4492.583
1156.975, 4543.036
1157.457, 4575.778
1157.939, 4574.428
1158.421, 4624.184
1158.903, 4660.603
1159.386, 4684.505
1159.868, 4655.043
1160.350, 4696.848
1160.832, 4711.568
1161.314, 4726.181
1161.796, 4781.030
1162.278, 4764.730
1162.760, 4821.062
1163.243, 4849.932
1163.725, 4892.867
1164.207, 4908.547
1164.689, 4934.017
1165.171, 4988.870
1165.653, 5029.083
1166.135, 5045.711
1166.617, 5095.788
1167.099, 5089.027
1167.582, 5134.200
1168.064, 5202.263
1168.546, 5225.577
1169.028, 5281.431
1169.510, 5326.351
1169.992, 5317.792
1170.474, 5405.112
1170.956, 5452.479
1171.438, 5458.782
1171.921, 5546.104
1172.403, 5560.318
1172.885, 5589.492
1173.367, 5600.550
1173.849, 5609.315
1174.331, 5649.159
1174.813, 5650.527
1175.295, 5707.076
1175.778, 5686.073
1176.260, 5696.042
1176.742, 5741.986
1177.224, 5803.589
1177.706, 5872.161
1178.188, 5939.225
1178.670, 5997.807
1179.152, 6051.010
1179.635, 6100.532
1180.117, 6148.573
1180.599, 6198.812
1181.081, 6249.792
1181.563, 6295.894
1182.045, 6336.487
1182.527, 6380.280
1183.009, 6437.101
1183.491, 6489.209
1183.974, 6509.373
1184.456, 6540.751
1184.938, 6634.772
1185.420, 6746.975
1185.902, 6812.354
1186.384, 6833.468
1186.866, 6865.569
1187.348, 6922.160
1187.830, 6980.955
1188.313, 7046.546
1188.795, 7103.936
1189.277, 7131.753
1189.759, 7165.950
1190.241, 7241.973
1190.723, 7343.057
1191.205, 7424.877
1191.687, 7486.167
1192.170, 7534.679
1192.652, 7560.657
1193.134, 7607.295
1193.616, 7689.358
1194.098, 7768.437
1194.580, 7819.463
1195.062, 7865.273
1195.544, 7944.326
1196.026, 7992.169
1196.509, 8103.719
1196.991, 8119.478
1197.473, 8166.059
1197.955, 8250.058
1198.437, 8352.430
1198.919, 8466.308
1199.401, 8570.377
1199.883, 8644.168
1200.365, 8701.937
1200.848, 8766.979
1201.330, 8833.833
1201.812, 8879.408
1202.294, 8918.634
1202.776, 8997.398
1203.258, 9117.201
1203.740, 9236.034
1204.222, 9333.892
1204.705, 9418.984
1205.187, 9484.664
1205.669, 9555.054
1206.151, 9654.497
1206.633, 9766.939
1207.115, 9876.961
1207.597, 9981.637
1208.079, 10082.44
1208.562, 10180.64
1209.044, 10258.13
1209.526, 10274.22
1210.008, 10321.01
1210.490, 10441.92
1210.972, 10579.35
1211.454, 10708.78
1211.936, 10830.28
1212.418, 10943.63
1212.901, 11050.31
1213.383, 11160.50
1213.865, 11277.11
1214.347, 11388.39
1214.829, 11489.76
1215.311, 11598.79
1215.793, 11724.05
1216.275, 11844.91
1216.757, 11941.42
1217.240, 12029.95
1217.722, 12144.12
1218.204, 12282.92
1218.686, 12441.75
1219.168, 12616.69
1219.650, 12755.42
1220.132, 12855.29
1220.614, 12976.25
1221.097, 13145.61
1221.579, 13320.53
1222.061, 13456.29
1222.543, 13575.58
1223.025, 13707.24
1223.507, 13849.74
1223.989, 14005.19
1224.471, 14168.41
1224.953, 14329.85
1225.436, 14485.69
1225.918, 14624.71
1226.400, 14727.73
1226.882, 14852.49
1227.364, 15040.61
1227.846, 15246.16
1228.328, 15451.30
1228.810, 15652.12
1229.292, 15852.74
1229.775, 16047.25
1230.257, 16212.19
1230.739, 16332.81
1231.221, 16491.01
1231.703, 16691.65
1232.185, 16926.59
1232.667, 17225.80
1233.149, 17497.43
1233.632, 17684.39
1234.114, 17847.48
1234.596, 18061.76
1235.078, 18316.58
1235.560, 18569.36
1236.042, 18821.38
1236.524, 19068.15
1237.006, 19310.45
1237.489, 19549.60
1237.971, 19786.73
1238.453, 20023.75
1238.935, 20261.31
1239.417, 20495.77
1239.899, 20718.87
1240.381, 20935.88
1240.863, 21144.28
1241.345, 21357.49
1241.828, 21603.16
1242.310, 21876.67
1242.792, 22167.08
1243.274, 22466.96
1243.756, 22738.67
1244.238, 22931.34
1244.720, 23140.20
1245.202, 23438.95
1245.684, 23743.56
1246.167, 23999.66
1246.649, 24226.83
1247.131, 24430.22
1247.613, 24626.45
1248.095, 24882.71
1248.577, 25238.21
1249.059, 25526.15
1249.541, 25713.53
1250.024, 25903.81
1250.506, 26112.94
1250.988, 26335.54
1251.470, 26571.46
1251.952, 26811.47
1252.434, 27046.40
1252.916, 27273.14
1253.398, 27473.54
1253.880, 27652.51
1254.363, 27856.42
1254.845, 28082.51
1255.327, 28270.34
1255.809, 28409.57
1256.291, 28562.19
1256.773, 28772.71
1257.255, 28984.98
1257.737, 29120.83
1258.219, 29328.02
1258.702, 29446.35
1259.184, 29673.70
1259.666, 29865.00
1260.148, 30013.09
1260.630, 30112.66
1261.112, 30163.93
1261.594, 30235.17
1262.076, 30377.32
1262.559, 30495.10
1263.041, 30536.79
1263.523, 30587.19
1264.005, 30682.62
1264.487, 30805.91
1264.969, 30961.81
1265.451, 31121.73
1265.933, 31191.89
1266.416, 31162.81
1266.898, 31152.58
1267.380, 31164.00
##END=



