##NAMES=Synchysite-(Ce)
##RRUFFID=R060971
##IDEAL CHEMISTRY=CaCe(CO_3_)_2_F
##LOCALITY=Val Nalps, Tavetsch, Graubunden, Switzerland
##OWNER=RRUFF
##SOURCE=Michael Scott
##DESCRIPTION=Yellowish-orange prismatic crystals associated with albite, quartz, hematite and muscovite
##STATUS=The identification of this mineral is confirmed by single-crystal X-ray diffraction and chemical analysis.
##URL=rruff.info/R060971
##MEASURED CHEMISTRY=Ca_1.02_(Ce_0.40_La_0.19_Nd_0.18_Sm_0.07_Y_0.06_Pr_0.05_Gd_0.03_Th_0.02_)_Î£=1.00_(CO_3_)_1.98_F_1.04_
120.0817, 1047.488
120.5638, 1106.896
121.0459, 1180.519
121.5281, 1271.072
122.0102, 1384.675
122.4923, 1523.209
122.9744, 1689.875
123.4565, 1888.507
123.9386, 2126.086
124.4208, 2382.142
124.9029, 2650.296
125.3850, 2930.442
125.8671, 3218.951
126.3492, 3526.287
126.8313, 3839.206
127.3135, 4123.921
127.7956, 4377.306
128.2777, 4606.055
128.7598, 4805.684
129.2419, 4976.686
129.7240, 5153.057
130.2061, 5375.419
130.6883, 5612.180
131.1704, 5804.931
131.6525, 5944.622
132.1346, 6035.134
132.6167, 6075.967
133.0988, 6061.727
133.5810, 6019.910
134.0631, 5943.146
134.5452, 5852.566
135.0273, 5777.157
135.5094, 5721.825
135.9915, 5690.196
136.4737, 5688.522
136.9558, 5715.117
137.4379, 5778.635
137.9200, 5884.205
138.4021, 6024.067
138.8842, 6190.354
139.3664, 6377.404
139.8485, 6587.547
140.3306, 6826.331
140.8127, 7088.353
141.2948, 7393.910
141.7769, 7763.297
142.2591, 8174.749
142.7412, 8587.232
143.2233, 8972.086
143.7054, 9336.279
144.1875, 9720.368
144.6696, 10153.25
145.1518, 10570.64
145.6339, 10955.62
146.1160, 11307.91
146.5981, 11630.16
147.0802, 11925.66
147.5623, 12193.85
148.0445, 12425.28
148.5266, 12604.52
149.0087, 12754.92
149.4908, 12894.25
149.9729, 13012.04
150.4550, 13080.19
150.9371, 13065.73
151.4193, 12961.98
151.9014, 12891.48
152.3835, 12882.91
152.8656, 12883.03
153.3477, 12877.29
153.8298, 12865.72
154.3120, 12855.28
154.7941, 12853.70
155.2762, 12863.75
155.7583, 12860.70
156.2404, 12812.39
156.7225, 12780.35
157.2047, 12786.18
157.6868, 12831.09
158.1689, 12908.56
158.6510, 13016.05
159.1331, 13161.97
159.6152, 13294.54
160.0974, 13392.01
160.5795, 13496.73
161.0616, 13635.38
161.5437, 13803.69
162.0258, 13976.75
162.5079, 14131.18
162.9901, 14265.70
163.4722, 14378.86
163.9543, 14461.32
164.4364, 14534.22
164.9185, 14604.97
165.4007, 14675.89
165.8828, 14748.65
166.3649, 14828.45
166.8470, 14923.17
167.3291, 14982.62
167.8112, 14996.78
168.2934, 14989.65
168.7755, 14973.53
169.2576, 14950.51
169.7397, 14917.30
170.2218, 14868.33
170.7039, 14797.72
171.1861, 14739.37
171.6682, 14700.49
172.1503, 14667.69
172.6324, 14628.43
173.1145, 14583.44
173.5966, 14546.44
174.0788, 14532.84
174.5609, 14549.40
175.0430, 14562.76
175.5251, 14569.88
176.0072, 14576.16
176.4893, 14582.07
176.9714, 14588.80
177.4536, 14603.54
177.9357, 14634.31
178.4178, 14684.99
178.8999, 14736.33
179.3820, 14773.79
179.8641, 14821.17
180.3463, 14901.17
180.8284, 15014.56
181.3105, 15139.17
181.7926, 15252.60
182.2747, 15351.31
182.7568, 15467.33
183.2390, 15620.55
183.7211, 15778.00
184.2032, 15907.59
184.6853, 16007.81
185.1674, 16110.06
185.6495, 16246.97
186.1317, 16423.85
186.6138, 16580.37
187.0959, 16698.32
187.5780, 16807.16
188.0601, 16930.24
188.5422, 17068.76
189.0244, 17216.73
189.5065, 17374.93
189.9886, 17543.15
190.4707, 17674.89
190.9528, 17733.11
191.4349, 17779.83
191.9171, 17863.64
192.3992, 17987.34
192.8813, 18130.66
193.3634, 18281.81
193.8455, 18440.17
194.3276, 18591.40
194.8098, 18728.74
195.2919, 18863.15
195.7740, 19012.15
196.2561, 19174.34
196.7382, 19316.18
197.2203, 19403.22
197.7025, 19441.01
198.1846, 19506.04
198.6667, 19617.88
199.1488, 19743.55
199.6309, 19863.61
200.1130, 19977.60
200.5951, 20083.45
201.0773, 20179.06
201.5594, 20264.38
202.0415, 20348.91
202.5236, 20430.04
203.0057, 20512.11
203.4878, 20598.86
203.9700, 20689.78
204.4521, 20781.73
204.9342, 20870.51
205.4163, 20959.62
205.8984, 21058.93
206.3805, 21190.63
206.8627, 21312.79
207.3448, 21392.14
207.8269, 21434.82
208.3090, 21474.43
208.7911, 21522.56
209.2732, 21584.93
209.7554, 21673.98
210.2375, 21805.80
210.7196, 21945.10
211.2017, 22066.57
211.6838, 22176.69
212.1659, 22302.84
212.6481, 22461.30
213.1302, 22642.46
213.6123, 22812.60
214.0944, 22960.59
214.5765, 23116.48
215.0586, 23307.23
215.5408, 23519.90
216.0229, 23715.39
216.5050, 23872.14
216.9871, 24007.49
217.4692, 24158.56
217.9513, 24323.96
218.4335, 24503.90
218.9156, 24715.17
219.3977, 24941.19
219.8798, 25139.15
220.3619, 25288.11
220.8440, 25413.42
221.3262, 25567.90
221.8083, 25761.79
222.2904, 25944.71
222.7725, 26085.39
223.2546, 26207.66
223.7367, 26358.93
224.2189, 26559.69
224.7010, 26774.74
225.1831, 26938.69
225.6652, 27040.45
226.1473, 27161.32
226.6294, 27344.86
227.1115, 27550.13
227.5937, 27711.01
228.0758, 27808.20
228.5579, 27891.70
229.0400, 28028.70
229.5221, 28228.25
230.0042, 28418.52
230.4864, 28574.26
230.9685, 28724.16
231.4506, 28904.98
231.9327, 29122.18
232.4148, 29343.38
232.8969, 29531.97
233.3791, 29682.53
233.8612, 29840.01
234.3433, 29997.27
234.8254, 30167.94
235.3075, 30371.25
235.7896, 30606.48
236.2718, 30845.46
236.7539, 31071.45
237.2360, 31280.94
237.7181, 31454.85
238.2002, 31575.94
238.6823, 31676.59
239.1645, 31767.73
239.6466, 31853.43
240.1287, 31943.24
240.6108, 32046.29
241.0929, 32160.66
241.5750, 32263.70
242.0572, 32344.71
242.5393, 32427.30
243.0214, 32536.63
243.5035, 32657.33
243.9856, 32742.57
244.4677, 32757.74
244.9499, 32724.71
245.4320, 32759.12
245.9141, 32923.24
246.3962, 33070.95
246.8783, 33166.11
247.3604, 33222.71
247.8426, 33260.52
248.3247, 33287.50
248.8068, 33307.50
249.2889, 33331.53
249.7710, 33349.85
250.2531, 33383.80
250.7352, 33449.84
251.2174, 33525.65
251.6995, 33586.25
252.1816, 33623.09
252.6637, 33643.55
253.1458, 33660.78
253.6279, 33681.56
254.1101, 33683.81
254.5922, 33641.56
255.0743, 33597.61
255.5564, 33600.21
256.0385, 33651.40
256.5207, 33699.47
257.0028, 33673.59
257.4849, 33533.93
257.9670, 33448.18
258.4491, 33454.25
258.9312, 33472.67
259.4134, 33459.84
259.8955, 33415.78
260.3776, 33368.58
260.8597, 33350.15
261.3418, 33369.21
261.8239, 33319.61
262.3060, 33141.69
262.7881, 32958.27
263.2703, 32799.15
263.7524, 32667.29
264.2345, 32560.90
264.7166, 32482.48
265.1987, 32427.31
265.6808, 32354.73
266.1630, 32264.66
266.6451, 32154.01
267.1272, 32012.07
267.6093, 31852.37
268.0914, 31690.16
268.5735, 31532.08
269.0557, 31379.69
269.5378, 31235.86
270.0199, 31103.11
270.5020, 30973.93
270.9841, 30855.00
271.4662, 30734.33
271.9484, 30597.52
272.4305, 30439.46
272.9126, 30275.53
273.3947, 30128.82
273.8768, 30006.34
274.3589, 29877.15
274.8411, 29726.26
275.3232, 29575.28
275.8053, 29435.65
276.2874, 29309.13
276.7695, 29191.18
277.2516, 29078.15
277.7338, 28969.75
278.2159, 28864.15
278.6980, 28762.80
279.1801, 28662.45
279.6622, 28564.32
280.1443, 28466.13
280.6265, 28362.09
281.1086, 28238.25
281.5907, 28103.48
282.0728, 27999.51
282.5549, 27944.50
283.0370, 27882.90
283.5192, 27757.27
284.0013, 27605.96
284.4834, 27501.77
284.9655, 27509.89
285.4476, 27549.68
285.9297, 27493.84
286.4119, 27330.00
286.8940, 27158.58
287.3761, 27016.37
287.8582, 26901.51
288.3403, 26813.71
288.8224, 26768.45
289.3046, 26722.62
289.7867, 26627.89
290.2688, 26495.37
290.7509, 26396.79
291.2330, 26367.59
291.7151, 26373.16
292.1973, 26358.66
292.6794, 26323.19
293.1615, 26277.37
293.6436, 26218.53
294.1257, 26153.29
294.6078, 26091.70
295.0900, 26035.05
295.5721, 25986.06
296.0542, 25947.45
296.5363, 25917.87
297.0184, 25904.56
297.5005, 25924.71
297.9827, 25950.53
298.4648, 25950.14
298.9469, 25923.38
299.4290, 25903.33
299.9111, 25921.94
300.3932, 25979.04
300.8754, 26003.97
301.3575, 25967.18
301.8396, 25931.11
302.3217, 25930.78
302.8038, 25954.30
303.2859, 25971.17
303.7681, 25964.95
304.2502, 25938.36
304.7323, 25901.27
305.2144, 25822.40
305.6965, 25772.12
306.1786, 25781.65
306.6608, 25813.77
307.1429, 25826.65
307.6250, 25806.21
308.1071, 25768.26
308.5892, 25742.44
309.0714, 25753.31
309.5535, 25724.10
310.0356, 25636.83
310.5177, 25530.94
310.9998, 25417.54
311.4819, 25305.85
311.9640, 25214.64
312.4461, 25168.88
312.9283, 25174.52
313.4104, 25150.10
313.8925, 25074.04
314.3746, 24987.85
314.8567, 24894.15
315.3388, 24800.53
315.8210, 24719.03
316.3031, 24658.50
316.7852, 24613.33
317.2673, 24568.09
317.7494, 24528.28
318.2315, 24475.54
318.7137, 24383.66
319.1958, 24286.34
319.6779, 24229.40
320.1600, 24234.02
320.6421, 24232.62
321.1242, 24117.37
321.6064, 23881.56
322.0885, 23716.72
322.5706, 23718.60
323.0527, 23760.87
323.5348, 23719.99
324.0169, 23593.62
324.4991, 23470.11
324.9812, 23414.06
325.4633, 23396.51
325.9454, 23340.57
326.4275, 23227.56
326.9096, 23108.37
327.3918, 23044.62
327.8739, 23017.77
328.3560, 22944.69
328.8381, 22767.23
329.3202, 22569.03
329.8023, 22433.40
330.2845, 22354.31
330.7666, 22260.92
331.2487, 22104.99
331.7308, 21908.55
332.2129, 21755.06
332.6950, 21687.04
333.1772, 21601.36
333.6593, 21454.09
334.1414, 21271.69
334.6235, 21092.65
335.1056, 20929.01
335.5877, 20778.95
336.0699, 20641.19
336.5520, 20531.40
337.0341, 20397.83
337.5162, 20216.55
337.9983, 20030.83
338.4804, 19876.21
338.9626, 19750.28
339.4447, 19623.68
339.9268, 19466.88
340.4089, 19278.10
340.8910, 19113.10
341.3731, 18989.70
341.8553, 18872.76
342.3374, 18758.28
342.8195, 18643.96
343.3016, 18529.43
343.7837, 18414.50
344.2658, 18296.17
344.7480, 18164.40
345.2301, 18009.32
345.7122, 17865.25
346.1943, 17742.98
346.6764, 17630.43
347.1585, 17523.96
347.6407, 17421.91
348.1228, 17316.89
348.6049, 17194.11
349.0870, 17056.16
349.5691, 16942.39
350.0512, 16877.66
350.5334, 16808.47
351.0155, 16692.80
351.4976, 16543.02
351.9797, 16395.88
352.4618, 16269.84
352.9439, 16154.29
353.4261, 16030.87
353.9082, 15898.16
354.3903, 15779.26
354.8724, 15700.24
355.3545, 15638.60
355.8366, 15536.59
356.3188, 15371.19
356.8009, 15203.91
357.2830, 15058.58
357.7651, 14934.04
358.2472, 14827.67
358.7293, 14739.82
359.2115, 14666.50
359.6936, 14604.97
360.1757, 14564.33
360.6578, 14505.11
361.1399, 14416.69
361.6220, 14316.29
362.1041, 14208.45
362.5862, 14098.61
363.0684, 13999.79
363.5505, 13923.24
364.0326, 13868.19
364.5147, 13819.62
364.9968, 13802.81
365.4789, 13763.22
365.9611, 13674.05
366.4432, 13562.09
366.9253, 13456.61
367.4074, 13369.94
367.8895, 13303.47
368.3716, 13265.21
368.8538, 13268.64
369.3359, 13259.59
369.8180, 13232.08
370.3001, 13191.27
370.7822, 13126.18
371.2643, 13044.71
371.7465, 12979.28
372.2286, 12968.73
372.7107, 12998.38
373.1928, 12997.35
373.6749, 12956.20
374.1570, 12905.33
374.6392, 12861.73
375.1213, 12819.61
375.6034, 12768.72
376.0855, 12702.67
376.5676, 12633.45
377.0497, 12570.22
377.5319, 12512.92
378.0140, 12463.00
378.4961, 12422.86
378.9782, 12387.41
379.4603, 12349.19
379.9424, 12308.95
380.4246, 12264.91
380.9067, 12214.67
381.3888, 12161.71
381.8709, 12107.67
382.3530, 12053.50
382.8351, 12003.23
383.3173, 11961.29
383.7994, 11927.49
384.2815, 11885.66
384.7636, 11825.88
385.2457, 11770.79
385.7278, 11732.13
386.2100, 11700.62
386.6921, 11658.81
387.1742, 11599.69
387.6563, 11539.38
388.1384, 11514.32
388.6205, 11554.52
389.1027, 11556.02
389.5848, 11471.29
390.0669, 11385.17
390.5490, 11343.65
391.0311, 11345.55
391.5132, 11365.00
391.9954, 11394.42
392.4775, 11425.49
392.9596, 11413.65
393.4417, 11337.88
393.9238, 11267.27
394.4059, 11248.15
394.8881, 11247.53
395.3702, 11221.27
395.8523, 11149.91
396.3344, 11077.20
396.8165, 11045.48
397.2986, 11045.53
397.7808, 11035.55
398.2629, 11000.85
398.7450, 10961.81
399.2271, 10951.83
399.7092, 10973.04
400.1913, 10967.54
400.6735, 10900.00
401.1556, 10821.72
401.6377, 10774.75
402.1198, 10757.76
402.6019, 10748.34
403.0840, 10732.93
403.5662, 10713.09
404.0483, 10696.73
404.5304, 10688.16
405.0125, 10677.95
405.4946, 10660.74
405.9767, 10644.15
406.4589, 10642.39
406.9410, 10655.73
407.4231, 10662.41
407.9052, 10630.50
408.3873, 10551.72
408.8694, 10495.45
409.3516, 10462.38
409.8336, 10453.87
410.3158, 10489.89
410.7979, 10547.77
411.2800, 10584.86
411.7621, 10576.44
412.2442, 10545.89
412.7263, 10526.45
413.2085, 10517.94
413.6906, 10523.28
414.1727, 10550.72
414.6548, 10586.22
415.1369, 10610.37
415.6190, 10621.59
416.1012, 10638.31
416.5833, 10676.31
417.0654, 10720.72
417.5475, 10747.69
418.0296, 10755.27
418.5117, 10763.08
418.9939, 10787.96
419.4760, 10827.21
419.9581, 10849.97
420.4402, 10829.51
420.9223, 10826.74
421.4044, 10879.60
421.8866, 10953.31
422.3687, 10996.79
422.8508, 10995.00
423.3329, 10975.17
423.8150, 10976.63
424.2971, 11004.46
424.7793, 11035.87
425.2614, 11070.72
425.7435, 11109.32
426.2256, 11154.24
426.7077, 11202.91
427.1898, 11250.39
427.6720, 11293.18
428.1541, 11333.85
428.6362, 11376.42
429.1183, 11419.95
429.6004, 11470.69
430.0826, 11541.08
430.5647, 11611.67
431.0468, 11662.07
431.5289, 11690.37
432.0110, 11714.97
432.4931, 11739.98
432.9753, 11768.83
433.4574, 11806.35
433.9395, 11853.33
434.4216, 11910.27
434.9037, 11980.59
435.3858, 12062.01
435.8680, 12136.38
436.3501, 12206.09
436.8322, 12267.07
437.3143, 12318.67
437.7964, 12360.66
438.2785, 12385.03
438.7607, 12391.91
439.2428, 12405.95
439.7249, 12465.19
440.2070, 12585.16
440.6891, 12674.86
441.1712, 12707.60
441.6534, 12736.64
442.1355, 12775.30
442.6176, 12823.65
443.0997, 12881.51
443.5818, 12952.12
444.0639, 13023.12
444.5461, 13073.03
445.0282, 13100.43
445.5103, 13121.20
445.9924, 13134.87
446.4745, 13147.39
446.9566, 13166.99
447.4388, 13193.22
447.9209, 13213.23
448.4030, 13216.58
448.8851, 13214.96
449.3672, 13222.86
449.8493, 13240.18
450.3315, 13258.93
450.8136, 13276.85
451.2957, 13290.92
451.7778, 13289.02
452.2599, 13255.28
452.7420, 13228.94
453.2242, 13217.35
453.7063, 13212.64
454.1884, 13207.74
454.6705, 13201.79
455.1526, 13199.08
455.6347, 13206.00
456.1169, 13221.45
456.5990, 13220.16
457.0811, 13194.02
457.5632, 13161.57
458.0453, 13115.28
458.5274, 13072.04
459.0095, 13056.50
459.4916, 13077.55
459.9738, 13101.30
460.4559, 13090.09
460.9380, 13051.62
461.4201, 13025.83
461.9022, 13021.42
462.3843, 13021.90
462.8665, 13014.61
463.3486, 13000.36
463.8307, 12983.74
464.3128, 12952.03
464.7949, 12931.40
465.2770, 12945.62
465.7592, 12980.70
466.2413, 13010.38
466.7234, 13025.33
467.2055, 13025.66
467.6876, 13008.48
468.1697, 12960.87
468.6519, 12936.14
469.1340, 12952.12
469.6161, 12970.07
470.0982, 12973.03
470.5803, 12964.88
471.0624, 12955.69
471.5446, 12949.87
472.0267, 12948.21
472.5088, 12954.76
472.9909, 12971.57
473.4730, 12981.66
473.9551, 12981.83
474.4373, 12972.68
474.9194, 12953.63
475.4015, 12925.51
475.8836, 12897.47
476.3657, 12862.03
476.8478, 12835.61
477.3300, 12841.22
477.8121, 12875.29
478.2942, 12915.03
478.7763, 12952.16
479.2584, 12982.03
479.7405, 12992.34
480.2227, 12963.88
480.7048, 12948.04
481.1869, 12953.32
481.6690, 12965.93
482.1511, 12984.63
482.6332, 13002.93
483.1154, 13003.36
483.5975, 12968.85
484.0796, 12911.84
484.5617, 12881.96
485.0438, 12886.13
485.5259, 12899.70
486.0081, 12917.87
486.4902, 12941.86
486.9723, 12981.85
487.4544, 13037.12
487.9365, 13071.82
488.4186, 13048.72
488.9008, 12997.19
489.3829, 12962.96
489.8650, 12948.88
490.3471, 12958.48
490.8292, 13005.75
491.3113, 13071.59
491.7935, 13086.44
492.2756, 13023.70
492.7577, 12960.54
493.2398, 12900.88
493.7219, 12849.81
494.2040, 12814.84
494.6862, 12794.67
495.1683, 12780.09
495.6504, 12763.57
496.1325, 12745.80
496.6146, 12732.23
497.0967, 12727.23
497.5789, 12718.36
498.0610, 12702.97
498.5431, 12682.29
499.0252, 12656.74
499.5073, 12626.44
499.9894, 12593.37
500.4716, 12553.28
500.9537, 12512.72
501.4358, 12490.55
501.9179, 12489.47
502.4000, 12481.07
502.8821, 12446.05
503.3643, 12391.31
503.8464, 12340.73
504.3285, 12283.70
504.8106, 12246.33
505.2927, 12258.07
505.7748, 12276.77
506.2570, 12253.09
506.7391, 12188.03
507.2212, 12126.59
507.7033, 12109.24
508.1854, 12128.38
508.6675, 12127.37
509.1496, 12097.75
509.6317, 12063.39
510.1139, 12029.89
510.5960, 11994.98
511.0781, 11953.39
511.5602, 11904.90
512.0424, 11862.56
512.5245, 11838.15
513.0066, 11824.68
513.4887, 11811.63
513.9708, 11798.32
514.4529, 11776.49
514.9351, 11738.88
515.4172, 11691.01
515.8993, 11650.76
516.3814, 11618.35
516.8635, 11591.83
517.3456, 11592.98
517.8278, 11584.37
518.3099, 11518.34
518.7920, 11405.14
519.2741, 11305.58
519.7562, 11269.13
520.2383, 11277.38
520.7205, 11248.64
521.2026, 11161.98
521.6847, 11092.55
522.1668, 11076.95
522.6489, 11074.71
523.1310, 11057.01
523.6132, 11022.50
524.0953, 10985.81
524.5774, 10961.73
525.0595, 10935.62
525.5416, 10879.53
526.0237, 10797.52
526.5059, 10729.83
526.9880, 10698.59
527.4701, 10687.27
527.9522, 10659.19
528.4343, 10605.82
528.9164, 10551.42
529.3986, 10498.78
529.8807, 10442.81
530.3628, 10379.91
530.8449, 10311.14
531.3270, 10238.57
531.8091, 10161.80
532.2913, 10087.56
532.7734, 10033.10
533.2554, 10001.88
533.7375, 9964.785
534.2197, 9909.348
534.7018, 9854.632
535.1839, 9817.752
535.6660, 9796.133
536.1481, 9777.082
536.6302, 9751.060
537.1124, 9731.840
537.5945, 9744.893
538.0766, 9772.469
538.5587, 9765.867
539.0408, 9707.899
539.5229, 9628.121
540.0051, 9567.853
540.4872, 9529.300
540.9693, 9498.806
541.4514, 9494.120
541.9335, 9478.072
542.4156, 9429.932
542.8978, 9366.896
543.3799, 9311.851
543.8620, 9272.578
544.3441, 9245.125
544.8262, 9231.626
545.3083, 9228.217
545.7905, 9214.778
546.2726, 9188.048
546.7547, 9155.546
547.2368, 9119.295
547.7189, 9081.487
548.2010, 9050.908
548.6832, 9019.482
549.1653, 9005.872
549.6474, 9040.040
550.1295, 9080.136
550.6116, 9074.728
551.0938, 9021.976
551.5759, 8961.258
552.0580, 8926.129
552.5401, 8911.912
553.0222, 8890.192
553.5043, 8848.749
553.9865, 8827.543
554.4686, 8865.800
554.9507, 8909.824
555.4328, 8912.358
555.9149, 8872.631
556.3970, 8837.760
556.8792, 8841.942
557.3613, 8855.164
557.8434, 8834.183
558.3255, 8785.883
558.8076, 8751.940
559.2897, 8751.837
559.7719, 8771.705
560.2540, 8788.602
560.7361, 8811.575
561.2182, 8805.546
561.7003, 8748.295
562.1824, 8688.511
562.6646, 8642.146
563.1467, 8609.943
563.6288, 8591.771
564.1109, 8589.280
564.5930, 8589.585
565.0751, 8572.974
565.5573, 8542.283
566.0394, 8523.271
566.5215, 8522.398
567.0036, 8524.033
567.4857, 8517.087
567.9678, 8502.386
568.4500, 8486.885
568.9321, 8461.424
569.4142, 8446.702
569.8963, 8458.083
570.3784, 8477.899
570.8605, 8484.117
571.3427, 8475.868
571.8248, 8471.511
572.3069, 8489.570
572.7890, 8522.526
573.2711, 8528.565
573.7532, 8494.195
574.2354, 8470.905
574.7175, 8475.718
575.1996, 8495.205
575.6817, 8530.875
576.1638, 8579.373
576.6459, 8593.901
577.1281, 8513.907
577.6102, 8425.897
578.0923, 8418.303
578.5744, 8473.163
579.0565, 8530.513
579.5386, 8567.458
580.0208, 8591.205
580.5029, 8612.083
580.9850, 8629.530
581.4671, 8646.217
581.9492, 8672.428
582.4313, 8686.121
582.9135, 8667.232
583.3956, 8637.313
583.8777, 8629.460
584.3598, 8654.462
584.8419, 8680.182
585.3240, 8670.572
585.8062, 8642.890
586.2883, 8644.285
586.7704, 8679.651
587.2525, 8714.776
587.7346, 8728.861
588.2167, 8727.447
588.6989, 8728.026
589.1810, 8734.436
589.6631, 8736.973
590.1452, 8735.025
590.6273, 8729.556
591.1094, 8716.101
591.5916, 8699.695
592.0737, 8692.467
592.5558, 8701.720
593.0379, 8721.150
593.5200, 8746.978
594.0021, 8778.322
594.4843, 8787.127
594.9664, 8760.381
595.4485, 8729.343
595.9306, 8724.596
596.4127, 8741.790
596.8948, 8741.893
597.3770, 8713.529
597.8591, 8681.146
598.3412, 8639.802
598.8233, 8605.502
599.3054, 8605.506
599.7875, 8637.033
600.2697, 8661.803
600.7518, 8643.767
601.2339, 8596.369
601.7160, 8574.898
602.1981, 8584.325
602.6802, 8601.235
603.1624, 8633.985
603.6445, 8657.551
604.1266, 8636.001
604.6087, 8573.501
605.0908, 8534.330
605.5729, 8550.630
606.0551, 8578.415
606.5372, 8592.259
607.0193, 8595.569
607.5014, 8600.191
607.9835, 8608.688
608.4656, 8605.776
608.9478, 8567.466
609.4299, 8493.605
609.9120, 8449.737
610.3941, 8453.047
610.8762, 8454.361
611.3583, 8429.458
611.8405, 8398.318
612.3226, 8384.629
612.8047, 8391.618
613.2868, 8388.449
613.7689, 8353.391
614.2510, 8307.673
614.7332, 8273.692
615.2153, 8249.107
615.6974, 8221.005
616.1795, 8183.396
616.6616, 8144.685
617.1437, 8118.350
617.6259, 8106.619
618.1080, 8097.639
618.5901, 8106.435
619.0722, 8098.303
619.5543, 8051.131
620.0364, 7985.406
620.5186, 7927.748
621.0007, 7884.012
621.4828, 7842.479
621.9649, 7798.571
622.4470, 7751.052
622.9291, 7693.169
623.4113, 7627.615
623.8934, 7573.194
624.3755, 7542.450
624.8576, 7520.024
625.3397, 7470.260
625.8218, 7373.202
626.3040, 7301.445
626.7861, 7282.588
627.2682, 7261.773
627.7503, 7218.366
628.2324, 7159.619
628.7145, 7096.436
629.1967, 7030.954
629.6788, 6968.830
630.1609, 6925.556
630.6430, 6885.194
631.1251, 6808.608
631.6072, 6696.194
632.0893, 6597.414
632.5714, 6544.924
633.0535, 6521.929
633.5356, 6481.863
634.0178, 6411.056
634.4999, 6349.829
634.9820, 6304.717
635.4641, 6262.411
635.9462, 6225.647
636.4283, 6185.179
636.9105, 6119.739
637.3926, 6014.065
637.8747, 5912.078
638.3568, 5861.448
638.8389, 5839.191
639.3210, 5792.764
639.8032, 5716.953
640.2853, 5636.614
640.7674, 5567.657
641.2495, 5507.335
641.7316, 5449.143
642.2137, 5397.216
642.6959, 5339.637
643.1780, 5267.386
643.6601, 5198.576
644.1422, 5143.586
644.6243, 5099.135
645.1064, 5057.974
645.5886, 5018.992
646.0707, 4978.503
646.5528, 4931.814
647.0349, 4881.944
647.5170, 4836.074
647.9991, 4794.780
648.4813, 4751.960
648.9634, 4701.965
649.4455, 4649.247
649.9276, 4610.547
650.4097, 4604.882
650.8918, 4574.631
651.3740, 4488.234
651.8561, 4406.063
652.3382, 4363.637
652.8203, 4346.718
653.3024, 4321.148
653.7845, 4272.725
654.2667, 4222.354
654.7488, 4184.697
655.2309, 4157.013
655.7130, 4136.925
656.1951, 4123.058
656.6772, 4108.625
657.1594, 4089.958
657.6415, 4066.006
658.1236, 4032.019
658.6057, 3978.889
659.0878, 3937.928
659.5699, 3918.857
660.0521, 3904.076
660.5342, 3895.166
661.0163, 3883.171
661.4984, 3847.706
661.9805, 3774.346
662.4626, 3706.226
662.9448, 3677.242
663.4269, 3667.539
663.9090, 3649.200
664.3911, 3620.736
664.8732, 3592.951
665.3553, 3572.055
665.8375, 3556.298
666.3196, 3541.680
666.8017, 3527.580
667.2838, 3517.581
667.7659, 3517.646
668.2480, 3514.108
668.7302, 3497.581
669.2123, 3474.039
669.6944, 3454.049
670.1765, 3441.220
670.6586, 3424.771
671.1407, 3403.948
671.6229, 3374.176
672.1050, 3315.807
672.5871, 3242.665
673.0692, 3204.276
673.5513, 3225.460
674.0334, 3269.438
674.5156, 3272.963
674.9977, 3232.437
675.4798, 3192.653
675.9619, 3147.957
676.4440, 3119.073
676.9261, 3128.947
677.4083, 3155.960
677.8904, 3162.387
678.3725, 3142.342
678.8546, 3123.594
679.3367, 3113.417
679.8188, 3106.302
680.3010, 3099.969
680.7831, 3093.360
681.2652, 3086.697
681.7473, 3079.746
682.2294, 3067.271
682.7115, 3034.306
683.1937, 2987.065
683.6758, 2974.431
684.1579, 3004.301
684.6400, 3022.027
685.1221, 3000.747
685.6042, 2960.575
686.0864, 2929.010
686.5685, 2904.674
687.0506, 2897.732
687.5327, 2930.950
688.0148, 2956.091
688.4969, 2950.409
688.9791, 2927.527
689.4612, 2901.051
689.9433, 2875.802
690.4254, 2858.138
690.9075, 2857.946
691.3896, 2866.474
691.8718, 2865.384
692.3539, 2855.877
692.8360, 2850.562
693.3181, 2854.769
693.8002, 2856.010
694.2823, 2837.458
694.7645, 2798.538
695.2466, 2776.705
695.7287, 2792.580
696.2108, 2797.620
696.6929, 2774.296
697.1750, 2745.752
697.6572, 2731.394
698.1393, 2730.453
698.6214, 2729.559
699.1035, 2721.101
699.5856, 2712.459
700.0677, 2713.749
700.5499, 2718.835
701.0320, 2712.620
701.5141, 2693.604
701.9962, 2677.914
702.4783, 2681.022
702.9604, 2692.432
703.4426, 2666.197
703.9247, 2580.395
704.4068, 2532.860
704.8889, 2548.789
705.3710, 2589.404
705.8531, 2650.884
706.3353, 2715.384
706.8174, 2734.447
707.2995, 2675.249
707.7816, 2623.797
708.2637, 2613.428
708.7458, 2621.800
709.2280, 2633.098
709.7101, 2644.457
710.1922, 2657.896
710.6743, 2675.016
711.1564, 2685.487
711.6385, 2672.096
712.1207, 2637.091
712.6028, 2594.498
713.0849, 2540.747
713.5670, 2508.281
714.0491, 2516.456
714.5313, 2552.493
715.0134, 2595.983
715.4955, 2659.277
715.9776, 2689.976
716.4597, 2667.521
716.9418, 2636.954
717.4240, 2608.275
717.9061, 2585.114
718.3882, 2572.950
718.8703, 2572.048
719.3524, 2571.801
719.8345, 2559.394
720.3167, 2547.305
720.7988, 2555.871
721.2809, 2579.888
721.7630, 2601.564
722.2451, 2615.360
722.7272, 2621.747
723.2094, 2619.431
723.6915, 2609.963
724.1736, 2612.379
724.6557, 2637.331
725.1378, 2647.784
725.6199, 2627.719
726.1021, 2598.486
726.5842, 2573.485
727.0663, 2553.378
727.5484, 2540.193
728.0305, 2535.943
728.5126, 2536.588
728.9948, 2548.115
729.4769, 2558.652
729.9590, 2549.300
730.4411, 2526.203
730.9232, 2516.274
731.4053, 2536.512
731.8874, 2565.344
732.3695, 2564.344
732.8516, 2539.712
733.3337, 2534.048
733.8159, 2553.147
734.2980, 2574.368
734.7801, 2584.046
735.2622, 2589.206
735.7443, 2606.801
736.2264, 2647.874
736.7086, 2670.740
737.1907, 2660.229
737.6728, 2650.049
738.1549, 2656.998
738.6370, 2667.950
739.1191, 2660.140
739.6013, 2630.555
740.0834, 2616.414
740.5655, 2657.843
741.0476, 2706.062
741.5297, 2709.216
742.0118, 2682.413
742.4940, 2662.320
742.9761, 2658.355
743.4582, 2657.152
743.9403, 2646.257
744.4224, 2627.523
744.9045, 2604.616
745.3867, 2574.032
745.8688, 2565.646
746.3509, 2595.537
746.8330, 2629.823
747.3151, 2639.297
747.7972, 2628.219
748.2794, 2623.537
748.7615, 2628.226
749.2436, 2634.641
749.7257, 2640.469
750.2078, 2649.149
750.6899, 2665.718
751.1721, 2686.494
751.6542, 2704.758
752.1363, 2718.854
752.6184, 2724.409
753.1005, 2704.053
753.5826, 2679.187
754.0648, 2696.198
754.5469, 2747.513
755.0290, 2781.189
755.5111, 2774.843
755.9932, 2754.468
756.4753, 2757.968
756.9575, 2785.556
757.4396, 2791.243
757.9217, 2762.903
758.4038, 2746.775
758.8859, 2762.217
759.3680, 2790.307
759.8502, 2813.949
760.3323, 2833.063
760.8144, 2844.894
761.2965, 2844.863
761.7786, 2843.054
762.2607, 2840.964
762.7429, 2839.495
763.2250, 2837.615
763.7071, 2836.923
764.1892, 2842.390
764.6713, 2857.615
765.1534, 2875.981
765.6356, 2894.872
766.1177, 2910.400
766.5998, 2907.872
767.0819, 2888.929
767.5640, 2877.355
768.0461, 2885.148
768.5283, 2910.908
769.0104, 2958.811
769.4925, 3035.520
769.9746, 3075.195
770.4567, 3058.958
770.9388, 3046.941
771.4210, 3062.958
771.9031, 3093.610
772.3852, 3123.842
772.8673, 3153.782
773.3494, 3181.397
773.8315, 3210.653
774.3137, 3232.331
774.7958, 3246.444
775.2779, 3249.086
775.7600, 3220.260
776.2421, 3172.813
776.7242, 3160.219
777.2064, 3222.044
777.6885, 3304.979
778.1706, 3354.488
778.6527, 3378.887
779.1348, 3392.508
779.6169, 3399.522
780.0991, 3416.627
780.5812, 3454.912
781.0633, 3497.455
781.5454, 3505.047
782.0275, 3470.858
782.5096, 3464.624
782.9918, 3497.331
783.4739, 3529.935
783.9560, 3543.504
784.4381, 3551.489
784.9202, 3576.042
785.4023, 3619.615
785.8845, 3648.818
786.3666, 3644.526
786.8487, 3647.642
787.3308, 3680.170
787.8129, 3718.507
788.2950, 3737.954
788.7772, 3740.531
789.2593, 3746.575
789.7414, 3767.681
790.2235, 3790.963
790.7056, 3808.938
791.1877, 3819.484
791.6699, 3811.215
792.1520, 3789.494
792.6341, 3781.409
793.1162, 3801.490
793.5983, 3837.722
794.0804, 3877.479
794.5626, 3919.717
795.0447, 3933.820
795.5268, 3914.305
796.0089, 3894.763
796.4910, 3886.651
796.9731, 3886.858
797.4553, 3892.206
797.9374, 3902.920
798.4195, 3915.061
798.9016, 3932.594
799.3837, 3946.027
799.8658, 3950.462
800.3480, 3953.409
800.8301, 3954.716
801.3122, 3959.129
801.7943, 3981.654
802.2764, 4036.167
802.7585, 4087.569
803.2407, 4116.985
803.7228, 4134.066
804.2049, 4148.870
804.6870, 4160.053
805.1691, 4157.102
805.6512, 4136.460
806.1334, 4120.946
806.6155, 4141.797
807.0976, 4186.390
807.5797, 4219.487
808.0618, 4241.490
808.5439, 4255.198
809.0261, 4260.146
809.5082, 4271.923
809.9903, 4309.167
810.4724, 4366.159
810.9545, 4401.229
811.4366, 4410.047
811.9188, 4408.126
812.4009, 4383.310
812.8830, 4367.489
813.3651, 4390.418
813.8472, 4436.043
814.3293, 4464.515
814.8115, 4464.264
815.2936, 4476.207
815.7757, 4518.726
816.2578, 4561.345
816.7399, 4587.019
817.2220, 4603.539
817.7042, 4618.917
818.1863, 4636.256
818.6684, 4664.392
819.1505, 4726.695
819.6326, 4785.752
820.1147, 4796.219
820.5969, 4779.785
821.0790, 4774.294
821.5611, 4786.343
822.0432, 4807.748
822.5253, 4833.622
823.0074, 4863.588
823.4896, 4900.134
823.9717, 4941.578
824.4538, 4967.792
824.9359, 4974.999
825.4180, 4996.234
825.9001, 5051.565
826.3823, 5115.873
826.8644, 5148.462
827.3465, 5145.197
827.8286, 5160.628
828.3107, 5212.921
828.7928, 5251.263
829.2749, 5251.125
829.7570, 5244.252
830.2391, 5253.475
830.7213, 5277.335
831.2034, 5308.822
831.6855, 5349.644
832.1676, 5393.649
832.6497, 5451.304
833.1318, 5500.093
833.6140, 5516.356
834.0961, 5513.613
834.5782, 5518.112
835.0603, 5537.548
835.5424, 5560.353
836.0245, 5576.248
836.5067, 5592.917
836.9888, 5622.933
837.4709, 5660.245
837.9530, 5686.206
838.4351, 5699.605
838.9172, 5726.418
839.3994, 5792.638
839.8815, 5870.343
840.3636, 5886.041
840.8457, 5848.491
841.3278, 5849.246
841.8099, 5901.366
842.2921, 5955.040
842.7742, 5983.379
843.2563, 5997.653
843.7384, 6018.166
844.2205, 6045.800
844.7026, 6071.515
845.1848, 6092.211
845.6669, 6117.742
846.1490, 6158.381
846.6311, 6197.520
847.1132, 6212.481
847.5953, 6208.495
848.0775, 6221.738
848.5596, 6270.923
849.0417, 6312.524
849.5238, 6339.583
850.0059, 6357.751
850.4880, 6361.486
850.9702, 6361.993
851.4523, 6381.537
851.9344, 6426.964
852.4165, 6468.543
852.8986, 6481.976
853.3807, 6493.463
853.8629, 6532.388
854.3450, 6582.223
854.8271, 6612.437
855.3092, 6620.227
855.7913, 6627.752
856.2734, 6651.030
856.7556, 6679.100
857.2377, 6690.827
857.7198, 6694.440
858.2019, 6719.636
858.6840, 6766.236
859.1661, 6805.853
859.6483, 6824.442
860.1304, 6832.119
860.6125, 6842.784
861.0946, 6856.183
861.5767, 6868.677
862.0588, 6879.756
862.5410, 6890.818
863.0231, 6897.270
863.5052, 6918.574
863.9873, 6980.200
864.4694, 7069.477
864.9515, 7123.446
865.4337, 7119.625
865.9158, 7126.133
866.3979, 7150.901
866.8800, 7178.874
867.3621, 7203.559
867.8442, 7227.580
868.3264, 7250.248
868.8085, 7270.099
869.2906, 7311.778
869.7727, 7415.780
870.2548, 7496.625
870.7369, 7512.844
871.2191, 7500.322
871.7012, 7478.336
872.1833, 7458.945
872.6654, 7467.174
873.1475, 7519.807
873.6296, 7572.852
874.1118, 7584.423
874.5939, 7592.073
875.0760, 7643.483
875.5581, 7720.973
876.0402, 7784.700
876.5223, 7822.768
877.0045, 7847.759
877.4866, 7869.780
877.9687, 7885.217
878.4508, 7875.087
878.9329, 7854.220
879.4150, 7877.039
879.8972, 7946.307
880.3793, 8012.610
880.8614, 8047.501
881.3435, 8065.413
881.8256, 8088.516
882.3077, 8116.678
882.7899, 8151.563
883.2720, 8195.416
883.7541, 8220.245
884.2362, 8212.432
884.7183, 8203.081
885.2004, 8223.586
885.6826, 8269.007
886.1647, 8310.620
886.6468, 8351.795
887.1289, 8378.479
887.6110, 8379.310
888.0931, 8382.747
888.5753, 8400.739
889.0574, 8431.657
889.5395, 8475.591
890.0216, 8536.269
890.5037, 8588.457
890.9858, 8637.080
891.4680, 8670.198
891.9501, 8678.988
892.4322, 8676.573
892.9143, 8660.407
893.3964, 8642.143
893.8785, 8657.294
894.3607, 8729.106
894.8428, 8790.146
895.3249, 8805.456
895.8070, 8816.394
896.2891, 8854.556
896.7712, 8904.479
897.2534, 8940.357
897.7355, 8959.246
898.2176, 8978.146
898.6997, 9004.801
899.1818, 9037.013
899.6639, 9082.285
900.1461, 9126.307
900.6282, 9138.286
901.1103, 9130.292
901.5924, 9147.705
902.0745, 9209.012
902.5566, 9281.929
903.0388, 9342.762
903.5209, 9386.593
904.0030, 9391.218
904.4851, 9370.438
904.9672, 9370.681
905.4493, 9401.108
905.9315, 9443.310
906.4136, 9485.009
906.8957, 9527.902
907.3778, 9577.741
907.8599, 9633.080
908.3420, 9683.933
908.8242, 9729.721
909.3063, 9745.383
909.7884, 9716.968
910.2705, 9688.149
910.7526, 9710.872
911.2347, 9776.123
911.7169, 9824.661
912.1990, 9850.558
912.6811, 9900.674
913.1632, 9998.134
913.6453, 10065.54
914.1274, 10046.00
914.6096, 9986.973
915.0917, 9977.894
915.5738, 10025.18
916.0559, 10079.47
916.5380, 10151.30
917.0201, 10210.29
917.5023, 10250.29
917.9844, 10273.76
918.4665, 10264.82
918.9486, 10240.14
919.4307, 10266.06
919.9128, 10377.18
920.3950, 10464.31
920.8771, 10524.38
921.3592, 10558.00
921.8413, 10536.10
922.3234, 10508.04
922.8055, 10529.85
923.2877, 10600.92
923.7698, 10678.31
924.2519, 10767.14
924.7340, 10841.96
925.2161, 10882.59
925.6982, 10919.72
926.1804, 10982.99
926.6625, 11055.58
927.1446, 11104.74
927.6267, 11123.52
928.1088, 11137.76
928.5909, 11147.85
929.0730, 11170.24
929.5551, 11226.16
930.0372, 11292.52
930.5193, 11341.11
931.0015, 11374.24
931.4836, 11408.53
931.9657, 11450.11
932.4478, 11496.40
932.9299, 11545.72
933.4120, 11598.40
933.8942, 11663.40
934.3763, 11729.72
934.8584, 11773.46
935.3405, 11794.03
935.8226, 11812.30
936.3047, 11841.79
936.7869, 11872.56
937.2690, 11887.51
937.7511, 11897.56
938.2332, 11933.01
938.7153, 11983.83
939.1974, 12002.82
939.6796, 11978.78
940.1617, 11959.41
940.6438, 11988.39
941.1259, 12046.51
941.6080, 12104.29
942.0901, 12157.84
942.5723, 12183.72
943.0544, 12184.00
943.5365, 12203.96
944.0186, 12264.83
944.5007, 12331.97
944.9828, 12360.58
945.4650, 12358.90
945.9471, 12352.62
946.4292, 12343.52
946.9113, 12378.26
947.3934, 12466.83
947.8755, 12545.97
948.3577, 12574.79
948.8398, 12582.23
949.3219, 12622.42
949.8040, 12694.49
950.2861, 12756.50
950.7682, 12807.72
951.2504, 12852.30
951.7325, 12887.47
952.2146, 12935.04
952.6967, 13016.60
953.1788, 13116.43
953.6609, 13190.04
954.1431, 13235.66
954.6252, 13258.18
955.1073, 13245.34
955.5894, 13250.18
956.0715, 13292.33
956.5536, 13354.84
957.0358, 13424.01
957.5179, 13498.18
958.0000, 13567.45
958.4821, 13632.79
958.9642, 13689.11
959.4464, 13726.47
959.9285, 13774.36
960.4106, 13848.95
960.8927, 13936.00
961.3748, 14019.35
961.8569, 14098.79
962.3391, 14177.08
962.8212, 14255.34
963.3033, 14330.54
963.7854, 14399.00
964.2675, 14468.79
964.7496, 14550.86
965.2318, 14632.87
965.7139, 14689.31
966.1960, 14714.37
966.6781, 14768.52
967.1602, 14879.35
967.6423, 14978.82
968.1245, 15046.66
968.6066, 15112.24
969.0887, 15192.76
969.5708, 15282.96
970.0529, 15375.66
970.5350, 15472.70
971.0172, 15558.54
971.4993, 15619.52
971.9814, 15686.02
972.4635, 15776.84
972.9456, 15865.63
973.4277, 15916.26
973.9099, 15951.82
974.3920, 16035.80
974.8741, 16191.04
975.3562, 16333.69
975.8383, 16453.48
976.3204, 16553.82
976.8026, 16612.55
977.2847, 16672.33
977.7668, 16783.42
978.2489, 16929.97
978.7310, 17048.99
979.2131, 17113.48
979.6953, 17198.73
980.1774, 17350.85
980.6595, 17495.88
981.1416, 17586.77
981.6237, 17660.84
982.1058, 17756.10
982.5880, 17873.51
983.0701, 17999.85
983.5522, 18143.68
984.0343, 18268.19
984.5164, 18343.82
984.9985, 18416.67
985.4807, 18520.71
985.9628, 18633.14
986.4449, 18719.24
986.9270, 18781.27
987.4091, 18854.79
987.8912, 18950.58
988.3734, 19059.32
988.8555, 19186.94
989.3376, 19316.56
989.8197, 19438.90
990.3018, 19554.64
990.7839, 19661.63
991.2661, 19762.60
991.7482, 19873.07
992.2303, 20004.59
992.7124, 20137.14
993.1945, 20267.96
993.6766, 20390.99
994.1588, 20486.73
994.6409, 20578.92
995.1230, 20709.73
995.6051, 20881.89
996.0872, 21046.64
996.5693, 21167.41
997.0515, 21300.78
997.5336, 21504.08
998.0157, 21702.05
998.4978, 21816.40
998.9799, 21887.73
999.4620, 21996.65
999.9442, 22155.44
1000.426, 22304.82
1000.908, 22402.05
1001.391, 22506.52
1001.873, 22654.02
1002.355, 22815.30
1002.837, 22974.62
1003.319, 23124.98
1003.801, 23252.98
1004.283, 23357.94
1004.765, 23472.38
1005.247, 23634.42
1005.730, 23781.05
1006.212, 23852.84
1006.694, 23921.76
1007.176, 24065.60
1007.658, 24251.67
1008.140, 24401.95
1008.622, 24501.80
1009.104, 24618.37
1009.586, 24800.10
1010.069, 24980.86
1010.551, 25123.88
1011.033, 25253.89
1011.515, 25401.13
1011.997, 25549.49
1012.479, 25639.06
1012.961, 25658.40
1013.443, 25773.32
1013.926, 26171.22
1014.408, 26525.94
1014.890, 26631.59
1015.372, 26675.97
1015.854, 26819.46
1016.336, 27029.61
1016.818, 27218.37
1017.300, 27369.28
1017.782, 27503.59
1018.265, 27582.09
1018.747, 27707.42
1019.229, 27970.56
1019.711, 28254.91
1020.193, 28455.68
1020.675, 28606.83
1021.157, 28786.03
1021.639, 29007.41
1022.122, 29234.07
1022.604, 29460.58
1023.086, 29681.47
1023.568, 29900.57
1024.050, 30108.73
1024.532, 30292.73
1025.014, 30464.06
1025.496, 30646.41
1025.978, 30842.93
1026.461, 31040.29
1026.943, 31198.93
1027.425, 31407.63
1027.907, 31761.75
1028.389, 32107.92
1028.871, 32306.78
1029.353, 32437.14
1029.835, 32646.04
1030.318, 32953.57
1030.800, 33242.70
1031.282, 33497.65
1031.764, 33727.61
1032.246, 33891.78
1032.728, 34077.69
1033.210, 34359.64
1033.692, 34689.60
1034.174, 34985.18
1034.656, 35240.43
1035.139, 35501.14
1035.621, 35776.78
1036.103, 36049.47
1036.585, 36323.53
1037.067, 36584.47
1037.549, 36791.70
1038.031, 36999.35
1038.513, 37316.30
1038.996, 37749.86
1039.478, 38076.79
1039.960, 38179.95
1040.442, 38365.66
1040.924, 38713.97
1041.406, 39071.95
1041.888, 39371.29
1042.370, 39640.89
1042.853, 39913.43
1043.335, 40190.31
1043.817, 40491.16
1044.299, 40836.06
1044.781, 41157.51
1045.263, 41449.18
1045.745, 41718.48
1046.227, 41945.70
1046.709, 42186.03
1047.192, 42519.40
1047.674, 42927.86
1048.156, 43257.34
1048.638, 43478.08
1049.120, 43715.49
1049.602, 43960.68
1050.084, 44276.73
1050.566, 44712.94
1051.048, 45171.71
1051.531, 45549.89
1052.013, 45868.47
1052.495, 46219.09
1052.977, 46609.99
1053.459, 46973.12
1053.941, 47297.81
1054.423, 47636.61
1054.905, 48006.79
1055.388, 48376.91
1055.870, 48706.39
1056.352, 49030.72
1056.834, 49471.02
1057.316, 50021.59
1057.798, 50433.29
1058.280, 50698.14
1058.762, 50985.65
1059.245, 51342.25
1059.727, 51769.39
1060.209, 52282.95
1060.691, 52811.73
1061.173, 53194.66
1061.655, 53473.18
1062.137, 53857.15
1062.619, 54336.65
1063.101, 54832.80
1063.583, 55328.31
1064.066, 55825.27
1064.548, 56330.39
1065.030, 56833.11
1065.512, 57316.73
1065.994, 57793.27
1066.476, 58267.88
1066.958, 58768.20
1067.440, 59397.19
1067.923, 60139.99
1068.405, 60849.02
1068.887, 61459.27
1069.369, 62029.70
1069.851, 62590.35
1070.333, 63170.06
1070.815, 63804.68
1071.297, 64485.89
1071.780, 65201.74
1072.262, 65946.04
1072.744, 66717.44
1073.226, 67509.21
1073.708, 68294.63
1074.190, 69029.91
1074.672, 69776.68
1075.154, 70589.09
1075.636, 71436.32
1076.119, 72295.90
1076.601, 73170.63
1077.083, 74072.88
1077.565, 75008.85
1078.047, 75974.30
1078.529, 76960.95
1079.011, 77995.65
1079.493, 79145.96
1079.975, 80288.88
1080.458, 81294.55
1080.940, 82270.16
1081.422, 83355.32
1081.904, 84552.97
1082.386, 85781.65
1082.868, 87040.09
1083.350, 88288.98
1083.832, 89462.85
1084.314, 90696.77
1084.797, 92079.29
1085.279, 93521.87
1085.761, 94934.09
1086.243, 96342.41
1086.725, 97880.46
1087.207, 99557.06
1087.689, 101329.9
1088.171, 103272.6
1088.654, 105172.4
1089.136, 106914.6
1089.618, 108730.0
1090.100, 110813.9
1090.582, 113055.3
1091.064, 115199.6
1091.546, 117236.8
1092.028, 119513.8
1092.510, 122080.2
1092.993, 124654.9
1093.475, 127163.0
1093.957, 129793.9
1094.439, 132630.7
1094.921, 135628.0
1095.403, 138689.9
1095.885, 141829.5
1096.367, 145037.8
1096.849, 148311.3
1097.332, 151739.7
1097.814, 155324.0
1098.296, 159156.3
1098.778, 163263.3
1099.260, 167393.2
1099.742, 171285.7
1100.224, 175235.4
1100.706, 179823.0
1101.189, 184848.1
1101.671, 189918.6
1102.153, 195012.2
1102.635, 200158.0
1103.117, 205430.6
1103.599, 211091.2
1104.081, 217362.7
1104.563, 223918.5
1105.046, 230319.8
1105.528, 236943.0
1106.010, 244230.5
1106.492, 252032.1
1106.974, 260092.0
1107.456, 268414.3
1107.938, 277014.0
1108.420, 285873.1
1108.902, 295181.7
1109.385, 305161.8
1109.867, 315381.9
1110.349, 325437.3
1110.831, 335803.7
1111.313, 346973.8
1111.795, 358722.3
1112.277, 370738.6
1112.759, 383003.6
1113.241, 395538.7
1113.724, 408445.6
1114.206, 421623.0
1114.688, 435190.5
1115.170, 448938.2
1115.652, 462967.2
1116.134, 477066.6
1116.616, 490873.4
1117.098, 504555.9
1117.581, 518721.0
1118.063, 533665.2
1118.545, 547897.7
1119.027, 561237.3
1119.509, 574546.9
1119.991, 588149.8
1120.473, 601270.1
1120.955, 613287.9
1121.438, 624532.1
1121.920, 635771.4
1122.402, 646892.0
1122.884, 657212.5
1123.366, 666690.8
1123.848, 674678.3
1124.330, 681175.4
1124.812, 686936.1
1125.294, 692336.4
1125.776, 696732.3
1126.259, 699482.1
1126.741, 700863.1
1127.223, 700926.1
1127.705, 700148.6
1128.187, 699683.5
1128.669, 699114.1
1129.151, 697081.9
1129.633, 693444.9
1130.116, 689356.6
1130.598, 685279.7
1131.080, 681376.4
1131.562, 678030.4
1132.044, 674581.4
1132.526, 670078.8
1133.008, 665561.4
1133.490, 662370.4
1133.973, 660269.9
1134.455, 658071.5
1134.937, 655404.8
1135.419, 653577.6
1135.901, 653002.7
1136.383, 653067.7
1136.865, 653709.7
1137.347, 654861.7
1137.829, 656388.1
1138.312, 658435.6
1138.794, 661188.2
1139.276, 664649.6
1139.758, 668837.1
1140.240, 673945.3
1140.722, 678988.1
1141.204, 683730.8
1141.686, 689208.8
1142.168, 695917.4
1142.651, 702613.6
1143.133, 708239.3
1143.615, 713374.9
1144.097, 719550.7
1144.579, 726465.8
1145.061, 732423.7
1145.543, 737480.8
1146.025, 741862.8
1146.508, 745637.8
1146.990, 748948.2
1147.472, 751844.4
1147.954, 753662.3
1148.436, 753580.7
1148.918, 752288.3
1149.400, 750571.5
1149.882, 748236.5
1150.365, 745446.6
1150.847, 741642.8
1151.329, 735362.1
1151.811, 726702.5
1152.293, 718026.4
1152.775, 710413.8
1153.257, 702282.1
1153.739, 692692.5
1154.221, 682729.8
1154.703, 672483.5
1155.186, 662452.8
1155.668, 653258.5
1156.150, 644625.4
1156.632, 635649.4
1157.114, 626114.4
1157.596, 617723.7
1158.078, 610647.8
1158.560, 604351.3
1159.043, 598795.7
1159.525, 593878.4
1160.007, 589394.0
1160.489, 585916.9
1160.971, 584146.4
1161.453, 583829.4
1161.935, 584067.3
1162.417, 584934.6
1162.900, 587123.8
1163.382, 590701.8
1163.864, 595933.8
1164.346, 602837.8
1164.828, 610817.4
1165.310, 619472.6
1165.792, 629777.7
1166.274, 642888.0
1166.756, 658217.4
1167.239, 674806.9
1167.721, 693012.3
1168.203, 713098.8
1168.685, 735206.3
1169.167, 759778.7
1169.649, 786748.6
1170.131, 815168.2
1170.613, 844125.7
1171.095, 875190.5
1171.578, 909679.9
1172.060, 945739.3
1172.542, 982571.4
1173.024, 1020481.
1173.506, 1059471.
1173.988, 1099812.
1174.470, 1141770.
1174.952, 1185777.
1175.434, 1228228.
1175.917, 1268833.
1176.399, 1308826.
1176.881, 1348501.
1177.363, 1386833.
1177.845, 1423572.
1178.327, 1457303.
1178.809, 1486182.
1179.291, 1510998.
1179.774, 1534097.
1180.256, 1554821.
1180.738, 1571725.
1181.220, 1584257.
1181.702, 1590824.
1182.184, 1591456.
1182.666, 1588128.
1183.148, 1581806.
1183.630, 1571355.
1184.113, 1555224.
1184.595, 1535269.
1185.077, 1512175.
1185.559, 1486642.
1186.041, 1459176.
1186.523, 1429813.
1187.005, 1398114.
1187.487, 1364182.
1187.969, 1330112.
1188.452, 1296614.
1188.934, 1262120.
1189.416, 1225965.
1189.898, 1189856.
1190.380, 1153920.
1190.862, 1119190.
1191.344, 1086558.
1191.826, 1055316.
1192.309, 1023871.
1192.791, 992395.4
1193.273, 962947.9
1193.755, 935486.1
1194.237, 909009.7
1194.719, 883219.4
1195.201, 857916.6
1195.683, 833065.7
1196.166, 809464.4
1196.648, 787647.6
1197.130, 766859.4
1197.612, 746236.8
1198.094, 726171.5
1198.576, 707060.3
1199.058, 688904.9
1199.540, 672229.3
1200.022, 656553.8
1200.505, 640798.1
1200.987, 624714.6
1201.469, 609548.8
1201.951, 596029.9
1202.433, 582895.6
1202.915, 569929.4
1203.397, 557285.6
1203.879, 544771.6
1204.361, 532918.4
1204.844, 522287.6
1205.326, 512554.8
1205.808, 502855.3
1206.290, 493207.9
1206.772, 483875.4
1207.254, 474836.6
1207.736, 466721.4
1208.218, 459537.1
1208.701, 452467.4
1209.183, 445228.9
1209.665, 438377.7
1210.147, 432443.7
1210.629, 426943.1
1211.111, 421246.7
1211.593, 415598.8
1212.075, 410239.0
1212.557, 405275.6
1213.040, 401022.3
1213.522, 397282.7
1214.004, 393364.4
1214.486, 389087.2
1214.968, 385301.9
1215.450, 382542.6
1215.932, 379906.9
1216.414, 377392.5
1216.896, 374707.6
1217.379, 371441.1
1217.861, 368320.3
1218.343, 366058.7
1218.825, 364368.1
1219.307, 362454.2
1219.789, 360323.0
1220.271, 358506.6
1220.753, 357007.7
1221.236, 355840.9
1221.718, 354982.0
1222.200, 354200.5
1222.682, 353412.0
1223.164, 352731.5
1223.646, 352264.9
1224.128, 351897.8
1224.610, 351496.6
1225.093, 351133.9
1225.575, 350817.5
1226.057, 350645.2
1226.539, 350805.6
1227.021, 351205.2
1227.503, 351585.8
1227.985, 351904.7
1228.467, 352201.6
1228.949, 352279.6
1229.432, 352716.2
1229.914, 353913.5
1230.396, 354756.5
1230.878, 354669.7
1231.360, 354622.9
1231.842, 355461.7
1232.324, 356710.9
1232.806, 357470.9
1233.288, 357785.7
1233.771, 357754.5
1234.253, 357515.9
1234.735, 357883.3
1235.217, 358723.9
1235.699, 359048.3
1236.181, 358641.3
1236.663, 358281.3
1237.145, 358484.4
1237.628, 358598.2
1238.110, 358148.5
1238.592, 357458.1
1239.074, 356627.3
1239.556, 355767.7
1240.038, 355037.9
1240.520, 354318.5
1241.002, 353346.3
1241.484, 352137.7
1241.967, 350975.6
1242.449, 349923.9
1242.931, 348671.2
1243.413, 347175.5
1243.895, 345671.3
1244.377, 344215.1
1244.859, 342838.3
1245.341, 341569.3
1245.823, 340325.6
1246.306, 339034.6
1246.788, 337646.3
1247.270, 335929.0
1247.752, 334174.3
1248.234, 332965.4
1248.716, 332066.1
1249.198, 331004.8
1249.680, 329719.5
1250.163, 328313.7
1250.645, 326754.8
1251.127, 325445.8
1251.609, 324806.6
1252.091, 323929.2
1252.573, 322455.1
1253.055, 320970.4
1253.537, 319651.1
1254.020, 318570.3
1254.502, 317863.5
1254.984, 317358.5
1255.466, 316561.8
1255.948, 315537.0
1256.430, 314826.0
1256.912, 314365.4
1257.394, 313833.2
1257.876, 313213.0
1258.359, 312580.4
1258.841, 311991.9
1259.323, 311669.6
1259.805, 311839.1
1260.287, 312016.7
##END=



