##NAMES=Szaibelyite
##RRUFFID=R060372
##IDEAL CHEMISTRY=MgBO_2_(OH)
##LOCALITY=Blind Mountain, Pioche, Lincoln County, Nevada, USA
##OWNER=RRUFF
##SOURCE=Michael Scott
##DESCRIPTION=White silky fibers in radial mats
##STATUS=The identification of this mineral is not yet confirmed.
##URL=rruff.info/R060372
8.806445e+001, 3.311878e+001
8.854657e+001, 3.240424e+001
8.902869e+001, 3.215754e+001
8.951080e+001, 3.257382e+001
8.999292e+001, 3.336820e+001
9.047504e+001, 3.432034e+001
9.095715e+001, 3.541499e+001
9.143927e+001, 3.649922e+001
9.192139e+001, 3.732987e+001
9.240350e+001, 3.791273e+001
9.288562e+001, 3.848622e+001
9.336774e+001, 3.896792e+001
9.384985e+001, 3.906378e+001
9.433197e+001, 3.849731e+001
9.481409e+001, 3.756313e+001
9.529620e+001, 3.653680e+001
9.577832e+001, 3.588212e+001
9.626044e+001, 3.566539e+001
9.674255e+001, 3.554409e+001
9.722467e+001, 3.502282e+001
9.770679e+001, 3.385991e+001
9.818890e+001, 3.302713e+001
9.867102e+001, 3.280127e+001
9.915314e+001, 3.283125e+001
9.963525e+001, 3.283062e+001
1.001174e+002, 3.266719e+001
1.005995e+002, 3.242012e+001
1.010816e+002, 3.238530e+001
1.015637e+002, 3.294431e+001
1.020458e+002, 3.331223e+001
1.025280e+002, 3.329483e+001
1.030101e+002, 3.302452e+001
1.034922e+002, 3.270536e+001
1.039743e+002, 3.246434e+001
1.044564e+002, 3.230246e+001
1.049385e+002, 3.232087e+001
1.054207e+002, 3.267369e+001
1.059028e+002, 3.302707e+001
1.063849e+002, 3.322171e+001
1.068670e+002, 3.324734e+001
1.073491e+002, 3.315508e+001
1.078312e+002, 3.291059e+001
1.083134e+002, 3.253567e+001
1.087955e+002, 3.238455e+001
1.092776e+002, 3.262394e+001
1.097597e+002, 3.307522e+001
1.102418e+002, 3.343573e+001
1.107239e+002, 3.356952e+001
1.112061e+002, 3.384852e+001
1.116882e+002, 3.473414e+001
1.121703e+002, 3.609715e+001
1.126524e+002, 3.735926e+001
1.131345e+002, 3.830444e+001
1.136166e+002, 3.892323e+001
1.140988e+002, 3.900496e+001
1.145809e+002, 3.805064e+001
1.150630e+002, 3.689996e+001
1.155451e+002, 3.583158e+001
1.160272e+002, 3.492338e+001
1.165093e+002, 3.434669e+001
1.169915e+002, 3.436662e+001
1.174736e+002, 3.519855e+001
1.179557e+002, 3.609569e+001
1.184378e+002, 3.706713e+001
1.189199e+002, 3.803374e+001
1.194020e+002, 3.911853e+001
1.198842e+002, 4.031665e+001
1.203663e+002, 4.129955e+001
1.208484e+002, 4.131685e+001
1.213305e+002, 3.935811e+001
1.218126e+002, 3.744535e+001
1.222947e+002, 3.548758e+001
1.227769e+002, 3.364379e+001
1.232590e+002, 3.210682e+001
1.237411e+002, 3.096506e+001
1.242232e+002, 3.020694e+001
1.247053e+002, 2.978423e+001
1.251874e+002, 2.992501e+001
1.256696e+002, 3.007021e+001
1.261517e+002, 2.992667e+001
1.266338e+002, 2.957804e+001
1.271159e+002, 2.938329e+001
1.275980e+002, 2.962192e+001
1.280801e+002, 3.018979e+001
1.285623e+002, 3.064758e+001
1.290444e+002, 3.087060e+001
1.295265e+002, 3.105575e+001
1.300086e+002, 3.143469e+001
1.304907e+002, 3.205079e+001
1.309728e+002, 3.263803e+001
1.314550e+002, 3.294988e+001
1.319371e+002, 3.313671e+001
1.324192e+002, 3.339340e+001
1.329013e+002, 3.378710e+001
1.333834e+002, 3.430767e+001
1.338655e+002, 3.493521e+001
1.343477e+002, 3.571907e+001
1.348298e+002, 3.654995e+001
1.353119e+002, 3.738210e+001
1.357940e+002, 3.821623e+001
1.362761e+002, 3.907206e+001
1.367582e+002, 4.004234e+001
1.372404e+002, 4.113810e+001
1.377225e+002, 4.176374e+001
1.382046e+002, 4.180368e+001
1.386867e+002, 4.143876e+001
1.391688e+002, 4.053176e+001
1.396509e+002, 3.920353e+001
1.401331e+002, 3.774752e+001
1.406152e+002, 3.642425e+001
1.410973e+002, 3.521423e+001
1.415794e+002, 3.429604e+001
1.420615e+002, 3.384355e+001
1.425436e+002, 3.348749e+001
1.430258e+002, 3.294425e+001
1.435079e+002, 3.218753e+001
1.439900e+002, 3.145827e+001
1.444721e+002, 3.110565e+001
1.449542e+002, 3.134805e+001
1.454363e+002, 3.142823e+001
1.459185e+002, 3.122584e+001
1.464006e+002, 3.088586e+001
1.468827e+002, 3.056175e+001
1.473648e+002, 3.029357e+001
1.478469e+002, 3.006563e+001
1.483290e+002, 2.984796e+001
1.488112e+002, 2.962747e+001
1.492933e+002, 2.946462e+001
1.497754e+002, 2.943631e+001
1.502575e+002, 2.949107e+001
1.507396e+002, 2.946653e+001
1.512217e+002, 2.927358e+001
1.517039e+002, 2.902845e+001
1.521860e+002, 2.886491e+001
1.526681e+002, 2.878265e+001
1.531502e+002, 2.877437e+001
1.536323e+002, 2.886080e+001
1.541144e+002, 2.904516e+001
1.545966e+002, 2.921728e+001
1.550787e+002, 2.928155e+001
1.555608e+002, 2.936457e+001
1.560429e+002, 2.956577e+001
1.565250e+002, 2.990856e+001
1.570071e+002, 3.031663e+001
1.574893e+002, 3.070520e+001
1.579714e+002, 3.110451e+001
1.584535e+002, 3.139261e+001
1.589356e+002, 3.161478e+001
1.594177e+002, 3.170308e+001
1.598998e+002, 3.156844e+001
1.603820e+002, 3.117968e+001
1.608641e+002, 3.062005e+001
1.613462e+002, 3.008513e+001
1.618283e+002, 2.959607e+001
1.623104e+002, 2.910428e+001
1.627925e+002, 2.853143e+001
1.632747e+002, 2.797957e+001
1.637568e+002, 2.756331e+001
1.642389e+002, 2.734400e+001
1.647210e+002, 2.728101e+001
1.652031e+002, 2.721159e+001
1.656852e+002, 2.714884e+001
1.661674e+002, 2.706513e+001
1.666495e+002, 2.691236e+001
1.671316e+002, 2.673830e+001
1.676137e+002, 2.663684e+001
1.680958e+002, 2.667342e+001
1.685779e+002, 2.681693e+001
1.690601e+002, 2.686663e+001
1.695422e+002, 2.678982e+001
1.700243e+002, 2.667670e+001
1.705064e+002, 2.651360e+001
1.709885e+002, 2.632729e+001
1.714706e+002, 2.622274e+001
1.719528e+002, 2.628965e+001
1.724349e+002, 2.649352e+001
1.729170e+002, 2.664076e+001
1.733991e+002, 2.667153e+001
1.738812e+002, 2.669396e+001
1.743633e+002, 2.679347e+001
1.748455e+002, 2.697158e+001
1.753276e+002, 2.717511e+001
1.758097e+002, 2.740594e+001
1.762918e+002, 2.763323e+001
1.767739e+002, 2.779030e+001
1.772560e+002, 2.776587e+001
1.777382e+002, 2.773388e+001
1.782203e+002, 2.800152e+001
1.787024e+002, 2.868453e+001
1.791845e+002, 2.927876e+001
1.796666e+002, 2.941442e+001
1.801487e+002, 2.932763e+001
1.806309e+002, 2.931700e+001
1.811130e+002, 2.955688e+001
1.815951e+002, 2.992585e+001
1.820772e+002, 3.008894e+001
1.825593e+002, 2.995107e+001
1.830414e+002, 2.974387e+001
1.835236e+002, 2.951096e+001
1.840057e+002, 2.928155e+001
1.844878e+002, 2.910939e+001
1.849699e+002, 2.905054e+001
1.854520e+002, 2.906890e+001
1.859341e+002, 2.893023e+001
1.864163e+002, 2.850478e+001
1.868984e+002, 2.804957e+001
1.873805e+002, 2.748041e+001
1.878626e+002, 2.693238e+001
1.883447e+002, 2.665002e+001
1.888268e+002, 2.684744e+001
1.893090e+002, 2.750112e+001
1.897911e+002, 2.781035e+001
1.902732e+002, 2.738365e+001
1.907553e+002, 2.701085e+001
1.912374e+002, 2.692945e+001
1.917195e+002, 2.707664e+001
1.922017e+002, 2.726881e+001
1.926838e+002, 2.736608e+001
1.931659e+002, 2.736395e+001
1.936480e+002, 2.739582e+001
1.941301e+002, 2.753949e+001
1.946122e+002, 2.763684e+001
1.950944e+002, 2.756368e+001
1.955765e+002, 2.736506e+001
1.960586e+002, 2.722039e+001
1.965407e+002, 2.730590e+001
1.970228e+002, 2.762950e+001
1.975049e+002, 2.771117e+001
1.979871e+002, 2.731778e+001
1.984692e+002, 2.689960e+001
1.989513e+002, 2.673893e+001
1.994334e+002, 2.683794e+001
1.999155e+002, 2.702143e+001
2.003976e+002, 2.714557e+001
2.008798e+002, 2.722676e+001
2.013619e+002, 2.741950e+001
2.018440e+002, 2.779990e+001
2.023261e+002, 2.824936e+001
2.028082e+002, 2.866026e+001
2.032903e+002, 2.902332e+001
2.037725e+002, 2.939450e+001
2.042546e+002, 2.977663e+001
2.047367e+002, 3.019817e+001
2.052188e+002, 3.074613e+001
2.057009e+002, 3.149893e+001
2.061830e+002, 3.236443e+001
2.066652e+002, 3.321320e+001
2.071473e+002, 3.403010e+001
2.076294e+002, 3.488506e+001
2.081115e+002, 3.586667e+001
2.085936e+002, 3.691252e+001
2.090757e+002, 3.796185e+001
2.095579e+002, 3.927794e+001
2.100400e+002, 4.046714e+001
2.105221e+002, 4.067646e+001
2.110042e+002, 3.964273e+001
2.114863e+002, 3.817456e+001
2.119685e+002, 3.650433e+001
2.124506e+002, 3.473757e+001
2.129327e+002, 3.301764e+001
2.134148e+002, 3.134546e+001
2.138969e+002, 2.978807e+001
2.143790e+002, 2.858151e+001
2.148612e+002, 2.783858e+001
2.153433e+002, 2.729189e+001
2.158254e+002, 2.686340e+001
2.163075e+002, 2.653088e+001
2.167896e+002, 2.627062e+001
2.172717e+002, 2.608256e+001
2.177539e+002, 2.594935e+001
2.182360e+002, 2.579124e+001
2.187181e+002, 2.553383e+001
2.192002e+002, 2.535688e+001
2.196823e+002, 2.536633e+001
2.201644e+002, 2.546372e+001
2.206466e+002, 2.549961e+001
2.211287e+002, 2.537257e+001
2.216108e+002, 2.512947e+001
2.220929e+002, 2.504084e+001
2.225750e+002, 2.525526e+001
2.230571e+002, 2.547621e+001
2.235393e+002, 2.566320e+001
2.240214e+002, 2.582370e+001
2.245035e+002, 2.599505e+001
2.249856e+002, 2.620789e+001
2.254677e+002, 2.642923e+001
2.259498e+002, 2.644127e+001
2.264320e+002, 2.596154e+001
2.269141e+002, 2.557493e+001
2.273962e+002, 2.535936e+001
2.278783e+002, 2.530132e+001
2.283604e+002, 2.539199e+001
2.288425e+002, 2.563979e+001
2.293247e+002, 2.600337e+001
2.298068e+002, 2.624373e+001
2.302889e+002, 2.637869e+001
2.307710e+002, 2.638353e+001
2.312531e+002, 2.608966e+001
2.317352e+002, 2.567500e+001
2.322174e+002, 2.547517e+001
2.326995e+002, 2.569517e+001
2.331816e+002, 2.621330e+001
2.336637e+002, 2.648500e+001
2.341458e+002, 2.630309e+001
2.346279e+002, 2.616365e+001
2.351101e+002, 2.628599e+001
2.355922e+002, 2.653458e+001
2.360743e+002, 2.661961e+001
2.365564e+002, 2.637616e+001
2.370385e+002, 2.591936e+001
2.375206e+002, 2.562895e+001
2.380028e+002, 2.554373e+001
2.384849e+002, 2.551418e+001
2.389670e+002, 2.548914e+001
2.394491e+002, 2.548326e+001
2.399312e+002, 2.555078e+001
2.404133e+002, 2.574656e+001
2.408955e+002, 2.597839e+001
2.413776e+002, 2.601702e+001
2.418597e+002, 2.576661e+001
2.423418e+002, 2.559263e+001
2.428239e+002, 2.570680e+001
2.433060e+002, 2.602201e+001
2.437882e+002, 2.630824e+001
2.442703e+002, 2.649774e+001
2.447524e+002, 2.659905e+001
2.452345e+002, 2.660922e+001
2.457166e+002, 2.650294e+001
2.461987e+002, 2.643952e+001
2.466809e+002, 2.655346e+001
2.471630e+002, 2.678340e+001
2.476451e+002, 2.689486e+001
2.481272e+002, 2.672639e+001
2.486093e+002, 2.655838e+001
2.490914e+002, 2.678266e+001
2.495736e+002, 2.740682e+001
2.500557e+002, 2.796026e+001
2.505378e+002, 2.813507e+001
2.510199e+002, 2.800905e+001
2.515020e+002, 2.789046e+001
2.519841e+002, 2.780011e+001
2.524663e+002, 2.778963e+001
2.529484e+002, 2.792112e+001
2.534305e+002, 2.817901e+001
2.539126e+002, 2.843456e+001
2.543947e+002, 2.862452e+001
2.548768e+002, 2.875266e+001
2.553590e+002, 2.882384e+001
2.558411e+002, 2.879873e+001
2.563232e+002, 2.877160e+001
2.568053e+002, 2.885968e+001
2.572874e+002, 2.901706e+001
2.577695e+002, 2.907769e+001
2.582516e+002, 2.893328e+001
2.587338e+002, 2.860227e+001
2.592159e+002, 2.816898e+001
2.596980e+002, 2.752574e+001
2.601801e+002, 2.694104e+001
2.606622e+002, 2.657193e+001
2.611443e+002, 2.635985e+001
2.616265e+002, 2.617272e+001
2.621086e+002, 2.591693e+001
2.625907e+002, 2.562076e+001
2.630728e+002, 2.541099e+001
2.635549e+002, 2.525678e+001
2.640370e+002, 2.525497e+001
2.645192e+002, 2.555532e+001
2.650013e+002, 2.599244e+001
2.654834e+002, 2.629499e+001
2.659655e+002, 2.629421e+001
2.664476e+002, 2.606800e+001
2.669297e+002, 2.588699e+001
2.674119e+002, 2.576043e+001
2.678940e+002, 2.567160e+001
2.683761e+002, 2.569031e+001
2.688582e+002, 2.571507e+001
2.693403e+002, 2.559988e+001
2.698224e+002, 2.525403e+001
2.703046e+002, 2.477819e+001
2.707867e+002, 2.444657e+001
2.712688e+002, 2.430100e+001
2.717509e+002, 2.424192e+001
2.722330e+002, 2.427186e+001
2.727151e+002, 2.434845e+001
2.731973e+002, 2.443862e+001
2.736794e+002, 2.453022e+001
2.741615e+002, 2.461164e+001
2.746436e+002, 2.465250e+001
2.751257e+002, 2.461323e+001
2.756078e+002, 2.461186e+001
2.760900e+002, 2.469291e+001
2.765721e+002, 2.479321e+001
2.770542e+002, 2.484875e+001
2.775363e+002, 2.484420e+001
2.780184e+002, 2.483025e+001
2.785005e+002, 2.490392e+001
2.789827e+002, 2.513827e+001
2.794648e+002, 2.529495e+001
2.799469e+002, 2.535453e+001
2.804290e+002, 2.535324e+001
2.809111e+002, 2.531201e+001
2.813932e+002, 2.523552e+001
2.818754e+002, 2.511588e+001
2.823575e+002, 2.491816e+001
2.828396e+002, 2.455988e+001
2.833217e+002, 2.437124e+001
2.838038e+002, 2.442253e+001
2.842859e+002, 2.455964e+001
2.847681e+002, 2.469102e+001
2.852502e+002, 2.482058e+001
2.857323e+002, 2.502200e+001
2.862144e+002, 2.538974e+001
2.866965e+002, 2.596954e+001
2.871786e+002, 2.645423e+001
2.876608e+002, 2.681239e+001
2.881429e+002, 2.711734e+001
2.886250e+002, 2.736302e+001
2.891071e+002, 2.757492e+001
2.895892e+002, 2.780695e+001
2.900714e+002, 2.810836e+001
2.905535e+002, 2.847940e+001
2.910356e+002, 2.882600e+001
2.915177e+002, 2.908258e+001
2.919998e+002, 2.938197e+001
2.924819e+002, 2.986142e+001
2.929641e+002, 3.040563e+001
2.934462e+002, 3.079726e+001
2.939283e+002, 3.088984e+001
2.944104e+002, 3.072513e+001
2.948925e+002, 3.059422e+001
2.953746e+002, 3.071804e+001
2.958568e+002, 3.062247e+001
2.963389e+002, 3.009302e+001
2.968210e+002, 2.934031e+001
2.973031e+002, 2.864093e+001
2.977852e+002, 2.812510e+001
2.982673e+002, 2.774963e+001
2.987495e+002, 2.739127e+001
2.992316e+002, 2.703518e+001
2.997137e+002, 2.671503e+001
3.001958e+002, 2.641424e+001
3.006779e+002, 2.615614e+001
3.011600e+002, 2.597920e+001
3.016422e+002, 2.589157e+001
3.021243e+002, 2.584680e+001
3.026064e+002, 2.576173e+001
3.030885e+002, 2.561219e+001
3.035706e+002, 2.546108e+001
3.040527e+002, 2.524580e+001
3.045349e+002, 2.507004e+001
3.050170e+002, 2.505341e+001
3.054991e+002, 2.519572e+001
3.059812e+002, 2.535968e+001
3.064633e+002, 2.536956e+001
3.069454e+002, 2.516137e+001
3.074276e+002, 2.501899e+001
3.079097e+002, 2.500938e+001
3.083918e+002, 2.499812e+001
3.088739e+002, 2.488115e+001
3.093560e+002, 2.468084e+001
3.098381e+002, 2.451298e+001
3.103203e+002, 2.448426e+001
3.108024e+002, 2.460635e+001
3.112845e+002, 2.469015e+001
3.117666e+002, 2.466426e+001
3.122487e+002, 2.467844e+001
3.127308e+002, 2.482661e+001
3.132130e+002, 2.505667e+001
3.136951e+002, 2.523947e+001
3.141772e+002, 2.528208e+001
3.146593e+002, 2.522045e+001
3.151414e+002, 2.530509e+001
3.156235e+002, 2.573920e+001
3.161057e+002, 2.608591e+001
3.165878e+002, 2.618163e+001
3.170699e+002, 2.617431e+001
3.175520e+002, 2.625324e+001
3.180341e+002, 2.650283e+001
3.185162e+002, 2.689899e+001
3.189984e+002, 2.737830e+001
3.194805e+002, 2.797502e+001
3.199626e+002, 2.862278e+001
3.204447e+002, 2.936833e+001
3.209268e+002, 3.013681e+001
3.214089e+002, 3.086677e+001
3.218911e+002, 3.154107e+001
3.223732e+002, 3.217316e+001
3.228553e+002, 3.280687e+001
3.233374e+002, 3.354942e+001
3.238195e+002, 3.398699e+001
3.243016e+002, 3.414962e+001
3.247838e+002, 3.403121e+001
3.252659e+002, 3.355804e+001
3.257480e+002, 3.276856e+001
3.262301e+002, 3.181988e+001
3.267122e+002, 3.084865e+001
3.271943e+002, 2.985667e+001
3.276765e+002, 2.885661e+001
3.281586e+002, 2.772901e+001
3.286407e+002, 2.671525e+001
3.291228e+002, 2.590870e+001
3.296049e+002, 2.528731e+001
3.300870e+002, 2.478229e+001
3.305692e+002, 2.434880e+001
3.310513e+002, 2.398926e+001
3.315334e+002, 2.372973e+001
3.320155e+002, 2.354950e+001
3.324976e+002, 2.350178e+001
3.329797e+002, 2.373254e+001
3.334619e+002, 2.405833e+001
3.339440e+002, 2.424578e+001
3.344261e+002, 2.419030e+001
3.349082e+002, 2.397026e+001
3.353904e+002, 2.376821e+001
3.358725e+002, 2.359644e+001
3.363546e+002, 2.342728e+001
3.368367e+002, 2.314514e+001
3.373188e+002, 2.293402e+001
3.378009e+002, 2.300289e+001
3.382831e+002, 2.336697e+001
3.387652e+002, 2.381419e+001
3.392473e+002, 2.405552e+001
3.397294e+002, 2.401950e+001
3.402115e+002, 2.399759e+001
3.406936e+002, 2.393799e+001
3.411758e+002, 2.393462e+001
3.416579e+002, 2.407172e+001
3.421400e+002, 2.431765e+001
3.426221e+002, 2.457991e+001
3.431042e+002, 2.481096e+001
3.435863e+002, 2.501036e+001
3.440685e+002, 2.491509e+001
3.445506e+002, 2.401168e+001
3.450327e+002, 2.332708e+001
3.455148e+002, 2.322551e+001
3.459969e+002, 2.346929e+001
3.464790e+002, 2.367851e+001
3.469612e+002, 2.364785e+001
3.474433e+002, 2.344210e+001
3.479254e+002, 2.326805e+001
3.484075e+002, 2.318183e+001
3.488896e+002, 2.303393e+001
3.493717e+002, 2.276931e+001
3.498539e+002, 2.246292e+001
3.503360e+002, 2.216707e+001
3.508181e+002, 2.190194e+001
3.513002e+002, 2.167054e+001
3.517823e+002, 2.145984e+001
3.522644e+002, 2.123138e+001
3.527466e+002, 2.115501e+001
3.532287e+002, 2.140404e+001
3.537108e+002, 2.166952e+001
3.541929e+002, 2.178756e+001
3.546750e+002, 2.176265e+001
3.551571e+002, 2.170313e+001
3.556393e+002, 2.171724e+001
3.561214e+002, 2.180403e+001
3.566035e+002, 2.178947e+001
3.570856e+002, 2.150995e+001
3.575677e+002, 2.132837e+001
3.580498e+002, 2.148870e+001
3.585320e+002, 2.181368e+001
3.590141e+002, 2.197473e+001
3.594962e+002, 2.174691e+001
3.599783e+002, 2.131390e+001
3.604604e+002, 2.119949e+001
3.609425e+002, 2.157230e+001
3.614247e+002, 2.187069e+001
3.619068e+002, 2.187053e+001
3.623889e+002, 2.175869e+001
3.628710e+002, 2.170401e+001
3.633531e+002, 2.175397e+001
3.638352e+002, 2.181664e+001
3.643174e+002, 2.173572e+001
3.647995e+002, 2.148154e+001
3.652816e+002, 2.140084e+001
3.657637e+002, 2.179565e+001
3.662458e+002, 2.216406e+001
3.667279e+002, 2.212558e+001
3.672101e+002, 2.172217e+001
3.676922e+002, 2.131147e+001
3.681743e+002, 2.119024e+001
3.686564e+002, 2.128126e+001
3.691385e+002, 2.120608e+001
3.696206e+002, 2.084338e+001
3.701028e+002, 2.052399e+001
3.705849e+002, 2.043463e+001
3.710670e+002, 2.052029e+001
3.715491e+002, 2.071886e+001
3.720312e+002, 2.111821e+001
3.725133e+002, 2.150954e+001
3.729955e+002, 2.153137e+001
3.734776e+002, 2.113836e+001
3.739597e+002, 2.081764e+001
3.744418e+002, 2.083587e+001
3.749239e+002, 2.100093e+001
3.754060e+002, 2.105392e+001
3.758882e+002, 2.094252e+001
3.763703e+002, 2.085489e+001
3.768524e+002, 2.096403e+001
3.773345e+002, 2.121743e+001
3.778166e+002, 2.139988e+001
3.782987e+002, 2.145801e+001
3.787809e+002, 2.143978e+001
3.792630e+002, 2.137097e+001
3.797451e+002, 2.125916e+001
3.802272e+002, 2.117651e+001
3.807093e+002, 2.113319e+001
3.811914e+002, 2.113821e+001
3.816736e+002, 2.123779e+001
3.821557e+002, 2.143963e+001
3.826378e+002, 2.160421e+001
3.831199e+002, 2.160841e+001
3.836020e+002, 2.148710e+001
3.840841e+002, 2.142199e+001
3.845663e+002, 2.146590e+001
3.850484e+002, 2.151739e+001
3.855305e+002, 2.146138e+001
3.860126e+002, 2.135535e+001
3.864947e+002, 2.141236e+001
3.869768e+002, 2.176244e+001
3.874590e+002, 2.223559e+001
3.879411e+002, 2.245089e+001
3.884232e+002, 2.234240e+001
3.889053e+002, 2.223773e+001
3.893874e+002, 2.218493e+001
3.898695e+002, 2.217740e+001
3.903517e+002, 2.222524e+001
3.908338e+002, 2.232706e+001
3.913159e+002, 2.243266e+001
3.917980e+002, 2.249706e+001
3.922801e+002, 2.251792e+001
3.927622e+002, 2.248321e+001
3.932444e+002, 2.230416e+001
3.937265e+002, 2.215843e+001
3.942086e+002, 2.218034e+001
3.946907e+002, 2.231388e+001
3.951728e+002, 2.240170e+001
3.956549e+002, 2.234837e+001
3.961371e+002, 2.219039e+001
3.966192e+002, 2.207530e+001
3.971013e+002, 2.193528e+001
3.975834e+002, 2.192834e+001
3.980655e+002, 2.216971e+001
3.985476e+002, 2.249741e+001
3.990298e+002, 2.274720e+001
3.995119e+002, 2.287681e+001
3.999940e+002, 2.296399e+001
4.004761e+002, 2.313014e+001
4.009582e+002, 2.345234e+001
4.014403e+002, 2.357277e+001
4.019225e+002, 2.330795e+001
4.024046e+002, 2.304209e+001
4.028867e+002, 2.297586e+001
4.033688e+002, 2.305943e+001
4.038509e+002, 2.311872e+001
4.043330e+002, 2.302088e+001
4.048152e+002, 2.281183e+001
4.052973e+002, 2.277411e+001
4.057794e+002, 2.316836e+001
4.062615e+002, 2.333334e+001
4.067436e+002, 2.295972e+001
4.072257e+002, 2.241591e+001
4.077079e+002, 2.208844e+001
4.081900e+002, 2.209151e+001
4.086721e+002, 2.222277e+001
4.091542e+002, 2.218369e+001
4.096363e+002, 2.192356e+001
4.101184e+002, 2.178257e+001
4.106006e+002, 2.198854e+001
4.110827e+002, 2.214490e+001
4.115648e+002, 2.200832e+001
4.120469e+002, 2.163519e+001
4.125290e+002, 2.125142e+001
4.130111e+002, 2.098419e+001
4.134933e+002, 2.081973e+001
4.139754e+002, 2.072155e+001
4.144575e+002, 2.070318e+001
4.149396e+002, 2.071600e+001
4.154217e+002, 2.079605e+001
4.159038e+002, 2.087231e+001
4.163860e+002, 2.083072e+001
4.168681e+002, 2.060189e+001
4.173502e+002, 2.039434e+001
4.178323e+002, 2.047255e+001
4.183144e+002, 2.079402e+001
4.187965e+002, 2.098733e+001
4.192787e+002, 2.093480e+001
4.197608e+002, 2.075820e+001
4.202429e+002, 2.055753e+001
4.207250e+002, 2.033744e+001
4.212071e+002, 2.017971e+001
4.216892e+002, 2.010900e+001
4.221714e+002, 2.011733e+001
4.226535e+002, 2.023109e+001
4.231356e+002, 2.045230e+001
4.236177e+002, 2.064533e+001
4.240998e+002, 2.072572e+001
4.245819e+002, 2.069896e+001
4.250641e+002, 2.062299e+001
4.255462e+002, 2.041424e+001
4.260283e+002, 2.026133e+001
4.265104e+002, 2.027297e+001
4.269925e+002, 2.039352e+001
4.274746e+002, 2.053689e+001
4.279568e+002, 2.068198e+001
4.284389e+002, 2.078243e+001
4.289210e+002, 2.075523e+001
4.294031e+002, 2.051832e+001
4.298852e+002, 2.038863e+001
4.303673e+002, 2.045839e+001
4.308495e+002, 2.056173e+001
4.313316e+002, 2.056273e+001
4.318137e+002, 2.048091e+001
4.322958e+002, 2.044231e+001
4.327779e+002, 2.054639e+001
4.332600e+002, 2.076899e+001
4.337422e+002, 2.091170e+001
4.342243e+002, 2.090518e+001
4.347064e+002, 2.089772e+001
4.351885e+002, 2.094735e+001
4.356706e+002, 2.098551e+001
4.361527e+002, 2.090392e+001
4.366349e+002, 2.068253e+001
4.371170e+002, 2.044492e+001
4.375991e+002, 2.039264e+001
4.380812e+002, 2.061368e+001
4.385633e+002, 2.069510e+001
4.390454e+002, 2.043560e+001
4.395276e+002, 2.022436e+001
4.400097e+002, 2.026804e+001
4.404918e+002, 2.048414e+001
4.409739e+002, 2.066113e+001
4.414560e+002, 2.065607e+001
4.419381e+002, 2.053974e+001
4.424203e+002, 2.053103e+001
4.429024e+002, 2.068604e+001
4.433845e+002, 2.079927e+001
4.438666e+002, 2.073590e+001
4.443487e+002, 2.064881e+001
4.448308e+002, 2.069883e+001
4.453130e+002, 2.091220e+001
4.457951e+002, 2.108415e+001
4.462772e+002, 2.098288e+001
4.467593e+002, 2.067207e+001
4.472414e+002, 2.048835e+001
4.477235e+002, 2.049475e+001
4.482057e+002, 2.057885e+001
4.486878e+002, 2.070621e+001
4.491699e+002, 2.084724e+001
4.496520e+002, 2.092165e+001
4.501341e+002, 2.089465e+001
4.506162e+002, 2.080736e+001
4.510984e+002, 2.069627e+001
4.515805e+002, 2.055883e+001
4.520626e+002, 2.035689e+001
4.525447e+002, 2.002747e+001
4.530268e+002, 1.969245e+001
4.535089e+002, 1.962178e+001
4.539911e+002, 1.985810e+001
4.544732e+002, 2.006811e+001
4.549553e+002, 2.016989e+001
4.554374e+002, 2.021409e+001
4.559195e+002, 2.023993e+001
4.564016e+002, 2.025709e+001
4.568838e+002, 2.029341e+001
4.573659e+002, 2.039268e+001
4.578480e+002, 2.054220e+001
4.583301e+002, 2.050283e+001
4.588122e+002, 1.998425e+001
4.592943e+002, 1.965043e+001
4.597765e+002, 1.981359e+001
4.602586e+002, 2.019938e+001
4.607407e+002, 2.046249e+001
4.612228e+002, 2.048281e+001
4.617049e+002, 2.033815e+001
4.621870e+002, 2.010328e+001
4.626692e+002, 1.966170e+001
4.631513e+002, 1.951629e+001
4.636334e+002, 2.003888e+001
4.641155e+002, 2.047722e+001
4.645976e+002, 2.039721e+001
4.650797e+002, 1.998086e+001
4.655619e+002, 1.967803e+001
4.660440e+002, 1.976861e+001
4.665261e+002, 2.012799e+001
4.670082e+002, 2.042429e+001
4.674903e+002, 2.065585e+001
4.679724e+002, 2.083029e+001
4.684546e+002, 2.096688e+001
4.689367e+002, 2.103362e+001
4.694188e+002, 2.096423e+001
4.699009e+002, 2.076407e+001
4.703830e+002, 2.057755e+001
4.708651e+002, 2.051148e+001
4.713473e+002, 2.054733e+001
4.718294e+002, 2.063045e+001
4.723115e+002, 2.077505e+001
4.727936e+002, 2.091413e+001
4.732757e+002, 2.100750e+001
4.737578e+002, 2.106285e+001
4.742400e+002, 2.108734e+001
4.747221e+002, 2.106141e+001
4.752042e+002, 2.103788e+001
4.756863e+002, 2.101438e+001
4.761684e+002, 2.101960e+001
4.766505e+002, 2.117847e+001
4.771327e+002, 2.156339e+001
4.776148e+002, 2.195727e+001
4.780969e+002, 2.207253e+001
4.785790e+002, 2.186379e+001
4.790611e+002, 2.167473e+001
4.795432e+002, 2.147652e+001
4.800254e+002, 2.134265e+001
4.805075e+002, 2.135694e+001
4.809896e+002, 2.147946e+001
4.814717e+002, 2.158738e+001
4.819538e+002, 2.161009e+001
4.824359e+002, 2.158848e+001
4.829181e+002, 2.163753e+001
4.834002e+002, 2.175697e+001
4.838823e+002, 2.195944e+001
4.843644e+002, 2.240026e+001
4.848465e+002, 2.280393e+001
4.853286e+002, 2.289846e+001
4.858108e+002, 2.272503e+001
4.862929e+002, 2.257226e+001
4.867750e+002, 2.268458e+001
4.872571e+002, 2.303901e+001
4.877392e+002, 2.345372e+001
4.882213e+002, 2.402910e+001
4.887035e+002, 2.449389e+001
4.891856e+002, 2.481788e+001
4.896677e+002, 2.499177e+001
4.901498e+002, 2.495746e+001
4.906319e+002, 2.470165e+001
4.911140e+002, 2.441807e+001
4.915962e+002, 2.434488e+001
4.920783e+002, 2.444409e+001
4.925604e+002, 2.440431e+001
4.930425e+002, 2.417551e+001
4.935246e+002, 2.383957e+001
4.940067e+002, 2.334289e+001
4.944889e+002, 2.278482e+001
4.949710e+002, 2.241143e+001
4.954531e+002, 2.243093e+001
4.959352e+002, 2.247531e+001
4.964173e+002, 2.218343e+001
4.968994e+002, 2.165396e+001
4.973816e+002, 2.125980e+001
4.978637e+002, 2.114383e+001
4.983458e+002, 2.115223e+001
4.988279e+002, 2.105921e+001
4.993100e+002, 2.082670e+001
4.997921e+002, 2.069012e+001
5.002743e+002, 2.074468e+001
5.007564e+002, 2.082968e+001
5.012385e+002, 2.085993e+001
5.017206e+002, 2.082983e+001
5.022027e+002, 2.074238e+001
5.026848e+002, 2.059527e+001
5.031670e+002, 2.041284e+001
5.036491e+002, 2.026856e+001
5.041312e+002, 2.017619e+001
5.046133e+002, 2.010210e+001
5.050954e+002, 1.999702e+001
5.055775e+002, 1.994523e+001
5.060597e+002, 2.005708e+001
5.065418e+002, 2.029341e+001
5.070239e+002, 2.048550e+001
5.075060e+002, 2.048882e+001
5.079881e+002, 2.034478e+001
5.084702e+002, 2.024874e+001
5.089524e+002, 2.021060e+001
5.094345e+002, 2.019903e+001
5.099166e+002, 2.024370e+001
5.103987e+002, 2.028714e+001
5.108808e+002, 2.026293e+001
5.113629e+002, 2.016035e+001
5.118451e+002, 2.006416e+001
5.123271e+002, 2.002085e+001
5.128093e+002, 2.003305e+001
5.132914e+002, 2.012124e+001
5.137735e+002, 2.029765e+001
5.142556e+002, 2.049943e+001
5.147377e+002, 2.073689e+001
5.152198e+002, 2.095673e+001
5.157020e+002, 2.099285e+001
5.161841e+002, 2.067231e+001
5.166662e+002, 2.041166e+001
5.171483e+002, 2.041449e+001
5.176304e+002, 2.059111e+001
5.181125e+002, 2.082511e+001
5.185947e+002, 2.108443e+001
5.190768e+002, 2.131841e+001
5.195589e+002, 2.147644e+001
5.200410e+002, 2.155822e+001
5.205231e+002, 2.156485e+001
5.210052e+002, 2.137768e+001
5.214874e+002, 2.126054e+001
5.219695e+002, 2.133369e+001
5.224516e+002, 2.151561e+001
5.229337e+002, 2.169313e+001
5.234158e+002, 2.182398e+001
5.238979e+002, 2.192835e+001
5.243801e+002, 2.205011e+001
5.248622e+002, 2.220867e+001
5.253443e+002, 2.227378e+001
5.258264e+002, 2.207417e+001
5.263085e+002, 2.196825e+001
5.267906e+002, 2.226866e+001
5.272728e+002, 2.274646e+001
5.277549e+002, 2.294226e+001
5.282370e+002, 2.260317e+001
5.287191e+002, 2.206134e+001
5.292012e+002, 2.172204e+001
5.296833e+002, 2.157454e+001
5.301655e+002, 2.147339e+001
5.306476e+002, 2.141701e+001
5.311297e+002, 2.133870e+001
5.316118e+002, 2.111555e+001
5.320939e+002, 2.077383e+001
5.325760e+002, 2.053068e+001
5.330582e+002, 2.057272e+001
5.335403e+002, 2.060555e+001
5.340224e+002, 2.032334e+001
5.345045e+002, 1.983388e+001
5.349866e+002, 1.949356e+001
5.354688e+002, 1.946809e+001
5.359509e+002, 1.961152e+001
5.364330e+002, 1.965499e+001
5.369151e+002, 1.954438e+001
5.373972e+002, 1.945807e+001
5.378793e+002, 1.941556e+001
5.383615e+002, 1.937673e+001
5.388436e+002, 1.934579e+001
5.393257e+002, 1.929919e+001
5.398078e+002, 1.917049e+001
5.402899e+002, 1.891009e+001
5.407720e+002, 1.861428e+001
5.412542e+002, 1.853774e+001
5.417363e+002, 1.877836e+001
5.422184e+002, 1.890627e+001
5.427005e+002, 1.868265e+001
5.431826e+002, 1.847805e+001
5.436647e+002, 1.861902e+001
5.441469e+002, 1.899813e+001
5.446290e+002, 1.916248e+001
5.451111e+002, 1.867064e+001
5.455932e+002, 1.799234e+001
5.460753e+002, 1.793271e+001
5.465574e+002, 1.846722e+001
5.470396e+002, 1.885788e+001
5.475217e+002, 1.878560e+001
5.480038e+002, 1.849867e+001
5.484859e+002, 1.839170e+001
5.489680e+002, 1.848318e+001
5.494501e+002, 1.851385e+001
5.499323e+002, 1.834514e+001
5.504144e+002, 1.817291e+001
5.508965e+002, 1.819016e+001
5.513786e+002, 1.834930e+001
5.518607e+002, 1.845481e+001
5.523428e+002, 1.839741e+001
5.528250e+002, 1.824520e+001
5.533071e+002, 1.817030e+001
5.537892e+002, 1.824775e+001
5.542713e+002, 1.826586e+001
5.547534e+002, 1.812595e+001
5.552355e+002, 1.802316e+001
5.557177e+002, 1.811088e+001
5.561998e+002, 1.833256e+001
5.566819e+002, 1.852982e+001
5.571640e+002, 1.861927e+001
5.576461e+002, 1.860360e+001
5.581282e+002, 1.843500e+001
5.586104e+002, 1.806667e+001
5.590925e+002, 1.785224e+001
5.595746e+002, 1.796595e+001
5.600567e+002, 1.817912e+001
5.605388e+002, 1.829660e+001
5.610209e+002, 1.832577e+001
5.615031e+002, 1.832941e+001
5.619852e+002, 1.833704e+001
5.624673e+002, 1.832440e+001
5.629494e+002, 1.825427e+001
5.634315e+002, 1.813693e+001
5.639136e+002, 1.801406e+001
5.643958e+002, 1.789405e+001
5.648779e+002, 1.780439e+001
5.653600e+002, 1.780283e+001
5.658421e+002, 1.794963e+001
5.663242e+002, 1.800778e+001
5.668063e+002, 1.784214e+001
5.672885e+002, 1.771736e+001
5.677706e+002, 1.787160e+001
5.682527e+002, 1.817276e+001
5.687348e+002, 1.830459e+001
5.692169e+002, 1.810785e+001
5.696990e+002, 1.776962e+001
5.701812e+002, 1.767968e+001
5.706633e+002, 1.792784e+001
5.711454e+002, 1.805985e+001
5.716275e+002, 1.794326e+001
5.721096e+002, 1.780308e+001
5.725917e+002, 1.775905e+001
5.730739e+002, 1.777811e+001
5.735560e+002, 1.776757e+001
5.740381e+002, 1.765878e+001
5.745202e+002, 1.756642e+001
5.750023e+002, 1.766454e+001
5.754844e+002, 1.791201e+001
5.759666e+002, 1.807388e+001
5.764487e+002, 1.808451e+001
5.769308e+002, 1.802338e+001
5.774129e+002, 1.795956e+001
5.778950e+002, 1.789330e+001
5.783771e+002, 1.784218e+001
5.788593e+002, 1.786287e+001
5.793414e+002, 1.783792e+001
5.798235e+002, 1.758031e+001
5.803056e+002, 1.728268e+001
5.807877e+002, 1.733502e+001
5.812698e+002, 1.782964e+001
5.817520e+002, 1.837179e+001
5.822341e+002, 1.842498e+001
5.827162e+002, 1.791434e+001
5.831984e+002, 1.764103e+001
5.836805e+002, 1.782215e+001
5.841626e+002, 1.797799e+001
5.846447e+002, 1.791465e+001
5.851268e+002, 1.778023e+001
5.856089e+002, 1.776489e+001
5.860911e+002, 1.792035e+001
5.865732e+002, 1.813014e+001
5.870553e+002, 1.833928e+001
5.875374e+002, 1.852064e+001
5.880195e+002, 1.852837e+001
5.885016e+002, 1.831233e+001
5.889838e+002, 1.812353e+001
5.894659e+002, 1.814838e+001
5.899480e+002, 1.831055e+001
5.904301e+002, 1.836553e+001
5.909122e+002, 1.823635e+001
5.913943e+002, 1.815554e+001
5.918765e+002, 1.825942e+001
5.923586e+002, 1.840756e+001
5.928407e+002, 1.841523e+001
5.933228e+002, 1.828996e+001
5.938049e+002, 1.820916e+001
5.942870e+002, 1.831400e+001
5.947692e+002, 1.855398e+001
5.952513e+002, 1.869210e+001
5.957334e+002, 1.866642e+001
5.962155e+002, 1.864495e+001
5.966976e+002, 1.859803e+001
5.971797e+002, 1.859842e+001
5.976619e+002, 1.872283e+001
5.981440e+002, 1.894837e+001
5.986261e+002, 1.916999e+001
5.991082e+002, 1.931728e+001
5.995903e+002, 1.942844e+001
6.000724e+002, 1.956240e+001
6.005546e+002, 1.971899e+001
6.010367e+002, 1.994177e+001
6.015188e+002, 2.031766e+001
6.020009e+002, 2.065555e+001
6.024830e+002, 2.062489e+001
6.029651e+002, 2.023689e+001
6.034473e+002, 2.003751e+001
6.039294e+002, 2.015802e+001
6.044115e+002, 2.043524e+001
6.048936e+002, 2.087142e+001
6.053757e+002, 2.137156e+001
6.058578e+002, 2.174345e+001
6.063400e+002, 2.191846e+001
6.068221e+002, 2.202473e+001
6.073042e+002, 2.225033e+001
6.077863e+002, 2.262220e+001
6.082684e+002, 2.293678e+001
6.087505e+002, 2.319839e+001
6.092327e+002, 2.339059e+001
6.097148e+002, 2.346341e+001
6.101969e+002, 2.348596e+001
6.106790e+002, 2.356596e+001
6.111611e+002, 2.373544e+001
6.116432e+002, 2.385666e+001
6.121254e+002, 2.381153e+001
6.126075e+002, 2.362114e+001
6.130896e+002, 2.327372e+001
6.135717e+002, 2.272222e+001
6.140538e+002, 2.238592e+001
6.145359e+002, 2.259158e+001
6.150181e+002, 2.315903e+001
6.155002e+002, 2.354707e+001
6.159823e+002, 2.365648e+001
6.164644e+002, 2.383482e+001
6.169465e+002, 2.419834e+001
6.174286e+002, 2.462284e+001
6.179108e+002, 2.500450e+001
6.183929e+002, 2.534521e+001
6.188750e+002, 2.568991e+001
6.193571e+002, 2.606256e+001
6.198392e+002, 2.647113e+001
6.203214e+002, 2.694292e+001
6.208035e+002, 2.749770e+001
6.212856e+002, 2.805731e+001
6.217677e+002, 2.870538e+001
6.222498e+002, 2.926439e+001
6.227319e+002, 2.963710e+001
6.232141e+002, 2.984764e+001
6.236962e+002, 2.996915e+001
6.241783e+002, 3.004386e+001
6.246604e+002, 3.001239e+001
6.251425e+002, 2.982693e+001
6.256246e+002, 2.948763e+001
6.261068e+002, 2.895734e+001
6.265889e+002, 2.820848e+001
6.270710e+002, 2.742657e+001
6.275531e+002, 2.677154e+001
6.280352e+002, 2.624379e+001
6.285173e+002, 2.581113e+001
6.289995e+002, 2.565406e+001
6.294816e+002, 2.535147e+001
6.299637e+002, 2.461651e+001
6.304458e+002, 2.382294e+001
6.309279e+002, 2.335406e+001
6.314100e+002, 2.323692e+001
6.318922e+002, 2.322965e+001
6.323743e+002, 2.315762e+001
6.328564e+002, 2.302337e+001
6.333385e+002, 2.280829e+001
6.338206e+002, 2.246807e+001
6.343027e+002, 2.223653e+001
6.347849e+002, 2.229135e+001
6.352670e+002, 2.237631e+001
6.357491e+002, 2.220589e+001
6.362312e+002, 2.180831e+001
6.367133e+002, 2.149119e+001
6.371954e+002, 2.144303e+001
6.376776e+002, 2.142553e+001
6.381597e+002, 2.121060e+001
6.386418e+002, 2.087685e+001
6.391239e+002, 2.065201e+001
6.396060e+002, 2.061141e+001
6.400881e+002, 2.057844e+001
6.405703e+002, 2.029740e+001
6.410524e+002, 1.972109e+001
6.415345e+002, 1.945391e+001
6.420166e+002, 1.976231e+001
6.424987e+002, 2.007963e+001
6.429808e+002, 2.035352e+001
6.434630e+002, 2.054890e+001
6.439451e+002, 2.061517e+001
6.444272e+002, 2.055212e+001
6.449093e+002, 2.045159e+001
6.453914e+002, 2.035612e+001
6.458735e+002, 2.028232e+001
6.463557e+002, 2.031603e+001
6.468378e+002, 2.046552e+001
6.473199e+002, 2.047675e+001
6.478020e+002, 2.017785e+001
6.482841e+002, 1.978203e+001
6.487662e+002, 1.966085e+001
6.492484e+002, 1.988064e+001
6.497305e+002, 1.998671e+001
6.502126e+002, 1.987302e+001
6.506947e+002, 1.970813e+001
6.511768e+002, 1.958331e+001
6.516589e+002, 1.947292e+001
6.521411e+002, 1.930564e+001
6.526232e+002, 1.906153e+001
6.531053e+002, 1.882469e+001
6.535874e+002, 1.871509e+001
6.540695e+002, 1.873432e+001
6.545516e+002, 1.872174e+001
6.550338e+002, 1.863321e+001
6.555159e+002, 1.860159e+001
6.559980e+002, 1.874419e+001
6.564801e+002, 1.894555e+001
6.569622e+002, 1.909352e+001
6.574443e+002, 1.917909e+001
6.579265e+002, 1.919816e+001
6.584086e+002, 1.913430e+001
6.588907e+002, 1.901286e+001
6.593728e+002, 1.880312e+001
6.598549e+002, 1.854830e+001
6.603370e+002, 1.843901e+001
6.608192e+002, 1.857440e+001
6.613013e+002, 1.878683e+001
6.617834e+002, 1.877123e+001
6.622655e+002, 1.844545e+001
6.627476e+002, 1.819942e+001
6.632297e+002, 1.803919e+001
6.637119e+002, 1.795381e+001
6.641940e+002, 1.804955e+001
6.646761e+002, 1.817263e+001
6.651582e+002, 1.808271e+001
6.656403e+002, 1.771598e+001
6.661224e+002, 1.735348e+001
6.666046e+002, 1.723750e+001
6.670867e+002, 1.729524e+001
6.675688e+002, 1.738117e+001
6.680509e+002, 1.748698e+001
6.685330e+002, 1.754653e+001
6.690151e+002, 1.751920e+001
6.694973e+002, 1.743744e+001
6.699794e+002, 1.735985e+001
6.704615e+002, 1.727355e+001
6.709436e+002, 1.723150e+001
6.714257e+002, 1.728302e+001
6.719078e+002, 1.732994e+001
6.723900e+002, 1.728834e+001
6.728721e+002, 1.721655e+001
6.733542e+002, 1.723342e+001
6.738363e+002, 1.737762e+001
6.743184e+002, 1.754016e+001
6.748005e+002, 1.756671e+001
6.752827e+002, 1.747727e+001
6.757648e+002, 1.749318e+001
6.762469e+002, 1.766225e+001
6.767290e+002, 1.777672e+001
6.772111e+002, 1.767053e+001
6.776932e+002, 1.749329e+001
6.781754e+002, 1.754260e+001
6.786575e+002, 1.788659e+001
6.791396e+002, 1.808083e+001
6.796217e+002, 1.788499e+001
6.801038e+002, 1.762546e+001
6.805859e+002, 1.756322e+001
6.810681e+002, 1.763512e+001
6.815502e+002, 1.765390e+001
6.820323e+002, 1.754727e+001
6.825144e+002, 1.741030e+001
6.829965e+002, 1.739953e+001
6.834786e+002, 1.752916e+001
6.839608e+002, 1.754626e+001
6.844429e+002, 1.742590e+001
6.849250e+002, 1.723679e+001
6.854071e+002, 1.685821e+001
6.858892e+002, 1.650601e+001
6.863713e+002, 1.648537e+001
6.868535e+002, 1.684408e+001
6.873356e+002, 1.709725e+001
6.878177e+002, 1.689561e+001
6.882998e+002, 1.659177e+001
6.887819e+002, 1.655701e+001
6.892640e+002, 1.673930e+001
6.897462e+002, 1.693128e+001
6.902283e+002, 1.705412e+001
6.907104e+002, 1.711177e+001
6.911925e+002, 1.710096e+001
6.916746e+002, 1.701093e+001
6.921567e+002, 1.695043e+001
6.926389e+002, 1.694182e+001
6.931210e+002, 1.693250e+001
6.936031e+002, 1.692745e+001
6.940852e+002, 1.690395e+001
6.945673e+002, 1.681800e+001
6.950494e+002, 1.667162e+001
6.955316e+002, 1.656069e+001
6.960137e+002, 1.659936e+001
6.964958e+002, 1.666857e+001
6.969779e+002, 1.653291e+001
6.974600e+002, 1.626314e+001
6.979421e+002, 1.622478e+001
6.984243e+002, 1.656336e+001
6.989064e+002, 1.702567e+001
6.993885e+002, 1.730423e+001
6.998706e+002, 1.738852e+001
7.003527e+002, 1.742726e+001
7.008348e+002, 1.738132e+001
7.013170e+002, 1.733685e+001
7.017991e+002, 1.733915e+001
7.022812e+002, 1.732920e+001
7.027633e+002, 1.722137e+001
7.032454e+002, 1.702878e+001
7.037275e+002, 1.688286e+001
7.042097e+002, 1.689019e+001
7.046918e+002, 1.697119e+001
7.051739e+002, 1.702633e+001
7.056560e+002, 1.705125e+001
7.061381e+002, 1.700838e+001
7.066202e+002, 1.688166e+001
7.071024e+002, 1.671451e+001
7.075845e+002, 1.654449e+001
7.080666e+002, 1.637072e+001
7.085487e+002, 1.621915e+001
7.090308e+002, 1.607436e+001
7.095129e+002, 1.597056e+001
7.099951e+002, 1.588376e+001
7.104772e+002, 1.586090e+001
7.109593e+002, 1.601299e+001
7.114414e+002, 1.628048e+001
7.119235e+002, 1.642858e+001
7.124056e+002, 1.627916e+001
7.128878e+002, 1.602539e+001
7.133699e+002, 1.599755e+001
7.138520e+002, 1.615614e+001
7.143341e+002, 1.621823e+001
7.148162e+002, 1.612455e+001
7.152983e+002, 1.595378e+001
7.157805e+002, 1.573582e+001
7.162626e+002, 1.549495e+001
7.167447e+002, 1.537087e+001
7.172268e+002, 1.531882e+001
7.177089e+002, 1.543710e+001
7.181910e+002, 1.598044e+001
7.186732e+002, 1.648540e+001
7.191553e+002, 1.656861e+001
7.196374e+002, 1.633667e+001
7.201195e+002, 1.612190e+001
7.206016e+002, 1.608583e+001
7.210837e+002, 1.610533e+001
7.215659e+002, 1.599455e+001
7.220480e+002, 1.578685e+001
7.225301e+002, 1.568179e+001
7.230122e+002, 1.571280e+001
7.234943e+002, 1.576226e+001
7.239764e+002, 1.577540e+001
7.244586e+002, 1.574806e+001
7.249407e+002, 1.566002e+001
7.254228e+002, 1.546163e+001
7.259049e+002, 1.532619e+001
7.263870e+002, 1.528686e+001
7.268691e+002, 1.528885e+001
7.273513e+002, 1.533390e+001
7.278334e+002, 1.538973e+001
7.283155e+002, 1.539320e+001
7.287976e+002, 1.532713e+001
7.292797e+002, 1.527563e+001
7.297618e+002, 1.535072e+001
7.302440e+002, 1.551322e+001
7.307261e+002, 1.564146e+001
7.312082e+002, 1.573718e+001
7.316903e+002, 1.570513e+001
7.321724e+002, 1.544350e+001
7.326545e+002, 1.514692e+001
7.331367e+002, 1.512353e+001
7.336188e+002, 1.544656e+001
7.341009e+002, 1.563620e+001
7.345830e+002, 1.562079e+001
7.350651e+002, 1.556080e+001
7.355472e+002, 1.548722e+001
7.360294e+002, 1.541161e+001
7.365115e+002, 1.534327e+001
7.369936e+002, 1.528364e+001
7.374757e+002, 1.522432e+001
7.379578e+002, 1.513334e+001
7.384399e+002, 1.506341e+001
7.389221e+002, 1.516369e+001
7.394042e+002, 1.541865e+001
7.398863e+002, 1.557477e+001
7.403684e+002, 1.554737e+001
7.408505e+002, 1.549668e+001
7.413326e+002, 1.558784e+001
7.418148e+002, 1.580092e+001
7.422969e+002, 1.590406e+001
7.427790e+002, 1.579389e+001
7.432611e+002, 1.572618e+001
7.437432e+002, 1.579206e+001
7.442253e+002, 1.585830e+001
7.447075e+002, 1.578733e+001
7.451896e+002, 1.563075e+001
7.456717e+002, 1.556714e+001
7.461538e+002, 1.570678e+001
7.466359e+002, 1.585368e+001
7.471180e+002, 1.572440e+001
7.476002e+002, 1.540272e+001
7.480823e+002, 1.518663e+001
7.485644e+002, 1.511047e+001
7.490465e+002, 1.511630e+001
7.495286e+002, 1.519676e+001
7.500107e+002, 1.529574e+001
7.504929e+002, 1.526672e+001
7.509750e+002, 1.498140e+001
7.514571e+002, 1.489021e+001
7.519392e+002, 1.523149e+001
7.524213e+002, 1.548525e+001
7.529034e+002, 1.532490e+001
7.533856e+002, 1.500770e+001
7.538677e+002, 1.490941e+001
7.543498e+002, 1.510925e+001
7.548319e+002, 1.535219e+001
7.553140e+002, 1.547400e+001
7.557961e+002, 1.550621e+001
7.562783e+002, 1.547688e+001
7.567604e+002, 1.539840e+001
7.572425e+002, 1.534005e+001
7.577246e+002, 1.532835e+001
7.582067e+002, 1.530391e+001
7.586888e+002, 1.517435e+001
7.591710e+002, 1.494149e+001
7.596531e+002, 1.491763e+001
7.601352e+002, 1.531009e+001
7.606173e+002, 1.559597e+001
7.610994e+002, 1.566070e+001
7.615815e+002, 1.563267e+001
7.620637e+002, 1.554484e+001
7.625458e+002, 1.544255e+001
7.630279e+002, 1.545882e+001
7.635100e+002, 1.573326e+001
7.639921e+002, 1.597809e+001
7.644742e+002, 1.592816e+001
7.649564e+002, 1.569369e+001
7.654385e+002, 1.541113e+001
7.659206e+002, 1.512882e+001
7.664027e+002, 1.502726e+001
7.668848e+002, 1.524353e+001
7.673669e+002, 1.561091e+001
7.678491e+002, 1.570633e+001
7.683312e+002, 1.541610e+001
7.688133e+002, 1.528765e+001
7.692954e+002, 1.545430e+001
7.697775e+002, 1.561066e+001
7.702596e+002, 1.561683e+001
7.707418e+002, 1.553868e+001
7.712239e+002, 1.545194e+001
7.717060e+002, 1.536293e+001
7.721881e+002, 1.527995e+001
7.726702e+002, 1.513069e+001
7.731523e+002, 1.505689e+001
7.736345e+002, 1.529902e+001
7.741166e+002, 1.567559e+001
7.745987e+002, 1.576631e+001
7.750808e+002, 1.548150e+001
7.755629e+002, 1.517072e+001
7.760450e+002, 1.519784e+001
7.765272e+002, 1.548442e+001
7.770093e+002, 1.567782e+001
7.774914e+002, 1.578626e+001
7.779735e+002, 1.573091e+001
7.784556e+002, 1.536305e+001
7.789377e+002, 1.502637e+001
7.794199e+002, 1.510513e+001
7.799020e+002, 1.549568e+001
7.803841e+002, 1.567833e+001
7.808662e+002, 1.548225e+001
7.813483e+002, 1.530317e+001
7.818304e+002, 1.520354e+001
7.823126e+002, 1.518196e+001
7.827947e+002, 1.528904e+001
7.832768e+002, 1.546806e+001
7.837589e+002, 1.559120e+001
7.842410e+002, 1.560110e+001
7.847231e+002, 1.554745e+001
7.852053e+002, 1.543844e+001
7.856874e+002, 1.531369e+001
7.861695e+002, 1.538273e+001
7.866516e+002, 1.566786e+001
7.871337e+002, 1.584600e+001
7.876158e+002, 1.575715e+001
7.880980e+002, 1.552875e+001
7.885801e+002, 1.532261e+001
7.890622e+002, 1.511247e+001
7.895443e+002, 1.510883e+001
7.900264e+002, 1.556340e+001
7.905085e+002, 1.589479e+001
7.909907e+002, 1.588516e+001
7.914728e+002, 1.576552e+001
7.919549e+002, 1.575890e+001
7.924370e+002, 1.585853e+001
7.929191e+002, 1.590738e+001
7.934012e+002, 1.581938e+001
7.938834e+002, 1.566412e+001
7.943655e+002, 1.545245e+001
7.948476e+002, 1.523906e+001
7.953297e+002, 1.515998e+001
7.958118e+002, 1.522286e+001
7.962939e+002, 1.531184e+001
7.967761e+002, 1.535236e+001
7.972582e+002, 1.536753e+001
7.977403e+002, 1.541720e+001
7.982224e+002, 1.551729e+001
7.987045e+002, 1.558374e+001
7.991866e+002, 1.559556e+001
7.996688e+002, 1.560407e+001
8.001509e+002, 1.561728e+001
8.006330e+002, 1.564827e+001
8.011151e+002, 1.572339e+001
8.015972e+002, 1.584791e+001
8.020793e+002, 1.595920e+001
8.025615e+002, 1.602934e+001
8.030436e+002, 1.609215e+001
8.035257e+002, 1.621048e+001
8.040078e+002, 1.631599e+001
8.044899e+002, 1.627013e+001
8.049720e+002, 1.607647e+001
8.054542e+002, 1.590591e+001
8.059363e+002, 1.589903e+001
8.064184e+002, 1.599043e+001
8.069005e+002, 1.602020e+001
8.073826e+002, 1.599416e+001
8.078647e+002, 1.606431e+001
8.083469e+002, 1.627556e+001
8.088290e+002, 1.649290e+001
8.093111e+002, 1.662159e+001
8.097932e+002, 1.668826e+001
8.102753e+002, 1.677698e+001
8.107574e+002, 1.694345e+001
8.112396e+002, 1.701621e+001
8.117217e+002, 1.682535e+001
8.122038e+002, 1.673247e+001
8.126859e+002, 1.699431e+001
8.131680e+002, 1.739710e+001
8.136501e+002, 1.763589e+001
8.141323e+002, 1.765856e+001
8.146144e+002, 1.766758e+001
8.150965e+002, 1.777237e+001
8.155786e+002, 1.794105e+001
8.160607e+002, 1.814557e+001
8.165428e+002, 1.838239e+001
8.170250e+002, 1.866053e+001
8.175071e+002, 1.897591e+001
8.179892e+002, 1.926344e+001
8.184713e+002, 1.946276e+001
8.189534e+002, 1.960544e+001
8.194355e+002, 1.979053e+001
8.199177e+002, 2.000107e+001
8.203998e+002, 2.033969e+001
8.208819e+002, 2.086282e+001
8.213640e+002, 2.143952e+001
8.218461e+002, 2.200192e+001
8.223282e+002, 2.256133e+001
8.228104e+002, 2.311731e+001
8.232925e+002, 2.361998e+001
8.237746e+002, 2.431747e+001
8.242567e+002, 2.549138e+001
8.247388e+002, 2.663118e+001
8.252209e+002, 2.732118e+001
8.257031e+002, 2.784976e+001
8.261852e+002, 2.864417e+001
8.266673e+002, 2.977904e+001
8.271494e+002, 3.102377e+001
8.276315e+002, 3.217321e+001
8.281136e+002, 3.335011e+001
8.285958e+002, 3.478797e+001
8.290779e+002, 3.645825e+001
8.295600e+002, 3.823724e+001
8.300421e+002, 4.010122e+001
8.305242e+002, 4.207541e+001
8.310063e+002, 4.419942e+001
8.314885e+002, 4.641520e+001
8.319706e+002, 4.857726e+001
8.324527e+002, 5.092426e+001
8.329348e+002, 5.259780e+001
8.334169e+002, 5.345422e+001
8.338990e+002, 5.378492e+001
8.343812e+002, 5.376172e+001
8.348633e+002, 5.328906e+001
8.353454e+002, 5.223241e+001
8.358275e+002, 5.057972e+001
8.363096e+002, 4.847205e+001
8.367917e+002, 4.573581e+001
8.372739e+002, 4.280591e+001
8.377560e+002, 3.966990e+001
8.382381e+002, 3.664027e+001
8.387202e+002, 3.420362e+001
8.392023e+002, 3.235323e+001
8.396844e+002, 3.062973e+001
8.401666e+002, 2.871638e+001
8.406487e+002, 2.683733e+001
8.411308e+002, 2.545610e+001
8.416129e+002, 2.450685e+001
8.420950e+002, 2.352806e+001
8.425771e+002, 2.245646e+001
8.430593e+002, 2.152661e+001
8.435414e+002, 2.089165e+001
8.440235e+002, 2.041444e+001
8.445056e+002, 1.981818e+001
8.449877e+002, 1.903693e+001
8.454698e+002, 1.848382e+001
8.459520e+002, 1.834336e+001
8.464341e+002, 1.819077e+001
8.469162e+002, 1.787082e+001
8.473983e+002, 1.754494e+001
8.478804e+002, 1.738902e+001
8.483625e+002, 1.737292e+001
8.488447e+002, 1.728658e+001
8.493268e+002, 1.703519e+001
8.498089e+002, 1.674444e+001
8.502910e+002, 1.639253e+001
8.507731e+002, 1.609902e+001
8.512552e+002, 1.605510e+001
8.517374e+002, 1.620400e+001
8.522195e+002, 1.635787e+001
8.527016e+002, 1.643037e+001
8.531837e+002, 1.637016e+001
8.536658e+002, 1.599740e+001
8.541479e+002, 1.542015e+001
8.546301e+002, 1.518789e+001
8.551122e+002, 1.531484e+001
8.555943e+002, 1.546343e+001
8.560764e+002, 1.553433e+001
8.565585e+002, 1.553599e+001
8.570406e+002, 1.546264e+001
8.575228e+002, 1.532407e+001
8.580049e+002, 1.523594e+001
8.584870e+002, 1.525768e+001
8.589691e+002, 1.522950e+001
8.594512e+002, 1.503871e+001
8.599333e+002, 1.489756e+001
8.604155e+002, 1.500754e+001
8.608976e+002, 1.521995e+001
8.613797e+002, 1.522997e+001
8.618618e+002, 1.494686e+001
8.623439e+002, 1.468951e+001
8.628260e+002, 1.455912e+001
8.633082e+002, 1.453529e+001
8.637903e+002, 1.469750e+001
8.642724e+002, 1.491854e+001
8.647545e+002, 1.495484e+001
8.652366e+002, 1.478157e+001
8.657188e+002, 1.463270e+001
8.662009e+002, 1.472507e+001
8.666830e+002, 1.488842e+001
8.671651e+002, 1.472649e+001
8.676472e+002, 1.430968e+001
8.681293e+002, 1.410293e+001
8.686115e+002, 1.418198e+001
8.690936e+002, 1.429658e+001
8.695757e+002, 1.429371e+001
8.700578e+002, 1.424380e+001
8.705399e+002, 1.430095e+001
8.710220e+002, 1.450094e+001
8.715042e+002, 1.463023e+001
8.719863e+002, 1.469806e+001
8.724684e+002, 1.467978e+001
8.729505e+002, 1.450795e+001
8.734326e+002, 1.428965e+001
8.739147e+002, 1.406261e+001
8.743969e+002, 1.385394e+001
8.748790e+002, 1.381993e+001
8.753611e+002, 1.418819e+001
8.758432e+002, 1.445423e+001
8.763253e+002, 1.432404e+001
8.768074e+002, 1.411795e+001
8.772896e+002, 1.412767e+001
8.777717e+002, 1.429592e+001
8.782538e+002, 1.444257e+001
8.787359e+002, 1.450104e+001
8.792180e+002, 1.448753e+001
8.797001e+002, 1.433603e+001
8.801823e+002, 1.416303e+001
8.806644e+002, 1.423619e+001
8.811465e+002, 1.449434e+001
8.816286e+002, 1.465912e+001
8.821107e+002, 1.465782e+001
8.825928e+002, 1.460065e+001
8.830750e+002, 1.458839e+001
8.835571e+002, 1.458525e+001
8.840392e+002, 1.444111e+001
8.845213e+002, 1.411199e+001
8.850034e+002, 1.390655e+001
8.854855e+002, 1.388417e+001
8.859677e+002, 1.391459e+001
8.864498e+002, 1.395509e+001
8.869319e+002, 1.399229e+001
8.874140e+002, 1.400606e+001
8.878961e+002, 1.399794e+001
8.883782e+002, 1.395611e+001
8.888604e+002, 1.383956e+001
8.893425e+002, 1.374227e+001
8.898246e+002, 1.367533e+001
8.903067e+002, 1.364969e+001
8.907888e+002, 1.368269e+001
8.912709e+002, 1.376473e+001
8.917531e+002, 1.387760e+001
8.922352e+002, 1.404151e+001
8.927173e+002, 1.414742e+001
8.931994e+002, 1.405656e+001
8.936815e+002, 1.391450e+001
8.941636e+002, 1.390846e+001
8.946458e+002, 1.399795e+001
8.951279e+002, 1.405666e+001
8.956100e+002, 1.404090e+001
8.960921e+002, 1.396509e+001
8.965742e+002, 1.382832e+001
8.970563e+002, 1.365666e+001
8.975385e+002, 1.348883e+001
8.980206e+002, 1.333345e+001
8.985027e+002, 1.334215e+001
8.989848e+002, 1.356004e+001
8.994669e+002, 1.373238e+001
8.999490e+002, 1.367992e+001
9.004312e+002, 1.350256e+001
9.009133e+002, 1.343046e+001
9.013954e+002, 1.348765e+001
9.018775e+002, 1.354357e+001
9.023596e+002, 1.362853e+001
9.028417e+002, 1.365900e+001
9.033239e+002, 1.351892e+001
9.038060e+002, 1.338742e+001
9.042881e+002, 1.346927e+001
9.047702e+002, 1.372654e+001
9.052523e+002, 1.391119e+001
9.057344e+002, 1.399111e+001
9.062166e+002, 1.399968e+001
9.066987e+002, 1.386220e+001
9.071808e+002, 1.373488e+001
9.076629e+002, 1.376073e+001
9.081450e+002, 1.386965e+001
9.086271e+002, 1.392578e+001
9.091093e+002, 1.389328e+001
9.095914e+002, 1.382376e+001
9.100735e+002, 1.370653e+001
9.105556e+002, 1.360935e+001
9.110377e+002, 1.365998e+001
9.115198e+002, 1.377185e+001
9.120020e+002, 1.371649e+001
9.124841e+002, 1.349817e+001
9.129662e+002, 1.338767e+001
9.134483e+002, 1.356869e+001
9.139304e+002, 1.385533e+001
9.144125e+002, 1.391322e+001
9.148947e+002, 1.377611e+001
9.153768e+002, 1.372803e+001
9.158589e+002, 1.378528e+001
9.163410e+002, 1.382530e+001
9.168231e+002, 1.380646e+001
9.173052e+002, 1.373490e+001
9.177874e+002, 1.359164e+001
9.182695e+002, 1.339985e+001
9.187516e+002, 1.341376e+001
9.192337e+002, 1.380976e+001
9.197158e+002, 1.397953e+001
9.201979e+002, 1.368804e+001
9.206801e+002, 1.339029e+001
9.211622e+002, 1.336814e+001
9.216443e+002, 1.348568e+001
9.221264e+002, 1.353902e+001
9.226085e+002, 1.351830e+001
9.230906e+002, 1.346179e+001
9.235728e+002, 1.332736e+001
9.240549e+002, 1.321679e+001
9.245370e+002, 1.313083e+001
9.250191e+002, 1.311507e+001
9.255012e+002, 1.331029e+001
9.259833e+002, 1.361227e+001
9.264655e+002, 1.368093e+001
9.269476e+002, 1.332702e+001
9.274297e+002, 1.298358e+001
9.279118e+002, 1.298656e+001
9.283939e+002, 1.312807e+001
9.288760e+002, 1.321292e+001
9.293582e+002, 1.323570e+001
9.298403e+002, 1.321011e+001
9.303224e+002, 1.314683e+001
9.308045e+002, 1.307840e+001
9.312866e+002, 1.302818e+001
9.317687e+002, 1.299451e+001
9.322509e+002, 1.298093e+001
9.327330e+002, 1.298246e+001
9.332151e+002, 1.296781e+001
9.336972e+002, 1.293569e+001
9.341793e+002, 1.294977e+001
9.346614e+002, 1.305213e+001
9.351436e+002, 1.313361e+001
9.356257e+002, 1.300487e+001
9.361078e+002, 1.268503e+001
9.365899e+002, 1.259412e+001
9.370720e+002, 1.280822e+001
9.375541e+002, 1.293482e+001
9.380363e+002, 1.284661e+001
9.385184e+002, 1.275556e+001
9.390005e+002, 1.283801e+001
9.394826e+002, 1.302130e+001
9.399647e+002, 1.309891e+001
9.404468e+002, 1.302823e+001
9.409290e+002, 1.296654e+001
9.414111e+002, 1.278285e+001
9.418932e+002, 1.277260e+001
9.423753e+002, 1.326943e+001
9.428574e+002, 1.378578e+001
9.433395e+002, 1.379781e+001
9.438217e+002, 1.339128e+001
9.443038e+002, 1.309711e+001
9.447859e+002, 1.307584e+001
9.452680e+002, 1.309802e+001
9.457501e+002, 1.314086e+001
9.462322e+002, 1.314019e+001
9.467144e+002, 1.296480e+001
9.471965e+002, 1.274615e+001
9.476786e+002, 1.274512e+001
9.481607e+002, 1.298730e+001
9.486428e+002, 1.316936e+001
9.491249e+002, 1.303370e+001
9.496071e+002, 1.283706e+001
9.500892e+002, 1.284980e+001
9.505713e+002, 1.297654e+001
9.510534e+002, 1.307961e+001
9.515355e+002, 1.313656e+001
9.520176e+002, 1.314737e+001
9.524998e+002, 1.311266e+001
9.529819e+002, 1.305739e+001
9.534640e+002, 1.299518e+001
9.539461e+002, 1.294092e+001
9.544282e+002, 1.295616e+001
9.549103e+002, 1.302961e+001
9.553925e+002, 1.308460e+001
9.558746e+002, 1.310553e+001
9.563567e+002, 1.305021e+001
9.568388e+002, 1.287734e+001
9.573209e+002, 1.265197e+001
9.578030e+002, 1.249912e+001
9.582852e+002, 1.241454e+001
9.587673e+002, 1.249835e+001
9.592494e+002, 1.284214e+001
9.597315e+002, 1.297069e+001
9.602136e+002, 1.266765e+001
9.606957e+002, 1.223470e+001
9.611779e+002, 1.188608e+001
9.616600e+002, 1.166213e+001
9.621421e+002, 1.181051e+001
9.626242e+002, 1.272378e+001
9.631063e+002, 1.322533e+001
9.635884e+002, 1.300411e+001
9.640706e+002, 1.274704e+001
9.645527e+002, 1.270918e+001
9.650348e+002, 1.276557e+001
9.655169e+002, 1.278126e+001
9.659990e+002, 1.275624e+001
9.664811e+002, 1.275512e+001
9.669633e+002, 1.281542e+001
9.674454e+002, 1.285956e+001
9.679275e+002, 1.284467e+001
9.684096e+002, 1.283352e+001
9.688917e+002, 1.290638e+001
9.693738e+002, 1.299678e+001
9.698560e+002, 1.297360e+001
9.703381e+002, 1.281606e+001
9.708202e+002, 1.268150e+001
9.713023e+002, 1.263345e+001
9.717844e+002, 1.264544e+001
9.722665e+002, 1.275328e+001
9.727487e+002, 1.287514e+001
9.732308e+002, 1.289079e+001
9.737129e+002, 1.283180e+001
9.741950e+002, 1.281875e+001
9.746771e+002, 1.289802e+001
9.751592e+002, 1.300368e+001
9.756414e+002, 1.307972e+001
9.761235e+002, 1.314491e+001
9.766056e+002, 1.323117e+001
9.770877e+002, 1.332752e+001
9.775698e+002, 1.344145e+001
9.780519e+002, 1.354962e+001
9.785341e+002, 1.349190e+001
9.790162e+002, 1.315402e+001
9.794983e+002, 1.283245e+001
9.799804e+002, 1.306475e+001
9.804625e+002, 1.367471e+001
9.809446e+002, 1.395151e+001
9.814268e+002, 1.391554e+001
9.819089e+002, 1.393317e+001
9.823910e+002, 1.410178e+001
9.828731e+002, 1.425949e+001
9.833552e+002, 1.427754e+001
9.838373e+002, 1.418960e+001
9.843195e+002, 1.405926e+001
9.848016e+002, 1.388195e+001
9.852837e+002, 1.376467e+001
9.857658e+002, 1.370890e+001
9.862479e+002, 1.374150e+001
9.867300e+002, 1.390636e+001
9.872122e+002, 1.406503e+001
9.876943e+002, 1.408091e+001
9.881764e+002, 1.396927e+001
9.886585e+002, 1.380206e+001
9.891406e+002, 1.351986e+001
9.896227e+002, 1.336406e+001
9.901049e+002, 1.344290e+001
9.905870e+002, 1.346300e+001
9.910691e+002, 1.323519e+001
9.915512e+002, 1.295819e+001
9.920333e+002, 1.291333e+001
9.925154e+002, 1.308857e+001
9.929976e+002, 1.307912e+001
9.934797e+002, 1.264738e+001
9.939618e+002, 1.239400e+001
9.944439e+002, 1.247450e+001
9.949260e+002, 1.259792e+001
9.954081e+002, 1.261924e+001
9.958903e+002, 1.260520e+001
9.963724e+002, 1.267808e+001
9.968545e+002, 1.284119e+001
9.973366e+002, 1.289805e+001
9.978187e+002, 1.266909e+001
9.983008e+002, 1.252548e+001
9.987830e+002, 1.267839e+001
9.992651e+002, 1.284898e+001
9.997472e+002, 1.282917e+001
1.000229e+003, 1.268508e+001
1.000711e+003, 1.253377e+001
1.001194e+003, 1.240142e+001
1.001676e+003, 1.232986e+001
1.002158e+003, 1.236207e+001
1.002640e+003, 1.243077e+001
1.003122e+003, 1.253732e+001
1.003604e+003, 1.262924e+001
1.004086e+003, 1.262812e+001
1.004568e+003, 1.257125e+001
1.005050e+003, 1.255953e+001
1.005533e+003, 1.262398e+001
1.006015e+003, 1.269745e+001
1.006497e+003, 1.274030e+001
1.006979e+003, 1.276383e+001
1.007461e+003, 1.275698e+001
1.007943e+003, 1.275012e+001
1.008425e+003, 1.282457e+001
1.008907e+003, 1.294693e+001
1.009390e+003, 1.296620e+001
1.009872e+003, 1.281915e+001
1.010354e+003, 1.266320e+001
1.010836e+003, 1.269405e+001
1.011318e+003, 1.278524e+001
1.011800e+003, 1.270493e+001
1.012282e+003, 1.252401e+001
1.012764e+003, 1.242244e+001
1.013246e+003, 1.241846e+001
1.013729e+003, 1.242119e+001
1.014211e+003, 1.238196e+001
1.014693e+003, 1.235206e+001
1.015175e+003, 1.239872e+001
1.015657e+003, 1.250767e+001
1.016139e+003, 1.270160e+001
1.016621e+003, 1.293279e+001
1.017103e+003, 1.288686e+001
1.017586e+003, 1.253116e+001
1.018068e+003, 1.228804e+001
1.018550e+003, 1.242838e+001
1.019032e+003, 1.273143e+001
1.019514e+003, 1.285032e+001
1.019996e+003, 1.280094e+001
1.020478e+003, 1.265458e+001
1.020960e+003, 1.241581e+001
1.021442e+003, 1.227852e+001
1.021925e+003, 1.229041e+001
1.022407e+003, 1.235210e+001
1.022889e+003, 1.239737e+001
1.023371e+003, 1.244214e+001
1.023853e+003, 1.254950e+001
1.024335e+003, 1.272125e+001
1.024817e+003, 1.264527e+001
1.025299e+003, 1.227230e+001
1.025781e+003, 1.203614e+001
1.026264e+003, 1.205907e+001
1.026746e+003, 1.217322e+001
1.027228e+003, 1.227727e+001
1.027710e+003, 1.234341e+001
1.028192e+003, 1.228327e+001
1.028674e+003, 1.206495e+001
1.029156e+003, 1.200097e+001
1.029638e+003, 1.217106e+001
1.030120e+003, 1.221269e+001
1.030603e+003, 1.197373e+001
1.031085e+003, 1.171413e+001
1.031567e+003, 1.161553e+001
1.032049e+003, 1.166408e+001
1.032531e+003, 1.185408e+001
1.033013e+003, 1.227415e+001
1.033495e+003, 1.241695e+001
1.033977e+003, 1.211424e+001
1.034460e+003, 1.189523e+001
1.034942e+003, 1.193729e+001
1.035424e+003, 1.203321e+001
1.035906e+003, 1.201375e+001
1.036388e+003, 1.192781e+001
1.036870e+003, 1.192129e+001
1.037352e+003, 1.203168e+001
1.037834e+003, 1.209172e+001
1.038317e+003, 1.210525e+001
1.038799e+003, 1.206053e+001
1.039281e+003, 1.188571e+001
1.039763e+003, 1.172087e+001
1.040245e+003, 1.163639e+001
1.040727e+003, 1.164807e+001
1.041209e+003, 1.183059e+001
1.041691e+003, 1.230263e+001
1.042173e+003, 1.256492e+001
1.042656e+003, 1.241113e+001
1.043138e+003, 1.231717e+001
1.043620e+003, 1.250040e+001
1.044102e+003, 1.269027e+001
1.044584e+003, 1.264833e+001
1.045066e+003, 1.245940e+001
1.045548e+003, 1.235386e+001
1.046030e+003, 1.237250e+001
1.046512e+003, 1.237176e+001
1.046995e+003, 1.226103e+001
1.047477e+003, 1.222870e+001
1.047959e+003, 1.246035e+001
1.048441e+003, 1.267322e+001
1.048923e+003, 1.261168e+001
1.049405e+003, 1.236366e+001
1.049887e+003, 1.214285e+001
1.050369e+003, 1.196344e+001
1.050852e+003, 1.187239e+001
1.051334e+003, 1.193837e+001
1.051816e+003, 1.201491e+001
1.052298e+003, 1.205676e+001
1.052780e+003, 1.208476e+001
1.053262e+003, 1.211386e+001
1.053744e+003, 1.214454e+001
1.054226e+003, 1.218591e+001
1.054708e+003, 1.224838e+001
1.055191e+003, 1.224620e+001
1.055673e+003, 1.205048e+001
1.056155e+003, 1.192394e+001
1.056637e+003, 1.203089e+001
1.057119e+003, 1.219172e+001
1.057601e+003, 1.227161e+001
1.058083e+003, 1.228365e+001
1.058565e+003, 1.227308e+001
1.059047e+003, 1.224657e+001
1.059530e+003, 1.223185e+001
1.060012e+003, 1.224528e+001
1.060494e+003, 1.226308e+001
1.060976e+003, 1.232936e+001
1.061458e+003, 1.234615e+001
1.061940e+003, 1.217403e+001
1.062422e+003, 1.191224e+001
1.062904e+003, 1.177258e+001
1.063387e+003, 1.179454e+001
1.063869e+003, 1.178163e+001
1.064351e+003, 1.157820e+001
1.064833e+003, 1.143245e+001
1.065315e+003, 1.151168e+001
1.065797e+003, 1.164164e+001
1.066279e+003, 1.165679e+001
1.066761e+003, 1.162306e+001
1.067244e+003, 1.169274e+001
1.067726e+003, 1.188488e+001
1.068208e+003, 1.204098e+001
1.068690e+003, 1.213809e+001
1.069172e+003, 1.213069e+001
1.069654e+003, 1.187342e+001
1.070136e+003, 1.162276e+001
1.070618e+003, 1.162797e+001
1.071100e+003, 1.176646e+001
1.071583e+003, 1.181967e+001
1.072065e+003, 1.175899e+001
1.072547e+003, 1.170426e+001
1.073029e+003, 1.170451e+001
1.073511e+003, 1.171693e+001
1.073993e+003, 1.175582e+001
1.074475e+003, 1.176467e+001
1.074957e+003, 1.164113e+001
1.075439e+003, 1.149135e+001
1.075922e+003, 1.146786e+001
1.076404e+003, 1.158370e+001
1.076886e+003, 1.176367e+001
1.077368e+003, 1.203187e+001
1.077850e+003, 1.224071e+001
1.078332e+003, 1.232901e+001
1.078814e+003, 1.232720e+001
1.079297e+003, 1.222491e+001
1.079779e+003, 1.206654e+001
1.080261e+003, 1.186879e+001
1.080743e+003, 1.166433e+001
1.081225e+003, 1.156433e+001
1.081707e+003, 1.163873e+001
1.082189e+003, 1.170819e+001
1.082671e+003, 1.169915e+001
1.083153e+003, 1.164964e+001
1.083635e+003, 1.149893e+001
1.084118e+003, 1.138266e+001
1.084600e+003, 1.152553e+001
1.085082e+003, 1.184202e+001
1.085564e+003, 1.201196e+001
1.086046e+003, 1.192804e+001
1.086528e+003, 1.178816e+001
1.087010e+003, 1.159744e+001
1.087492e+003, 1.146795e+001
1.087975e+003, 1.149428e+001
1.088457e+003, 1.158616e+001
1.088939e+003, 1.170147e+001
1.089421e+003, 1.179215e+001
1.089903e+003, 1.174562e+001
1.090385e+003, 1.152101e+001
1.090867e+003, 1.136953e+001
1.091349e+003, 1.142304e+001
1.091832e+003, 1.152454e+001
1.092314e+003, 1.164155e+001
1.092796e+003, 1.173994e+001
1.093278e+003, 1.180658e+001
1.093760e+003, 1.182786e+001
1.094242e+003, 1.175092e+001
1.094724e+003, 1.157130e+001
1.095206e+003, 1.148185e+001
1.095688e+003, 1.166763e+001
1.096171e+003, 1.178286e+001
1.096653e+003, 1.156624e+001
1.097135e+003, 1.138407e+001
1.097617e+003, 1.159171e+001
1.098099e+003, 1.194264e+001
1.098581e+003, 1.204054e+001
1.099063e+003, 1.186573e+001
1.099545e+003, 1.172343e+001
1.100027e+003, 1.172097e+001
1.100510e+003, 1.169946e+001
1.100992e+003, 1.158576e+001
1.101474e+003, 1.148000e+001
1.101956e+003, 1.143037e+001
1.102438e+003, 1.142231e+001
1.102920e+003, 1.145138e+001
1.103402e+003, 1.150630e+001
1.103884e+003, 1.153932e+001
1.104367e+003, 1.151710e+001
1.104849e+003, 1.153747e+001
1.105331e+003, 1.168688e+001
1.105813e+003, 1.179360e+001
1.106295e+003, 1.176101e+001
1.106777e+003, 1.168357e+001
1.107259e+003, 1.165084e+001
1.107741e+003, 1.164360e+001
1.108224e+003, 1.158225e+001
1.108706e+003, 1.142349e+001
1.109188e+003, 1.136263e+001
1.109670e+003, 1.149090e+001
1.110152e+003, 1.161580e+001
1.110634e+003, 1.172072e+001
1.111116e+003, 1.178116e+001
1.111598e+003, 1.173392e+001
1.112080e+003, 1.164977e+001
1.112563e+003, 1.170338e+001
1.113045e+003, 1.193472e+001
1.113527e+003, 1.194287e+001
1.114009e+003, 1.149465e+001
1.114491e+003, 1.120223e+001
1.114973e+003, 1.115767e+001
1.115455e+003, 1.123654e+001
1.115937e+003, 1.145556e+001
1.116419e+003, 1.170299e+001
1.116902e+003, 1.182923e+001
1.117384e+003, 1.184373e+001
1.117866e+003, 1.186891e+001
1.118348e+003, 1.195371e+001
1.118830e+003, 1.192522e+001
1.119312e+003, 1.168876e+001
1.119794e+003, 1.151979e+001
1.120276e+003, 1.154773e+001
1.120759e+003, 1.163114e+001
1.121241e+003, 1.165532e+001
1.121723e+003, 1.161791e+001
1.122205e+003, 1.149955e+001
1.122687e+003, 1.126382e+001
1.123169e+003, 1.110058e+001
1.123651e+003, 1.097940e+001
1.124133e+003, 1.105837e+001
1.124615e+003, 1.145167e+001
1.125098e+003, 1.184191e+001
1.125580e+003, 1.203736e+001
1.126062e+003, 1.202898e+001
1.126544e+003, 1.173789e+001
1.127026e+003, 1.117771e+001
1.127508e+003, 1.101122e+001
1.127990e+003, 1.129939e+001
1.128472e+003, 1.144897e+001
1.128954e+003, 1.135374e+001
1.129437e+003, 1.123764e+001
1.129919e+003, 1.120522e+001
1.130401e+003, 1.123255e+001
1.130883e+003, 1.130419e+001
1.131365e+003, 1.139431e+001
1.131847e+003, 1.137625e+001
1.132329e+003, 1.125924e+001
1.132811e+003, 1.123227e+001
1.133294e+003, 1.130756e+001
1.133776e+003, 1.141070e+001
1.134258e+003, 1.151715e+001
1.134740e+003, 1.157006e+001
1.135222e+003, 1.152028e+001
1.135704e+003, 1.139433e+001
1.136186e+003, 1.119845e+001
1.136668e+003, 1.097511e+001
1.137151e+003, 1.089806e+001
1.137633e+003, 1.095681e+001
1.138115e+003, 1.110205e+001
1.138597e+003, 1.130922e+001
1.139079e+003, 1.152133e+001
1.139561e+003, 1.170857e+001
1.140043e+003, 1.180454e+001
1.140525e+003, 1.165493e+001
1.141007e+003, 1.141243e+001
1.141490e+003, 1.139331e+001
1.141972e+003, 1.150250e+001
1.142454e+003, 1.151374e+001
1.142936e+003, 1.143863e+001
1.143418e+003, 1.142413e+001
1.143900e+003, 1.151741e+001
1.144382e+003, 1.165388e+001
1.144864e+003, 1.183024e+001
1.145346e+003, 1.193646e+001
1.145829e+003, 1.178556e+001
1.146311e+003, 1.154964e+001
1.146793e+003, 1.146554e+001
1.147275e+003, 1.146251e+001
1.147757e+003, 1.131118e+001
1.148239e+003, 1.104204e+001
1.148721e+003, 1.100303e+001
1.149203e+003, 1.140599e+001
1.149686e+003, 1.179451e+001
1.150168e+003, 1.188860e+001
1.150650e+003, 1.184601e+001
1.151132e+003, 1.170551e+001
1.151614e+003, 1.155292e+001
1.152096e+003, 1.144586e+001
1.152578e+003, 1.141239e+001
1.153060e+003, 1.154634e+001
1.153542e+003, 1.187792e+001
1.154025e+003, 1.202621e+001
1.154507e+003, 1.173037e+001
1.154989e+003, 1.141000e+001
1.155471e+003, 1.107246e+001
1.155953e+003, 1.090586e+001
1.156435e+003, 1.123729e+001
1.156917e+003, 1.168632e+001
1.157399e+003, 1.163670e+001
1.157881e+003, 1.113306e+001
1.158364e+003, 1.092679e+001
1.158846e+003, 1.128938e+001
1.159328e+003, 1.157151e+001
1.159810e+003, 1.176450e+001
1.160292e+003, 1.182539e+001
1.160774e+003, 1.159867e+001
1.161256e+003, 1.139526e+001
1.161738e+003, 1.150726e+001
1.162221e+003, 1.179780e+001
1.162703e+003, 1.194046e+001
1.163185e+003, 1.192309e+001
1.163667e+003, 1.185424e+001
1.164149e+003, 1.171725e+001
1.164631e+003, 1.157213e+001
1.165113e+003, 1.141043e+001
1.165595e+003, 1.129098e+001
1.166078e+003, 1.124368e+001
1.166560e+003, 1.125199e+001
1.167042e+003, 1.130047e+001
1.167524e+003, 1.138172e+001
1.168006e+003, 1.145651e+001
1.168488e+003, 1.152399e+001
1.168970e+003, 1.162450e+001
1.169452e+003, 1.176071e+001
1.169934e+003, 1.192891e+001
1.170417e+003, 1.212947e+001
1.170899e+003, 1.233048e+001
1.171381e+003, 1.251334e+001
1.171863e+003, 1.264961e+001
1.172345e+003, 1.271470e+001
1.172827e+003, 1.268870e+001
1.173309e+003, 1.237900e+001
1.173791e+003, 1.191508e+001
1.174273e+003, 1.186266e+001
1.174756e+003, 1.221555e+001
1.175238e+003, 1.249074e+001
1.175720e+003, 1.250689e+001
1.176202e+003, 1.255206e+001
1.176684e+003, 1.294772e+001
1.177166e+003, 1.335263e+001
1.177648e+003, 1.321214e+001
1.178130e+003, 1.289962e+001
1.178613e+003, 1.301803e+001
1.179095e+003, 1.338507e+001
1.179577e+003, 1.352649e+001
1.180059e+003, 1.342665e+001
1.180541e+003, 1.346345e+001
1.181023e+003, 1.382970e+001
1.181505e+003, 1.415283e+001
1.181987e+003, 1.411352e+001
1.182469e+003, 1.406732e+001
1.182952e+003, 1.438618e+001
1.183434e+003, 1.469454e+001
1.183916e+003, 1.453251e+001
1.184398e+003, 1.410473e+001
1.184880e+003, 1.384610e+001
1.185362e+003, 1.382124e+001
1.185844e+003, 1.387220e+001
1.186326e+003, 1.406407e+001
1.186808e+003, 1.417191e+001
1.187291e+003, 1.408781e+001
1.187773e+003, 1.399705e+001
1.188255e+003, 1.403315e+001
1.188737e+003, 1.405268e+001
1.189219e+003, 1.387177e+001
1.189701e+003, 1.357470e+001
1.190183e+003, 1.343181e+001
1.190665e+003, 1.348860e+001
1.191148e+003, 1.345391e+001
1.191630e+003, 1.327879e+001
1.192112e+003, 1.315947e+001
1.192594e+003, 1.316679e+001
1.193076e+003, 1.309636e+001
1.193558e+003, 1.278855e+001
1.194040e+003, 1.252238e+001
1.194522e+003, 1.270491e+001
1.195005e+003, 1.317452e+001
1.195487e+003, 1.319797e+001
1.195969e+003, 1.279872e+001
1.196451e+003, 1.264743e+001
1.196933e+003, 1.276490e+001
1.197415e+003, 1.281414e+001
1.197897e+003, 1.270851e+001
1.198379e+003, 1.254006e+001
1.198861e+003, 1.236079e+001
1.199344e+003, 1.221490e+001
1.199826e+003, 1.222322e+001
1.200308e+003, 1.226480e+001
1.200790e+003, 1.199438e+001
1.201272e+003, 1.160015e+001
1.201754e+003, 1.154434e+001
1.202236e+003, 1.175928e+001
1.202718e+003, 1.188521e+001
1.203200e+003, 1.182903e+001
1.203683e+003, 1.176104e+001
1.204165e+003, 1.177621e+001
1.204647e+003, 1.182774e+001
1.205129e+003, 1.193218e+001
1.205611e+003, 1.200349e+001
1.206093e+003, 1.194148e+001
1.206575e+003, 1.182232e+001
1.207057e+003, 1.170486e+001
1.207540e+003, 1.162314e+001
1.208022e+003, 1.165592e+001
1.208504e+003, 1.183376e+001
1.208986e+003, 1.192843e+001
1.209468e+003, 1.181347e+001
1.209950e+003, 1.171884e+001
1.210432e+003, 1.177347e+001
1.210914e+003, 1.176666e+001
1.211396e+003, 1.143852e+001
1.211879e+003, 1.112895e+001
1.212361e+003, 1.126600e+001
1.212843e+003, 1.170676e+001
1.213325e+003, 1.186057e+001
1.213807e+003, 1.164646e+001
1.214289e+003, 1.152862e+001
1.214771e+003, 1.151367e+001
1.215253e+003, 1.159790e+001
1.215735e+003, 1.182411e+001
1.216218e+003, 1.190754e+001
1.216700e+003, 1.166146e+001
1.217182e+003, 1.137520e+001
1.217664e+003, 1.143104e+001
1.218146e+003, 1.169627e+001
1.218628e+003, 1.175377e+001
1.219110e+003, 1.163791e+001
1.219592e+003, 1.150832e+001
1.220075e+003, 1.137947e+001
1.220557e+003, 1.124325e+001
1.221039e+003, 1.111065e+001
1.221521e+003, 1.106143e+001
1.222003e+003, 1.114260e+001
1.222485e+003, 1.126191e+001
1.222967e+003, 1.135457e+001
1.223449e+003, 1.140740e+001
1.223932e+003, 1.142843e+001
1.224414e+003, 1.138258e+001
1.224896e+003, 1.112024e+001
1.225378e+003, 1.079709e+001
1.225860e+003, 1.078554e+001
1.226342e+003, 1.107824e+001
1.226824e+003, 1.120132e+001
1.227306e+003, 1.090227e+001
1.227788e+003, 1.067998e+001
1.228271e+003, 1.073813e+001
1.228753e+003, 1.086071e+001
1.229235e+003, 1.094050e+001
1.229717e+003, 1.106343e+001
1.230199e+003, 1.137035e+001
1.230681e+003, 1.173410e+001
1.231163e+003, 1.194605e+001
1.231645e+003, 1.200540e+001
1.232127e+003, 1.188247e+001
1.232610e+003, 1.144380e+001
1.233092e+003, 1.125873e+001
1.233574e+003, 1.144900e+001
1.234056e+003, 1.152406e+001
1.234538e+003, 1.129082e+001
1.235020e+003, 1.114032e+001
1.235502e+003, 1.139030e+001
1.235984e+003, 1.176587e+001
1.236467e+003, 1.177015e+001
1.236949e+003, 1.149861e+001
1.237431e+003, 1.132885e+001
1.237913e+003, 1.125226e+001
1.238395e+003, 1.127321e+001
1.238877e+003, 1.135622e+001
1.239359e+003, 1.132823e+001
1.239841e+003, 1.115795e+001
1.240323e+003, 1.101877e+001
1.240806e+003, 1.101714e+001
1.241288e+003, 1.111033e+001
1.241770e+003, 1.138227e+001
1.242252e+003, 1.159904e+001
1.242734e+003, 1.146529e+001
1.243216e+003, 1.119022e+001
1.243698e+003, 1.096834e+001
1.244180e+003, 1.085109e+001
1.244662e+003, 1.092503e+001
1.245145e+003, 1.118254e+001
1.245627e+003, 1.134608e+001
1.246109e+003, 1.126224e+001
1.246591e+003, 1.123054e+001
1.247073e+003, 1.140889e+001
1.247555e+003, 1.149906e+001
1.248037e+003, 1.132880e+001
1.248519e+003, 1.112427e+001
1.249002e+003, 1.101987e+001
1.249484e+003, 1.100711e+001
1.249966e+003, 1.107710e+001
1.250448e+003, 1.122646e+001
1.250930e+003, 1.142736e+001
1.251412e+003, 1.170188e+001
1.251894e+003, 1.173685e+001
1.252376e+003, 1.149626e+001
1.252859e+003, 1.140432e+001
1.253341e+003, 1.158784e+001
1.253823e+003, 1.176742e+001
1.254305e+003, 1.174910e+001
1.254787e+003, 1.165898e+001
1.255269e+003, 1.163965e+001
1.255751e+003, 1.169153e+001
1.256233e+003, 1.184803e+001
1.256715e+003, 1.205819e+001
1.257198e+003, 1.226960e+001
1.257680e+003, 1.243887e+001
1.258162e+003, 1.248230e+001
1.258644e+003, 1.239608e+001
1.259126e+003, 1.224568e+001
1.259608e+003, 1.201535e+001
1.260090e+003, 1.189655e+001
1.260572e+003, 1.204543e+001
1.261054e+003, 1.223818e+001
1.261537e+003, 1.241767e+001
1.262019e+003, 1.254992e+001
1.262501e+003, 1.261643e+001
1.262983e+003, 1.261759e+001
1.263465e+003, 1.250972e+001
1.263947e+003, 1.232496e+001
1.264429e+003, 1.231801e+001
1.264911e+003, 1.254416e+001
1.265394e+003, 1.278743e+001
1.265876e+003, 1.310159e+001
1.266358e+003, 1.314045e+001
1.266840e+003, 1.277955e+001
1.267322e+003, 1.247589e+001
1.267804e+003, 1.248279e+001
1.268286e+003, 1.264449e+001
1.268768e+003, 1.279163e+001
1.269250e+003, 1.292098e+001
1.269733e+003, 1.301753e+001
1.270215e+003, 1.309376e+001
1.270697e+003, 1.321078e+001
1.271179e+003, 1.332717e+001
1.271661e+003, 1.330323e+001
1.272143e+003, 1.315789e+001
1.272625e+003, 1.306142e+001
1.273107e+003, 1.307752e+001
1.273589e+003, 1.307832e+001
1.274072e+003, 1.293506e+001
1.274554e+003, 1.283092e+001
1.275036e+003, 1.275273e+001
1.275518e+003, 1.286287e+001
1.276000e+003, 1.356895e+001
1.276482e+003, 1.428295e+001
1.276964e+003, 1.423261e+001
1.277446e+003, 1.365081e+001
1.277929e+003, 1.335684e+001
1.278411e+003, 1.337979e+001
1.278893e+003, 1.340927e+001
1.279375e+003, 1.346787e+001
1.279857e+003, 1.344186e+001
1.280339e+003, 1.330451e+001
1.280821e+003, 1.316512e+001
1.281303e+003, 1.306237e+001
1.281786e+003, 1.297899e+001
1.282268e+003, 1.290016e+001
##END=



