##NAMES=Szenicsite
##RRUFFID=R100179
##IDEAL CHEMISTRY=Cu^2+^_3_Mo^6+^O_4_(OH)_4_
##LOCALITY=Carlota mine, Pinto Creek, Gila, Arizona, USA
##OWNER=RRUFF
##SOURCE=Joe Ruiz
##DESCRIPTION=Green elongated crystals, associated with blue azurite, pale green thick tabular powellite (R100180) and colorless granular prosopite (R100181). 
##STATUS=The identification of this mineral has been confirmed by single-crystal X-ray diffraction.
##URL=rruff.info/R100179
124.3012, 19.00410
124.7834, 20.76288
125.2655, 25.07992
125.7476, 28.19249
126.2297, 26.91920
126.7118, 23.77810
127.1939, 22.46694
127.6761, 23.38301
128.1582, 25.26946
128.6403, 27.07865
129.1224, 28.75545
129.6045, 30.03419
130.0867, 30.03388
130.5688, 29.41619
131.0509, 30.73739
131.5330, 34.89329
132.0151, 39.66001
132.4972, 40.37661
132.9794, 37.03433
133.4615, 34.32985
133.9436, 36.11745
134.4257, 42.05325
134.9078, 47.04919
135.3899, 50.02760
135.8721, 51.98240
136.3542, 56.00914
136.8363, 62.41932
137.3184, 69.54794
137.8005, 75.57822
138.2826, 80.17561
138.7648, 86.60354
139.2469, 95.46444
139.7290, 106.6968
140.2111, 119.3948
140.6932, 134.0570
141.1753, 149.4687
141.6575, 164.1696
142.1396, 177.7866
142.6217, 192.1330
143.1038, 207.6249
143.5859, 224.4486
144.0681, 241.6817
144.5502, 261.0361
145.0323, 279.4181
145.5144, 293.1966
145.9965, 299.0086
146.4786, 305.2579
146.9608, 313.9919
147.4429, 326.0657
147.9250, 337.4558
148.4071, 347.0988
148.8892, 356.4819
149.3713, 367.5515
149.8535, 379.9505
150.3356, 394.5494
150.8177, 411.7766
151.2998, 432.4893
151.7819, 453.9565
152.2640, 476.6332
152.7462, 500.1047
153.2283, 523.1841
153.7104, 544.2921
154.1925, 566.2477
154.6746, 590.4164
155.1567, 619.7440
155.6389, 645.7120
156.1210, 666.2681
156.6031, 682.7627
157.0852, 698.7848
157.5673, 715.5112
158.0495, 731.5482
158.5316, 746.3126
159.0137, 758.8698
159.4958, 771.1674
159.9779, 784.9088
160.4600, 799.1370
160.9422, 810.7267
161.4243, 816.8265
161.9064, 820.9689
162.3885, 825.5063
162.8706, 831.6688
163.3527, 837.6113
163.8349, 843.7709
164.3170, 849.5948
164.7991, 852.4427
165.2812, 849.0613
165.7633, 843.0106
166.2454, 837.4966
166.7276, 833.8407
167.2097, 830.6815
167.6918, 827.7954
168.1739, 825.0370
168.6560, 820.9997
169.1381, 812.3972
169.6203, 802.4647
170.1024, 790.1774
170.5845, 783.7349
171.0666, 778.8444
171.5487, 769.3529
172.0309, 755.6617
172.5130, 741.9960
172.9951, 731.4818
173.4772, 722.8721
173.9593, 714.1978
174.4414, 703.1185
174.9236, 692.4407
175.4057, 686.2877
175.8878, 684.6199
176.3699, 683.1077
176.8520, 677.6018
177.3341, 669.4966
177.8163, 661.7977
178.2984, 655.2102
178.7805, 649.9884
179.2626, 646.6993
179.7447, 645.4257
180.2268, 645.4923
180.7090, 646.9457
181.1911, 649.3607
181.6732, 651.4144
182.1553, 652.1642
182.6374, 652.1830
183.1195, 652.5618
183.6017, 653.3115
184.0838, 654.5256
184.5659, 656.6703
185.0480, 659.5326
185.5301, 662.1456
186.0123, 663.4288
186.4944, 664.0260
186.9765, 666.1263
187.4586, 670.0367
187.9407, 674.6017
188.4228, 678.2770
188.9050, 681.1110
189.3871, 683.8212
189.8692, 686.9268
190.3513, 690.2451
190.8334, 692.3353
191.3155, 692.4239
191.7977, 693.0685
192.2798, 699.2765
192.7619, 711.0297
193.2440, 722.7716
193.7261, 731.9025
194.2082, 738.5328
194.6904, 743.9269
195.1725, 747.6838
195.6546, 751.1565
196.1367, 756.8254
196.6188, 764.8227
197.1009, 773.4554
197.5831, 781.9669
198.0652, 790.4301
198.5473, 798.4224
199.0294, 805.5145
199.5115, 812.6804
199.9937, 822.3391
200.4758, 834.7003
200.9579, 847.3115
201.4400, 858.2314
201.9221, 867.2028
202.4042, 878.3592
202.8864, 892.8712
203.3685, 908.7303
203.8506, 920.5875
204.3327, 927.2663
204.8148, 934.2477
205.2969, 945.0930
205.7791, 960.5628
206.2612, 974.1131
206.7433, 984.7088
207.2254, 993.6769
207.7075, 1004.589
208.1896, 1018.091
208.6718, 1031.749
209.1539, 1044.656
209.6360, 1056.834
210.1181, 1067.440
210.6002, 1075.880
211.0823, 1083.047
211.5645, 1091.866
212.0466, 1103.555
212.5287, 1114.171
213.0108, 1121.696
213.4929, 1125.997
213.9750, 1127.720
214.4572, 1125.544
214.9393, 1121.366
215.4214, 1121.324
215.9035, 1127.533
216.3856, 1133.565
216.8678, 1135.874
217.3499, 1133.782
217.8320, 1130.315
218.3141, 1125.747
218.7962, 1119.846
219.2783, 1111.999
219.7605, 1102.424
220.2426, 1090.564
220.7247, 1076.062
221.2068, 1058.518
221.6889, 1039.448
222.1710, 1018.352
222.6532, 995.9567
223.1353, 975.2238
223.6174, 956.2186
224.0995, 938.4221
224.5816, 921.4401
225.0637, 904.4873
225.5459, 889.9974
226.0280, 878.4691
226.5101, 869.3098
226.9922, 861.0433
227.4743, 853.2211
227.9564, 846.8669
228.4386, 842.5648
228.9207, 841.2225
229.4028, 839.8115
229.8849, 837.7565
230.3670, 835.7051
230.8492, 835.6841
231.3313, 839.0933
231.8134, 842.4056
232.2955, 843.9381
232.7776, 842.6855
233.2597, 841.9300
233.7419, 841.6428
234.2240, 841.9003
234.7061, 842.9316
235.1882, 844.9709
235.6703, 847.4504
236.1524, 850.5394
236.6346, 855.9191
237.1167, 857.7819
237.5988, 854.4078
238.0809, 848.1688
238.5630, 844.7130
239.0451, 845.8514
239.5273, 847.0692
240.0094, 846.4429
240.4915, 843.0728
240.9736, 840.0573
241.4557, 837.0451
241.9378, 834.4896
242.4200, 833.4912
242.9021, 834.9763
243.3842, 836.5364
243.8663, 837.1706
244.3484, 836.3389
244.8306, 836.0980
245.3127, 836.0433
245.7948, 836.7856
246.2769, 839.8255
246.7590, 846.9867
247.2411, 853.2555
247.7233, 856.1198
248.2054, 853.4695
248.6875, 855.6672
249.1696, 865.0381
249.6517, 877.6698
250.1338, 886.9601
250.6160, 890.8268
251.0981, 895.1107
251.5802, 901.3403
252.0623, 909.5013
252.5444, 920.1898
253.0265, 935.0934
253.5087, 951.0775
253.9908, 962.9845
254.4729, 968.4168
254.9550, 974.7946
255.4371, 984.1555
255.9192, 996.5841
256.4014, 1010.787
256.8835, 1027.863
257.3656, 1045.629
257.8477, 1061.641
258.3298, 1074.672
258.8120, 1088.877
259.2941, 1106.107
259.7762, 1126.775
260.2583, 1143.981
260.7404, 1155.840
261.2225, 1166.743
261.7047, 1182.018
262.1868, 1203.313
262.6689, 1224.736
263.1510, 1245.188
263.6331, 1264.526
264.1152, 1284.479
264.5974, 1305.063
265.0795, 1326.046
265.5616, 1346.917
266.0437, 1368.473
266.5258, 1388.220
267.0079, 1404.852
267.4901, 1419.091
267.9722, 1436.075
268.4543, 1456.850
268.9364, 1478.727
269.4185, 1499.601
269.9006, 1519.231
270.3828, 1538.921
270.8649, 1559.050
271.3470, 1579.480
271.8291, 1600.269
272.3112, 1622.228
272.7933, 1642.948
273.2755, 1659.600
273.7576, 1671.256
274.2397, 1685.640
274.7218, 1705.049
275.2039, 1726.787
275.6860, 1742.285
276.1682, 1750.740
276.6503, 1756.526
277.1324, 1762.753
277.6145, 1769.662
278.0966, 1773.419
278.5787, 1773.386
279.0609, 1770.599
279.5430, 1767.404
280.0251, 1764.089
280.5072, 1758.991
280.9893, 1750.592
281.4715, 1739.005
281.9536, 1727.871
282.4357, 1717.566
282.9178, 1707.303
283.3999, 1695.263
283.8820, 1681.274
284.3642, 1667.937
284.8463, 1656.771
285.3284, 1647.488
285.8105, 1637.274
286.2926, 1625.490
286.7747, 1614.398
287.2569, 1607.052
287.7390, 1603.379
288.2211, 1601.852
288.7032, 1601.786
289.1853, 1603.362
289.6674, 1607.540
290.1496, 1614.461
290.6317, 1623.185
291.1138, 1631.376
291.5959, 1639.793
292.0780, 1653.287
292.5602, 1674.976
293.0423, 1702.362
293.5244, 1729.332
294.0065, 1755.736
294.4886, 1782.780
294.9707, 1811.605
295.4529, 1842.277
295.9350, 1874.128
296.4171, 1906.473
296.8992, 1940.885
297.3813, 1980.879
297.8634, 2025.884
298.3456, 2071.791
298.8277, 2113.271
299.3098, 2153.022
299.7919, 2197.343
300.2740, 2248.617
300.7561, 2302.482
301.2383, 2350.185
301.7204, 2393.862
302.2025, 2440.072
302.6846, 2494.006
303.1667, 2553.115
303.6488, 2614.979
304.1310, 2678.851
304.6131, 2744.802
305.0952, 2813.464
305.5773, 2883.776
306.0594, 2952.583
306.5415, 3013.815
307.0237, 3075.295
307.5058, 3149.112
307.9879, 3237.875
308.4700, 3325.406
308.9521, 3401.126
309.4343, 3467.263
309.9164, 3529.587
310.3985, 3597.934
310.8806, 3658.983
311.3627, 3702.867
311.8448, 3729.495
312.3270, 3742.938
312.8091, 3747.301
313.2912, 3739.462
313.7733, 3715.728
314.2554, 3676.689
314.7375, 3619.837
315.2197, 3542.625
315.7018, 3445.163
316.1839, 3333.690
316.6660, 3202.591
317.1481, 3062.375
317.6302, 2922.911
318.1124, 2782.399
318.5945, 2647.060
319.0766, 2516.593
319.5587, 2392.000
320.0408, 2274.688
320.5229, 2164.948
321.0051, 2062.696
321.4872, 1967.512
321.9693, 1880.369
322.4514, 1800.385
322.9335, 1727.203
323.4156, 1661.131
323.8978, 1602.763
324.3799, 1553.949
324.8620, 1511.326
325.3441, 1473.548
325.8262, 1440.627
326.3083, 1413.457
326.7905, 1394.841
327.2726, 1381.063
327.7547, 1367.779
328.2368, 1349.306
328.7189, 1336.948
329.2010, 1334.299
329.6832, 1342.264
330.1653, 1349.888
330.6474, 1354.862
331.1295, 1361.153
331.6116, 1372.315
332.0938, 1392.049
332.5759, 1410.754
333.0580, 1426.100
333.5401, 1438.991
334.0222, 1455.127
334.5043, 1475.446
334.9865, 1497.874
335.4686, 1521.727
335.9507, 1548.029
336.4328, 1573.079
336.9149, 1596.523
337.3970, 1619.031
337.8792, 1641.189
338.3613, 1662.780
338.8434, 1685.503
339.3255, 1710.289
339.8076, 1737.346
340.2898, 1765.976
340.7719, 1796.842
341.2540, 1828.607
341.7361, 1860.038
342.2182, 1890.539
342.7003, 1921.415
343.1825, 1952.862
343.6646, 1985.007
344.1467, 2017.139
344.6288, 2049.861
345.1109, 2080.903
345.5930, 2109.476
346.0752, 2134.991
346.5573, 2155.838
347.0394, 2172.943
347.5215, 2184.130
348.0036, 2184.328
348.4857, 2173.564
348.9679, 2155.583
349.4500, 2131.465
349.9321, 2101.954
350.4142, 2069.926
350.8963, 2036.428
351.3784, 1998.789
351.8606, 1950.566
352.3427, 1894.796
352.8248, 1841.539
353.3069, 1799.261
353.7890, 1762.465
354.2711, 1722.802
354.7533, 1679.539
355.2354, 1635.915
355.7175, 1593.975
356.1996, 1554.087
356.6817, 1516.892
357.1638, 1483.119
357.6460, 1451.842
358.1281, 1422.104
358.6102, 1394.011
359.0923, 1367.424
359.5744, 1343.008
360.0565, 1320.030
360.5387, 1297.686
361.0208, 1274.427
361.5029, 1253.346
361.9850, 1236.705
362.4671, 1223.576
362.9492, 1211.358
363.4314, 1201.623
363.9135, 1190.764
364.3956, 1176.048
364.8777, 1154.200
365.3598, 1135.367
365.8419, 1125.057
366.3241, 1118.303
366.8062, 1107.723
367.2883, 1088.365
367.7704, 1068.864
368.2526, 1051.162
368.7347, 1035.250
369.2168, 1021.336
369.6989, 1011.315
370.1810, 1002.019
370.6631, 990.7957
371.1453, 977.5303
371.6274, 962.3721
372.1095, 944.2629
372.5916, 923.7728
373.0737, 905.2491
373.5558, 888.5057
374.0380, 873.7572
374.5201, 861.2996
375.0022, 852.1395
375.4843, 842.2866
375.9664, 831.3610
376.4485, 819.9108
376.9307, 808.6940
377.4128, 797.8070
377.8949, 787.1285
378.3770, 776.5844
378.8591, 766.2422
379.3412, 756.6400
379.8234, 747.9077
380.3055, 739.7391
380.7876, 732.1212
381.2697, 724.9615
381.7518, 717.5440
382.2339, 708.8696
382.7161, 700.4601
383.1982, 697.0487
383.6803, 698.4764
384.1624, 699.1661
384.6445, 693.6013
385.1266, 684.1808
385.6088, 676.9752
386.0909, 673.2211
386.5730, 670.8605
387.0551, 667.3636
387.5372, 663.3333
388.0193, 660.4436
388.5015, 659.7574
388.9836, 660.5915
389.4657, 662.5270
389.9478, 665.5661
390.4299, 668.7611
390.9120, 671.3429
391.3942, 673.7477
391.8763, 676.4808
392.3584, 680.0865
392.8405, 683.7118
393.3226, 686.1429
393.8047, 687.9278
394.2869, 691.5695
394.7690, 698.6022
395.2511, 707.4144
395.7332, 717.0744
396.2154, 727.5091
396.6975, 738.5936
397.1796, 749.5204
397.6617, 761.3301
398.1438, 775.6702
398.6259, 794.5320
399.1081, 814.3221
399.5902, 833.9551
400.0723, 853.2236
400.5544, 873.7568
401.0365, 895.8228
401.5186, 919.0281
402.0008, 942.5566
402.4829, 964.9391
402.9650, 990.7153
403.4471, 1020.975
403.9292, 1055.118
404.4113, 1089.790
404.8935, 1124.872
405.3756, 1161.187
405.8577, 1199.911
406.3398, 1241.253
406.8219, 1280.571
407.3040, 1317.310
407.7862, 1353.163
408.2683, 1390.214
408.7504, 1428.387
409.2325, 1470.668
409.7146, 1519.175
410.1967, 1572.049
410.6789, 1626.514
411.1610, 1682.612
411.6431, 1740.139
412.1252, 1799.083
412.6073, 1858.999
413.0894, 1917.855
413.5716, 1973.159
414.0537, 2029.082
414.5358, 2092.303
415.0179, 2160.147
415.5000, 2226.136
415.9821, 2287.934
416.4643, 2344.520
416.9464, 2394.949
417.4285, 2438.864
417.9106, 2475.854
418.3927, 2508.114
418.8748, 2532.524
419.3570, 2544.854
419.8391, 2544.129
420.3212, 2530.897
420.8033, 2504.750
421.2854, 2466.068
421.7675, 2416.448
422.2497, 2353.109
422.7318, 2281.461
423.2139, 2204.229
423.6960, 2119.923
424.1781, 2034.493
424.6602, 1948.795
425.1424, 1862.569
425.6245, 1776.133
426.1066, 1686.213
426.5887, 1601.624
427.0709, 1525.043
427.5530, 1456.449
428.0351, 1392.378
428.5172, 1332.461
428.9993, 1276.551
429.4814, 1224.370
429.9636, 1175.916
430.4457, 1131.055
430.9278, 1089.481
431.4099, 1051.778
431.8920, 1020.658
432.3741, 996.6852
432.8563, 972.7298
433.3384, 943.8586
433.8205, 911.3925
434.3026, 885.9534
434.7847, 867.9186
435.2668, 852.7826
435.7490, 835.5493
436.2311, 817.1958
436.7132, 801.9993
437.1953, 791.9103
437.6774, 784.2637
438.1595, 775.5270
438.6417, 765.9730
439.1238, 756.7253
439.6059, 748.3392
440.0880, 740.6721
440.5701, 733.5670
441.0522, 726.9725
441.5344, 721.0217
442.0165, 716.2912
442.4986, 712.0833
442.9807, 707.5663
443.4628, 700.6751
443.9449, 695.1740
444.4271, 693.5095
444.9092, 694.9534
445.3913, 695.3055
445.8734, 691.2417
446.3555, 687.5785
446.8376, 686.9931
447.3198, 692.1381
447.8019, 695.4436
448.2840, 695.5186
448.7661, 694.1716
449.2482, 693.8860
449.7303, 695.1082
450.2125, 696.6870
450.6946, 698.6879
451.1767, 701.0211
451.6588, 701.7889
452.1409, 699.9181
452.6230, 698.9870
453.1052, 702.4453
453.5873, 710.8316
454.0694, 716.4417
454.5515, 717.9697
455.0337, 717.9602
455.5158, 720.0956
455.9979, 724.3759
456.4800, 730.6039
456.9621, 740.2241
457.4442, 751.3416
457.9264, 759.1823
458.4085, 763.8255
458.8906, 768.0850
459.3727, 772.9208
459.8548, 779.1639
460.3369, 788.0890
460.8191, 800.2818
461.3012, 814.7280
461.7833, 832.7881
462.2654, 852.4766
462.7475, 869.5892
463.2296, 879.8156
463.7118, 889.2292
464.1939, 900.4149
464.6760, 913.6216
465.1581, 929.9841
465.6402, 952.5848
466.1223, 976.6750
466.6045, 998.6224
467.0866, 1013.496
467.5687, 1031.604
468.0508, 1055.543
468.5329, 1082.966
469.0150, 1109.172
469.4972, 1134.067
469.9793, 1157.362
470.4614, 1178.324
470.9435, 1196.799
471.4256, 1216.399
471.9077, 1237.985
472.3899, 1259.014
472.8720, 1277.770
473.3541, 1294.628
473.8362, 1307.150
474.3183, 1314.724
474.8004, 1318.496
475.2826, 1322.068
475.7647, 1325.031
476.2468, 1321.619
476.7289, 1306.611
477.2110, 1283.498
477.6931, 1260.161
478.1753, 1236.581
478.6574, 1211.193
479.1395, 1181.559
479.6216, 1149.614
480.1037, 1118.045
480.5858, 1087.005
481.0680, 1057.292
481.5501, 1030.337
482.0322, 1005.027
482.5143, 979.2790
482.9964, 949.2013
483.4786, 921.1688
483.9607, 899.3033
484.4428, 884.5313
484.9249, 868.2618
485.4070, 846.4708
485.8892, 824.2977
486.3713, 805.4394
486.8534, 792.4549
487.3355, 779.3049
487.8176, 765.6136
488.2997, 751.7854
488.7819, 738.2722
489.2640, 724.7061
489.7461, 712.1323
490.2282, 700.7576
490.7103, 690.5193
491.1924, 682.5442
491.6746, 677.2626
492.1567, 672.2321
492.6388, 664.6478
493.1209, 654.9117
493.6030, 647.7076
494.0851, 643.9443
494.5673, 641.7667
495.0494, 638.9129
495.5315, 635.4642
496.0136, 631.8290
496.4957, 627.6476
496.9778, 623.6869
497.4600, 620.5976
497.9421, 618.3989
498.4242, 617.0289
498.9063, 617.5646
499.3884, 618.2700
499.8705, 617.5401
500.3527, 614.6017
500.8348, 611.3788
501.3169, 608.3946
501.7990, 605.6277
502.2811, 603.0297
502.7632, 602.8862
503.2454, 600.4878
503.7275, 593.4960
504.2096, 582.5154
504.6917, 573.9444
505.1738, 570.2110
505.6559, 565.7467
506.1381, 557.0209
506.6202, 542.1608
507.1023, 530.9315
507.5844, 524.2278
508.0665, 519.5676
508.5486, 514.0851
509.0308, 507.7489
509.5129, 500.4420
509.9950, 491.2671
510.4771, 481.8987
510.9592, 476.6263
511.4413, 475.0574
511.9235, 473.2515
512.4056, 468.1584
512.8877, 461.4683
513.3698, 455.5739
513.8519, 450.6790
514.3340, 446.1649
514.8162, 441.8593
515.2983, 437.5754
515.7804, 433.0610
516.2625, 427.7164
516.7446, 422.7940
517.2267, 418.6305
517.7089, 415.2857
518.1910, 412.9593
518.6731, 413.1708
519.1552, 413.0257
519.6373, 411.1920
520.1194, 407.4136
520.6016, 404.6290
521.0837, 403.3943
521.5658, 402.5594
522.0479, 401.3671
522.5300, 399.8399
523.0121, 397.8446
523.4943, 395.2183
523.9764, 392.3222
524.4585, 389.7117
524.9406, 387.4279
525.4227, 385.4896
525.9048, 384.0872
526.3870, 382.9594
526.8691, 381.1138
527.3513, 378.6284
527.8334, 376.7607
528.3155, 376.9186
528.7976, 378.0571
529.2797, 378.7323
529.7618, 378.7759
530.2440, 378.3137
530.7261, 377.0354
531.2082, 375.4257
531.6903, 374.1290
532.1724, 373.2828
532.6545, 372.8359
533.1367, 373.0364
533.6188, 373.6662
534.1009, 373.9583
534.5830, 373.3996
535.0651, 372.8711
535.5472, 372.7083
536.0294, 372.9883
536.5115, 373.1732
536.9936, 373.6638
537.4757, 373.5052
537.9578, 371.5935
538.4399, 367.5202
538.9221, 364.1547
539.4042, 361.7424
539.8863, 360.1708
540.3684, 359.3664
540.8505, 359.2909
541.3326, 359.5182
541.8148, 360.1244
542.2969, 360.7744
542.7790, 361.0421
543.2611, 360.8874
543.7432, 360.0258
544.2253, 357.2104
544.7075, 354.1508
545.1896, 352.9331
545.6717, 354.2143
546.1538, 355.1929
546.6359, 353.7310
547.1180, 351.5716
547.6002, 350.5861
548.0823, 352.8268
548.5644, 354.4101
549.0465, 354.2213
549.5286, 352.8559
550.0107, 352.0679
550.4929, 352.2995
550.9750, 352.4366
551.4571, 352.0851
551.9392, 351.2383
552.4213, 350.4652
552.9034, 349.7041
553.3856, 349.1875
553.8677, 349.1975
554.3498, 349.6896
554.8319, 350.2936
555.3140, 351.1278
555.7961, 351.4892
556.2783, 349.6620
556.7604, 346.5403
557.2425, 344.7696
557.7246, 346.5762
558.2067, 348.8509
558.6888, 348.0471
559.1710, 345.0352
559.6531, 342.7613
560.1352, 343.3658
560.6173, 344.6016
561.0994, 345.0031
561.5815, 344.2786
562.0637, 344.2551
562.5458, 346.2965
563.0279, 348.5049
563.5100, 349.4534
563.9921, 347.7742
564.4742, 347.3456
564.9564, 349.0189
565.4385, 351.3699
565.9206, 351.7984
566.4027, 349.8986
566.8848, 348.0228
567.3669, 346.6841
567.8491, 345.9303
568.3312, 346.2940
568.8133, 347.7242
569.2954, 348.9326
569.7775, 348.8409
570.2596, 348.0281
570.7418, 347.5165
571.2239, 347.3679
571.7060, 347.3726
572.1881, 347.5388
572.6702, 347.6989
573.1523, 347.6762
573.6345, 347.4552
574.1166, 346.9962
574.5987, 345.9640
575.0808, 344.7523
575.5629, 343.9990
576.0450, 344.0237
576.5272, 344.3000
577.0093, 344.6689
577.4914, 345.1773
577.9735, 346.3628
578.4556, 348.9072
578.9377, 350.7002
579.4199, 350.3304
579.9020, 347.7501
580.3841, 346.2786
580.8662, 346.0638
581.3483, 346.1994
581.8304, 345.4828
582.3126, 344.3271
582.7947, 344.2323
583.2768, 345.6079
583.7589, 347.7054
584.2410, 350.6825
584.7231, 353.7157
585.2053, 355.1763
585.6874, 352.8251
586.1696, 350.1448
586.6517, 348.6284
587.1338, 348.2626
587.6159, 348.9033
588.0980, 352.1723
588.5801, 354.9496
589.0623, 355.4615
589.5444, 353.1543
590.0265, 352.3493
590.5086, 353.7057
590.9907, 355.7248
591.4728, 357.4276
591.9550, 358.8728
592.4371, 359.4056
592.9192, 358.6900
593.4013, 357.7477
593.8834, 358.2790
594.3655, 360.0513
594.8477, 361.6095
595.3298, 362.6042
595.8119, 362.9952
596.2940, 361.7774
596.7761, 359.6962
597.2582, 359.2118
597.7404, 364.6100
598.2225, 369.7644
598.7046, 369.0070
599.1867, 362.1427
599.6688, 357.9020
600.1509, 361.1952
600.6331, 366.2172
601.1152, 369.3915
601.5973, 369.9249
602.0794, 370.1996
602.5615, 370.2368
603.0436, 369.9919
603.5258, 369.3199
604.0079, 368.1073
604.4900, 367.0760
604.9721, 366.2828
605.4542, 365.8407
605.9363, 366.2470
606.4185, 367.3893
606.9006, 368.2589
607.3827, 368.2579
607.8648, 367.7991
608.3469, 367.1487
608.8290, 366.4333
609.3112, 366.3997
609.7933, 368.1268
610.2754, 370.2497
610.7575, 371.8222
611.2396, 372.6849
611.7217, 373.1494
612.2039, 372.8097
612.6860, 372.3898
613.1681, 372.4763
613.6502, 373.7695
614.1323, 374.3502
614.6144, 374.0312
615.0966, 373.1312
615.5787, 371.9175
616.0608, 370.2668
616.5429, 369.1972
617.0250, 369.1107
617.5071, 369.5615
617.9893, 369.6443
618.4714, 369.3708
618.9535, 368.8179
619.4356, 367.5294
619.9177, 366.2548
620.3998, 366.1742
620.8820, 367.1684
621.3641, 368.0576
621.8462, 367.5106
622.3283, 367.0783
622.8104, 368.1093
623.2925, 371.2550
623.7747, 373.8740
624.2568, 375.8984
624.7389, 376.9166
625.2210, 376.4185
625.7031, 373.0892
626.1852, 371.1780
626.6674, 371.2539
627.1495, 372.4587
627.6316, 373.4653
628.1137, 374.2627
628.5958, 375.1799
629.0779, 376.4749
629.5601, 377.7625
630.0422, 377.9315
630.5243, 377.2724
631.0064, 377.1529
631.4885, 379.3395
631.9706, 381.7400
632.4528, 382.0579
632.9349, 380.4201
633.4170, 379.0398
633.8991, 379.2237
634.3812, 379.7122
634.8633, 379.3632
635.3455, 376.9750
635.8276, 377.5599
636.3097, 383.9786
636.7918, 390.8450
637.2739, 393.2000
637.7560, 389.5246
638.2382, 387.4935
638.7203, 388.1351
639.2024, 389.7951
639.6845, 390.2252
640.1666, 389.4556
640.6487, 387.5752
641.1309, 383.6389
641.6130, 379.9478
642.0951, 380.8185
642.5772, 384.7334
643.0594, 387.3897
643.5415, 385.0569
644.0236, 382.2741
644.5057, 382.2542
644.9879, 384.6917
645.4700, 385.8992
645.9521, 383.7803
646.4342, 381.3863
646.9163, 380.0505
647.3984, 379.9196
647.8806, 379.9661
648.3627, 380.5343
648.8448, 380.6652
649.3269, 378.8431
649.8090, 375.0859
650.2911, 374.5828
650.7733, 378.4335
651.2554, 382.3579
651.7375, 380.2226
652.2196, 374.2276
652.7017, 369.8323
653.1838, 369.0771
653.6660, 369.3066
654.1481, 368.1150
654.6302, 366.5326
655.1123, 366.3770
655.5944, 370.8280
656.0765, 374.0562
656.5587, 373.3682
657.0408, 369.6808
657.5229, 367.5241
658.0050, 368.0053
658.4871, 368.0963
658.9692, 366.0406
659.4514, 362.3018
659.9335, 362.8567
660.4156, 368.2247
660.8977, 373.5605
661.3798, 374.9148
661.8619, 373.5708
662.3441, 373.1650
662.8262, 373.9424
663.3083, 374.3062
663.7904, 372.0423
664.2725, 369.1386
664.7546, 368.0524
665.2368, 370.2282
665.7189, 371.6300
666.2010, 369.8363
666.6831, 367.0578
667.1652, 365.8760
667.6473, 367.5223
668.1295, 368.8220
668.6116, 369.1978
669.0937, 369.3925
669.5758, 371.4236
670.0579, 375.6874
670.5400, 377.8013
671.0222, 375.3873
671.5043, 371.2127
671.9864, 371.6124
672.4685, 375.7371
672.9506, 379.4075
673.4327, 380.1098
673.9149, 379.4097
674.3970, 377.8706
674.8791, 375.8266
675.3612, 375.3709
675.8433, 379.4034
676.3254, 383.4884
676.8076, 385.0004
677.2897, 383.2544
677.7718, 382.5612
678.2539, 383.5411
678.7360, 384.7342
679.2181, 384.9807
679.7003, 384.1023
680.1824, 384.3703
680.6645, 386.0536
681.1466, 388.0333
681.6287, 388.9061
682.1108, 389.0956
682.5930, 389.9213
683.0751, 391.9375
683.5572, 393.6132
684.0393, 393.4662
684.5214, 392.2139
685.0035, 390.8922
685.4857, 389.0057
685.9678, 388.0226
686.4499, 389.2800
686.9320, 391.5730
687.4141, 392.2110
687.8962, 390.2491
688.3784, 388.3914
688.8605, 387.2328
689.3426, 386.6002
689.8247, 385.8497
690.3068, 384.9635
690.7889, 384.3831
691.2711, 384.8227
691.7532, 385.4853
692.2353, 384.0862
692.7174, 381.0705
693.1995, 379.1572
693.6816, 382.2161
694.1638, 385.3769
694.6459, 383.9275
695.1280, 377.2781
695.6101, 372.9831
696.0922, 374.8787
696.5743, 378.0179
697.0565, 379.7361
697.5386, 379.6631
698.0207, 379.8875
698.5028, 380.6906
698.9849, 381.2065
699.4670, 380.4930
699.9492, 378.6528
700.4313, 376.5753
700.9135, 374.2543
701.3956, 372.3644
701.8777, 371.5449
702.3598, 371.6834
702.8419, 372.7628
703.3240, 375.4717
703.8062, 377.6762
704.2883, 377.9882
704.7704, 377.1731
705.2525, 376.3455
705.7346, 375.1099
706.2167, 374.6720
706.6989, 375.6435
707.1810, 377.2667
707.6631, 377.7279
708.1452, 376.8104
708.6273, 376.0180
709.1094, 375.8094
709.5916, 376.0109
710.0737, 376.4431
710.5558, 377.0045
711.0379, 377.1764
711.5200, 376.2188
712.0021, 375.0911
712.4843, 374.4443
712.9664, 374.3140
713.4485, 374.8199
713.9306, 376.9069
714.4127, 378.8101
714.8948, 379.5160
715.3770, 379.0100
715.8591, 378.8372
716.3412, 378.9208
716.8233, 379.4908
717.3054, 381.1268
717.7875, 383.7426
718.2697, 384.2004
718.7518, 382.3235
719.2339, 380.7808
719.7160, 382.5638
720.1981, 385.9322
720.6802, 388.0152
721.1624, 388.3456
721.6445, 388.6078
722.1266, 390.4538
722.6087, 392.2715
723.0908, 392.4487
723.5729, 388.9665
724.0551, 387.5540
724.5372, 389.3853
725.0193, 392.4859
725.5014, 395.0241
725.9835, 397.0151
726.4656, 398.1476
726.9478, 398.0892
727.4299, 398.0069
727.9120, 399.9315
728.3941, 403.2538
728.8762, 405.9670
729.3583, 407.4236
729.8405, 408.3014
730.3226, 408.8026
730.8047, 409.1905
731.2868, 409.8832
731.7689, 410.6234
732.2510, 412.1358
732.7332, 415.5744
733.2153, 419.6780
733.6974, 421.7188
734.1795, 420.6593
734.6616, 420.4320
735.1437, 422.3360
735.6259, 425.3882
736.1080, 426.8546
736.5901, 426.9180
737.0722, 427.2254
737.5543, 429.4246
738.0364, 431.6148
738.5186, 430.5054
739.0007, 427.2399
739.4828, 425.8712
739.9649, 430.5087
740.4470, 435.1697
740.9291, 436.8613
741.4113, 435.7052
741.8934, 435.4924
742.3755, 436.5308
742.8576, 438.0007
743.3397, 439.8078
743.8218, 441.8344
744.3040, 443.0367
744.7861, 443.3974
745.2682, 443.3504
745.7503, 442.9766
746.2324, 442.4677
746.7145, 442.0334
747.1967, 441.6983
747.6788, 441.7373
748.1609, 441.8126
748.6430, 442.6865
749.1251, 445.2752
749.6072, 450.2467
750.0894, 453.7073
750.5715, 454.5103
751.0536, 455.1416
751.5357, 457.4680
752.0178, 461.7834
752.4999, 464.0677
752.9821, 464.0454
753.4642, 463.8742
753.9463, 465.7786
754.4284, 468.9557
754.9105, 471.7826
755.3926, 474.0441
755.8748, 476.2707
756.3569, 478.6098
756.8390, 481.2003
757.3211, 484.2276
757.8032, 487.8669
758.2853, 491.5628
758.7675, 495.1594
759.2496, 498.8849
759.7318, 502.9664
760.2139, 507.3659
760.6960, 512.3771
761.1781, 518.2397
761.6602, 523.8524
762.1423, 527.5865
762.6245, 530.0531
763.1066, 532.6738
763.5887, 535.7150
764.0708, 539.1025
764.5529, 542.3561
765.0350, 546.0742
765.5172, 550.9672
765.9993, 560.1133
766.4814, 566.3357
766.9635, 567.7507
767.4456, 567.2791
767.9277, 568.8552
768.4099, 572.8905
768.8920, 576.2128
769.3741, 578.1671
769.8562, 579.6244
770.3383, 582.3223
770.8204, 585.6067
771.3026, 587.5383
771.7847, 586.6506
772.2668, 585.9034
772.7489, 588.1131
773.2310, 591.5861
773.7131, 593.6332
774.1953, 593.3009
774.6774, 591.8909
775.1595, 588.6104
775.6416, 584.9362
776.1237, 583.7408
776.6058, 585.2997
777.0880, 587.2944
777.5701, 589.2843
778.0522, 591.2004
778.5343, 592.8247
779.0164, 594.2534
779.4985, 595.7465
779.9807, 596.7689
780.4628, 598.6305
780.9449, 603.0781
781.4270, 608.8212
781.9091, 613.2823
782.3912, 614.3392
782.8734, 616.0037
783.3555, 618.6906
783.8376, 622.4026
784.3197, 627.1722
784.8018, 633.0873
785.2839, 639.6364
785.7661, 646.9244
786.2482, 654.3535
786.7303, 660.3098
787.2124, 665.4559
787.6945, 671.8350
788.1766, 681.0031
788.6588, 691.0252
789.1409, 700.8444
789.6230, 710.8197
790.1051, 722.3094
790.5872, 735.1105
791.0693, 749.7890
791.5515, 766.6405
792.0336, 785.2817
792.5157, 804.5132
792.9978, 824.3448
793.4799, 843.4020
793.9620, 860.5490
794.4442, 877.6214
794.9263, 896.8231
795.4084, 918.3854
795.8905, 943.1136
796.3726, 973.3215
796.8547, 1004.602
797.3369, 1035.341
797.8190, 1065.821
798.3011, 1097.536
798.7832, 1131.578
799.2653, 1165.066
799.7474, 1196.539
800.2296, 1227.569
800.7117, 1263.764
801.1938, 1304.548
801.6759, 1343.635
802.1580, 1377.010
802.6401, 1408.862
803.1223, 1443.647
803.6044, 1480.538
804.0865, 1516.718
804.5686, 1551.142
805.0507, 1585.041
805.5328, 1617.906
806.0150, 1650.849
806.4971, 1687.678
806.9792, 1730.220
807.4613, 1770.825
807.9434, 1807.300
808.4255, 1840.683
808.9077, 1875.520
809.3898, 1910.573
809.8719, 1940.362
810.3540, 1962.589
810.8361, 1978.423
811.3182, 1990.236
811.8004, 1996.214
812.2825, 1992.417
812.7646, 1974.759
813.2467, 1950.371
813.7288, 1919.799
814.2109, 1883.858
814.6931, 1843.646
815.1752, 1797.962
815.6573, 1756.286
816.1394, 1721.165
816.6215, 1691.119
817.1037, 1663.725
817.5858, 1639.508
818.0679, 1619.133
818.5500, 1602.040
819.0322, 1589.745
819.5143, 1584.015
819.9964, 1583.605
820.4785, 1586.595
820.9606, 1594.949
821.4427, 1601.729
821.9249, 1603.761
822.4070, 1605.882
822.8891, 1620.067
823.3712, 1645.111
823.8533, 1667.286
824.3354, 1681.519
824.8176, 1694.287
825.2997, 1712.404
825.7818, 1734.248
826.2639, 1756.630
826.7460, 1779.142
827.2281, 1801.617
827.7103, 1825.151
828.1924, 1848.425
828.6745, 1869.830
829.1566, 1888.636
829.6387, 1908.262
830.1208, 1929.895
830.6030, 1950.443
831.0851, 1963.164
831.5672, 1970.441
832.0493, 1979.406
832.5314, 1993.275
833.0135, 2005.345
833.4957, 2011.954
833.9778, 2013.612
834.4599, 2010.945
834.9420, 2002.020
835.4241, 1991.445
835.9063, 1979.346
836.3884, 1965.555
836.8705, 1951.363
837.3526, 1936.602
837.8347, 1913.491
838.3168, 1879.776
838.7990, 1843.124
839.2811, 1810.925
839.7632, 1780.535
840.2453, 1748.359
840.7274, 1712.953
841.2095, 1677.089
841.6917, 1639.586
842.1738, 1603.527
842.6559, 1571.308
843.1380, 1544.669
843.6201, 1515.126
844.1022, 1481.740
844.5844, 1448.697
845.0665, 1420.094
845.5486, 1394.824
846.0307, 1370.232
846.5128, 1345.941
846.9949, 1323.280
847.4771, 1303.234
847.9592, 1285.121
848.4413, 1268.884
848.9234, 1255.053
849.4055, 1239.745
849.8876, 1220.683
850.3698, 1203.847
850.8519, 1193.922
851.3340, 1190.189
851.8161, 1183.951
852.2982, 1175.218
852.7803, 1166.337
853.2625, 1157.545
853.7446, 1150.489
854.2267, 1147.311
854.7088, 1147.815
855.1909, 1148.816
855.6730, 1150.176
856.1552, 1150.851
856.6373, 1149.618
857.1194, 1147.084
857.6015, 1148.394
858.0836, 1153.937
858.5657, 1160.585
859.0479, 1166.897
859.5300, 1173.432
860.0121, 1181.080
860.4942, 1189.806
860.9763, 1199.463
861.4584, 1208.391
861.9406, 1219.639
862.4227, 1236.193
862.9048, 1256.357
863.3869, 1273.138
863.8690, 1283.959
864.3511, 1298.220
864.8333, 1318.954
865.3154, 1343.472
865.7975, 1367.106
866.2796, 1390.220
866.7617, 1414.610
867.2438, 1440.664
867.7260, 1468.976
868.2081, 1500.700
868.6902, 1535.007
869.1723, 1571.137
869.6544, 1610.504
870.1365, 1650.037
870.6187, 1688.870
871.1008, 1728.556
871.5829, 1769.683
872.0650, 1812.439
872.5471, 1861.374
873.0292, 1917.989
873.5114, 1976.646
873.9935, 2029.160
874.4756, 2081.354
874.9577, 2140.751
875.4399, 2210.895
875.9220, 2283.754
876.4041, 2354.986
876.8862, 2429.785
877.3683, 2511.178
877.8505, 2599.190
878.3326, 2693.434
878.8147, 2793.411
879.2968, 2900.381
879.7789, 3015.703
880.2610, 3137.044
880.7432, 3260.172
881.2253, 3385.271
881.7074, 3523.187
882.1895, 3673.025
882.6716, 3842.599
883.1537, 4035.440
883.6359, 4250.213
884.1180, 4496.934
884.6001, 4779.285
885.0822, 5082.861
885.5643, 5401.923
886.0464, 5736.833
886.5286, 6093.468
887.0107, 6468.139
887.4928, 6848.474
887.9749, 7200.081
888.4570, 7572.905
888.9391, 7988.362
889.4213, 8445.138
889.9034, 8933.228
890.3855, 9435.754
890.8676, 9992.449
891.3497, 10612.29
891.8318, 11290.71
892.3140, 12052.00
892.7961, 12887.41
893.2782, 13768.33
893.7603, 14684.09
894.2424, 15629.17
894.7245, 16630.65
895.2067, 17631.20
895.6888, 18574.61
896.1709, 19543.96
896.6530, 20297.28
897.1351, 20861.64
897.6172, 21157.20
898.0994, 21115.14
898.5815, 20732.88
899.0636, 19926.98
899.5457, 18687.14
900.0278, 17235.36
900.5099, 15592.51
900.9921, 13920.76
901.4742, 12317.82
901.9563, 10799.19
902.4384, 9451.222
902.9205, 8308.964
903.4026, 7322.386
903.8848, 6472.628
904.3669, 5760.963
904.8490, 5147.062
905.3311, 4632.674
905.8132, 4190.404
906.2953, 3810.459
906.7775, 3484.130
907.2596, 3204.079
907.7417, 2966.541
908.2238, 2754.065
908.7059, 2568.792
909.1880, 2404.781
909.6702, 2262.875
910.1523, 2139.837
910.6344, 2029.417
911.1165, 1931.545
911.5986, 1842.533
912.0807, 1761.556
912.5629, 1688.621
913.0450, 1625.981
913.5271, 1570.858
914.0092, 1517.948
914.4913, 1464.529
914.9734, 1417.884
915.4556, 1381.267
915.9377, 1349.446
916.4198, 1317.445
916.9019, 1284.962
917.3840, 1258.028
917.8661, 1237.111
918.3483, 1219.507
918.8304, 1204.235
919.3125, 1189.728
919.7946, 1172.783
920.2767, 1153.187
920.7589, 1137.900
921.2410, 1132.774
921.7231, 1128.606
922.2052, 1121.445
922.6873, 1111.836
923.1694, 1104.799
923.6516, 1100.445
924.1337, 1096.509
924.6158, 1093.029
925.0979, 1088.288
925.5800, 1079.599
926.0621, 1067.912
926.5443, 1055.481
927.0264, 1042.246
927.5085, 1029.415
927.9906, 1017.498
928.4727, 1005.758
928.9548, 993.2609
929.4370, 980.0819
929.9191, 965.4731
930.4012, 949.1771
930.8833, 932.6613
931.3654, 918.8690
931.8475, 905.4216
932.3297, 888.0939
932.8118, 864.4964
933.2939, 843.3135
933.7761, 828.9642
934.2582, 815.1650
934.7403, 798.2931
935.2224, 778.1147
935.7045, 758.9083
936.1866, 740.5210
936.6688, 723.0745
937.1509, 706.5273
937.6330, 690.9997
938.1151, 677.0509
938.5972, 664.3227
939.0793, 651.6584
939.5615, 637.6273
940.0436, 624.7530
940.5257, 613.8195
941.0078, 604.4235
941.4899, 596.5074
941.9720, 589.9730
942.4542, 581.8771
942.9363, 570.4617
943.4184, 559.2134
943.9005, 552.2646
944.3826, 547.7396
944.8647, 542.8022
945.3469, 536.1345
945.8290, 530.4178
946.3111, 526.3068
946.7932, 522.5809
947.2753, 517.6330
947.7574, 511.5956
948.2396, 509.6150
948.7217, 511.8886
949.2038, 512.3271
949.6859, 503.0786
950.1680, 492.1923
950.6501, 487.9665
951.1323, 490.3398
951.6144, 489.2965
952.0965, 480.7798
952.5786, 473.8091
953.0607, 471.6546
953.5428, 472.5617
954.0250, 471.6704
954.5071, 469.0936
954.9892, 465.2961
955.4713, 459.3100
955.9534, 454.1789
956.4355, 453.4570
956.9177, 454.5753
957.3998, 453.6825
957.8819, 448.1003
958.3640, 444.8762
958.8461, 444.8393
959.3282, 445.7880
959.8104, 445.2901
960.2925, 443.8443
960.7746, 443.3987
961.2567, 444.1012
961.7388, 444.3668
962.2209, 442.4402
962.7031, 440.3393
963.1852, 439.7761
963.6673, 440.6687
964.1494, 440.1517
964.6315, 437.6992
965.1136, 435.7118
965.5958, 435.4302
966.0779, 435.7866
966.5600, 433.9475
967.0421, 430.8883
967.5242, 429.3866
968.0063, 432.4824
968.4885, 434.6007
968.9706, 432.1408
969.4527, 428.4115
969.9348, 427.7098
970.4169, 431.0180
970.8990, 432.6996
971.3812, 432.4709
971.8633, 430.4145
972.3454, 425.1221
972.8275, 418.7904
973.3096, 415.0472
973.7917, 414.1923
974.2739, 412.5785
974.7560, 408.2420
975.2381, 403.5531
975.7202, 398.8585
976.2023, 394.5616
976.6844, 393.4079
977.1666, 395.3351
977.6487, 395.7350
978.1308, 392.1556
978.6129, 387.2084
979.0950, 382.5986
979.5771, 378.7772
980.0593, 376.4408
980.5414, 376.5134
981.0235, 377.2449
981.5056, 379.3891
981.9877, 380.9605
982.4698, 379.1978
982.9520, 374.8228
983.4341, 372.7378
983.9162, 373.2263
984.3983, 373.6503
984.8804, 371.8762
985.3625, 369.5182
985.8447, 367.4344
986.3268, 365.7729
986.8089, 365.3094
987.2910, 366.5616
987.7731, 367.6010
988.2552, 367.9093
988.7374, 367.5117
989.2195, 365.8942
989.7016, 363.6398
990.1837, 362.4028
990.6658, 363.6195
991.1479, 364.1790
991.6301, 361.5241
992.1122, 358.4413
992.5944, 357.8516
993.0765, 360.4631
993.5586, 361.5143
994.0407, 360.7717
994.5228, 359.9630
995.0049, 361.7268
995.4871, 363.5268
995.9692, 360.8265
996.4513, 354.3419
996.9334, 350.0810
997.4155, 352.0284
997.8976, 353.9004
998.3798, 354.1818
998.8619, 353.4676
999.3440, 353.4533
999.8261, 353.9584
1000.308, 353.1490
1000.790, 350.2513
1001.272, 346.9385
1001.755, 343.9409
1002.237, 341.6166
1002.719, 340.5427
1003.201, 341.3475
1003.683, 341.4942
1004.165, 340.7406
1004.647, 339.9493
1005.129, 339.7658
1005.612, 339.9603
1006.094, 340.0509
1006.576, 339.9540
1007.058, 339.2701
1007.540, 336.3262
1008.022, 334.3934
1008.504, 336.0209
1008.986, 339.0664
1009.468, 339.6108
1009.951, 337.2123
1010.433, 335.9187
1010.915, 336.4351
1011.397, 337.6974
1011.879, 338.8862
1012.361, 339.8887
1012.843, 340.7199
1013.325, 341.4638
1013.807, 341.0961
1014.290, 338.7111
1014.772, 336.3198
1015.254, 334.8268
1015.736, 334.0197
1016.218, 333.1383
1016.700, 332.1334
1017.182, 330.6324
1017.664, 326.9166
1018.147, 324.6782
1018.629, 328.1602
1019.111, 333.8642
1019.593, 336.3441
1020.075, 334.2536
1020.557, 332.6501
1021.039, 331.8998
1021.521, 331.0146
1022.003, 328.6501
1022.486, 325.6639
1022.968, 323.2959
1023.450, 321.6874
1023.932, 321.4158
1024.414, 324.8226
1024.896, 327.0600
1025.378, 325.9644
1025.860, 322.9504
1026.343, 322.1217
1026.825, 323.3525
1027.307, 324.8980
1027.789, 326.5497
1028.271, 327.5225
1028.753, 326.2616
1029.235, 324.4027
1029.717, 323.9817
1030.199, 326.0519
1030.682, 326.5384
1031.164, 324.9544
1031.646, 323.1515
1032.128, 322.2835
1032.610, 322.0253
1033.092, 321.6845
1033.574, 321.2385
1034.056, 320.6131
1034.539, 318.7842
1035.021, 318.0175
1035.503, 320.4606
1035.985, 323.4056
1036.467, 322.5822
1036.949, 317.8483
1037.431, 315.5637
1037.913, 316.6116
1038.396, 318.3459
1038.878, 318.9786
1039.360, 318.7666
1039.842, 317.7398
1040.324, 315.9156
1040.806, 314.2193
1041.288, 312.3846
1041.770, 311.4323
1042.252, 311.8877
1042.734, 313.1089
1043.217, 314.3817
1043.699, 315.3034
1044.181, 314.6001
1044.663, 310.7951
1045.145, 307.9127
1045.627, 308.0636
1046.109, 309.3091
1046.591, 310.3167
1047.074, 311.0770
1047.556, 311.9240
1048.038, 312.8658
1048.520, 313.5005
1049.002, 313.5224
1049.484, 313.1545
1049.966, 312.6263
1050.448, 311.8601
1050.931, 310.4837
1051.413, 307.3804
1051.895, 306.2757
1052.377, 308.0843
1052.859, 310.7410
1053.341, 311.8504
1053.823, 311.8868
1054.305, 311.7345
1054.787, 311.4965
1055.270, 311.6454
1055.752, 313.2870
1056.234, 314.3574
1056.716, 313.8993
1057.198, 312.2499
1057.680, 310.4717
1058.162, 308.6055
1058.644, 307.3090
1059.126, 306.8154
1059.609, 306.8984
1060.091, 307.9589
1060.573, 309.1553
1061.055, 309.3841
1061.537, 308.1288
1062.019, 307.6628
1062.501, 308.1197
1062.983, 308.8940
1063.466, 310.0173
1063.948, 310.9645
1064.430, 310.3373
1064.912, 308.6732
1065.394, 307.5747
1065.876, 307.6089
1066.358, 308.4600
1066.840, 310.6313
1067.323, 312.8673
1067.805, 313.4021
1068.287, 312.5027
1068.769, 312.0646
1069.251, 312.2367
1069.733, 312.4714
1070.215, 312.8257
1070.697, 312.7019
1071.179, 311.0536
1071.661, 308.4921
1072.144, 307.9077
1072.626, 309.6889
1073.108, 310.7394
1073.590, 310.0729
1074.072, 308.9671
1074.554, 309.1068
1075.036, 309.7570
1075.518, 309.7551
1076.001, 308.5051
1076.483, 308.7535
1076.965, 311.7939
1077.447, 314.0256
1077.929, 313.2341
1078.411, 310.5009
1078.893, 308.4362
1079.375, 307.1031
1079.858, 306.7525
1080.340, 308.5483
1080.822, 309.8074
1081.304, 308.8880
1081.786, 307.5388
1082.268, 307.5736
1082.750, 309.0377
1083.232, 308.8853
1083.714, 307.0624
1084.197, 305.3214
1084.679, 304.0394
1085.161, 304.1293
1085.643, 308.1977
1086.125, 314.1503
1086.607, 315.0334
1087.089, 308.4583
1087.571, 305.2137
1088.054, 307.4467
1088.536, 311.1852
1089.018, 312.1870
1089.500, 311.4821
1089.982, 310.0645
1090.464, 308.0374
1090.946, 307.3443
1091.428, 309.3471
1091.911, 311.0677
1092.393, 311.4644
1092.875, 311.1311
1093.357, 311.7266
1093.839, 312.8065
1094.321, 312.7745
1094.803, 310.6135
1095.285, 309.1801
1095.767, 310.6760
1096.250, 312.6356
1096.732, 313.5098
1097.214, 313.3261
1097.696, 312.5091
1098.178, 311.0923
1098.660, 309.8095
1099.142, 308.6024
1099.624, 308.1740
1100.106, 309.5874
1100.589, 311.9416
1101.071, 313.8881
1101.553, 315.5936
1102.035, 316.0391
1102.517, 315.0345
1102.999, 313.7695
1103.481, 313.0599
1103.963, 312.8024
1104.446, 313.0222
1104.928, 313.6064
1105.410, 314.1439
1105.892, 314.7331
1106.374, 314.8418
1106.856, 314.1403
1107.338, 313.4225
1107.820, 314.1115
1108.302, 315.5444
1108.785, 315.9766
1109.267, 315.2104
1109.749, 314.7156
1110.231, 315.5792
1110.713, 316.2901
1111.195, 316.1740
1111.677, 315.6078
1112.159, 315.8920
1112.641, 316.7955
1113.124, 316.5804
1113.606, 314.3701
1114.088, 312.9055
1114.570, 315.3495
1115.052, 318.2081
1115.534, 318.4215
1116.016, 316.1311
1116.498, 315.0867
1116.981, 315.3200
1117.463, 315.5800
1117.945, 315.3360
1118.427, 314.8496
1118.909, 314.1149
1119.391, 313.4139
1119.873, 313.2403
1120.355, 314.0432
1120.838, 313.8510
1121.320, 312.2623
1121.802, 311.3932
1122.284, 313.8744
1122.766, 317.2411
1123.248, 317.6209
1123.730, 315.7952
1124.212, 313.9401
1124.694, 312.1804
1125.177, 311.3478
1125.659, 311.9352
1126.141, 312.6028
1126.623, 311.2726
1127.105, 309.0595
1127.587, 309.4461
1128.069, 312.1907
1128.551, 314.1497
1129.033, 313.0634
1129.516, 312.0663
1129.998, 312.0084
1130.480, 312.5290
1130.962, 313.4633
1131.444, 314.5230
1131.926, 313.8887
1132.408, 311.2213
1132.890, 308.9022
1133.373, 309.0544
1133.855, 309.3414
1134.337, 307.9765
1134.819, 305.7673
1135.301, 305.9622
1135.783, 308.4610
1136.265, 310.3790
1136.747, 310.9689
1137.229, 310.8246
1137.712, 309.7696
1138.194, 308.7156
1138.676, 308.7319
1139.158, 309.8156
1139.640, 310.0245
1140.122, 309.2924
1140.604, 308.2445
1141.086, 306.7947
1141.569, 305.7511
1142.051, 306.5167
1142.533, 307.9897
1143.015, 308.5670
1143.497, 307.4778
1143.979, 307.5926
1144.461, 309.3275
1144.943, 310.5916
1145.426, 309.5362
1145.908, 307.6951
1146.390, 308.1101
1146.872, 309.5515
1147.354, 309.4422
1147.836, 304.3192
1148.318, 302.0857
1148.800, 303.7445
1149.282, 306.3637
1149.765, 308.1697
1150.247, 308.8614
1150.729, 306.7498
1151.211, 302.6823
1151.693, 300.1529
1152.175, 302.1180
1152.657, 303.5112
1153.139, 303.3300
1153.621, 302.5779
1154.104, 302.5650
1154.586, 302.9611
1155.068, 302.4674
1155.550, 301.0957
1156.032, 299.9989
1156.514, 300.3557
1156.996, 300.2104
1157.478, 298.2709
1157.961, 296.1448
1158.443, 297.5909
1158.925, 301.6999
1159.407, 302.7542
1159.889, 299.8549
1160.371, 297.7157
1160.853, 300.8913
1161.335, 303.7672
1161.818, 303.2220
1162.300, 300.3309
1162.782, 297.6248
1163.264, 295.2303
1163.746, 295.0457
1164.228, 297.9857
1164.710, 300.0273
1165.192, 296.9324
1165.674, 292.9487
1166.156, 291.0378
1166.639, 291.0447
1167.121, 292.3551
1167.603, 294.9561
1168.085, 297.1865
1168.567, 298.6987
1169.049, 299.1982
1169.531, 297.7258
1170.013, 295.5906
1170.496, 293.8936
1170.978, 292.6580
1171.460, 292.7499
1171.942, 294.2547
1172.424, 295.4543
1172.906, 295.2982
1173.388, 295.0054
1173.870, 296.3666
1174.353, 298.0359
1174.835, 297.8998
1175.317, 295.2911
1175.799, 294.5561
1176.281, 295.9463
1176.763, 297.1721
1177.245, 296.8676
1177.727, 295.8271
1178.209, 294.1522
1178.692, 292.6478
1179.174, 292.8632
1179.656, 295.8858
1180.138, 298.0494
1180.620, 299.3677
1181.102, 299.8282
1181.584, 298.9841
1182.066, 297.6143
1182.548, 296.4878
1183.031, 295.6522
1183.513, 295.1902
1183.995, 294.9857
1184.477, 295.6741
1184.959, 297.6662
1185.441, 299.0774
1185.923, 297.4446
1186.405, 294.7689
1186.888, 293.8265
1187.370, 294.3006
1187.852, 294.7997
1188.334, 294.5960
1188.816, 295.7364
1189.298, 299.0267
1189.780, 301.5622
1190.262, 299.1653
1190.745, 294.7461
1191.227, 292.4607
1191.709, 292.3259
1192.191, 293.1055
1192.673, 295.4547
1193.155, 296.8977
1193.637, 297.0745
1194.119, 296.3492
1194.601, 294.0925
1195.084, 291.7688
1195.566, 292.4030
1196.048, 295.8348
1196.530, 297.8793
1197.012, 296.9541
1197.494, 296.2164
1197.976, 296.2868
1198.458, 296.6805
1198.941, 297.0911
1199.423, 297.1852
1199.905, 295.8241
1200.387, 292.9758
1200.869, 291.9844
1201.351, 294.4536
1201.833, 296.8747
1202.315, 298.6138
1202.797, 299.4802
1203.280, 298.5253
1203.762, 296.7339
1204.244, 295.9583
1204.726, 296.5430
1205.208, 296.6031
1205.690, 295.2880
1206.172, 294.5665
1206.654, 295.2282
1207.136, 296.4097
1207.619, 296.6807
1208.101, 296.3534
1208.583, 295.7952
1209.065, 294.9439
1209.547, 295.0237
1210.029, 296.9422
1210.511, 298.1473
1210.993, 297.7440
1211.476, 296.1041
1211.958, 292.6903
1212.440, 288.9554
1212.922, 287.8026
1213.404, 290.2804
1213.886, 292.8784
1214.368, 295.6671
1214.850, 297.3364
1215.333, 297.1457
1215.815, 295.8305
1216.297, 293.9600
1216.779, 292.1970
1217.261, 292.0339
1217.743, 294.5877
1218.225, 295.2018
1218.707, 292.4736
1219.189, 290.7182
1219.672, 292.5777
1220.154, 295.7698
1220.636, 295.9610
1221.118, 294.4630
1221.600, 293.6963
1222.082, 294.7593
1222.564, 294.5767
1223.046, 292.3183
1223.528, 290.9373
1224.011, 292.3750
1224.493, 295.1019
1224.975, 297.1338
1225.457, 298.3580
1225.939, 298.5598
1226.421, 297.3258
1226.903, 295.7321
1227.385, 293.4316
1227.868, 292.1024
1228.350, 293.3070
1228.832, 295.3148
1229.314, 295.4279
1229.796, 294.4647
1230.278, 293.8109
1230.760, 293.8947
1231.242, 293.8798
1231.724, 293.8504
1232.207, 293.3005
1232.689, 291.4035
1233.171, 289.3840
1233.653, 288.9979
1234.135, 289.5207
1234.617, 289.6754
1235.099, 288.9747
1235.581, 289.1927
1236.063, 290.5108
1236.546, 291.5066
1237.028, 291.1695
1237.510, 290.2012
1237.992, 288.8619
1238.474, 287.5809
1238.956, 287.1271
1239.438, 287.6024
1239.920, 288.5123
1240.403, 289.8718
1240.885, 291.2463
1241.367, 292.8209
1241.849, 293.7804
1242.331, 292.5542
1242.813, 293.5738
1243.295, 290.5362
1243.777, 292.9149
1244.260, 293.2149
1244.742, 291.4409
1245.224, 289.3405
1245.706, 287.2241
1246.188, 285.9811
1246.670, 286.9818
1247.152, 288.7926
1247.634, 289.4526
1248.116, 288.9045
1248.599, 288.0138
1249.081, 286.8403
1249.563, 286.0604
1250.045, 286.3724
1250.527, 286.8589
1251.009, 286.9134
1251.491, 286.9977
1251.973, 287.8392
1252.455, 289.3565
1252.938, 289.4836
1253.420, 288.3161
1253.902, 286.8102
1254.384, 284.9091
1254.866, 283.5107
1255.348, 283.0317
1255.830, 283.0877
1256.313, 283.5109
1256.795, 284.2299
1257.277, 284.4965
1257.759, 284.5392
1258.241, 285.4880
1258.723, 290.0521
1259.205, 292.2785
1259.687, 289.9206
1260.169, 286.8435
1260.651, 286.8000
1261.134, 288.6750
1261.616, 288.8032
1262.098, 287.6235
1262.580, 286.8129
1263.062, 287.8106
1263.544, 287.8621
1264.026, 286.4511
1264.508, 284.7605
1264.991, 283.2094
1265.473, 282.3788
1265.955, 284.3806
1266.437, 287.9673
1266.919, 289.8275
1267.401, 287.8030
1267.883, 286.3726
1268.365, 285.6793
1268.848, 285.2856
1269.330, 284.9778
1269.812, 284.6932
1270.294, 283.8600
1270.776, 283.0861
1271.258, 284.0215
1271.740, 288.1114
1272.222, 288.9792
1272.704, 286.1531
1273.187, 283.6318
1273.669, 284.7043
1274.151, 286.7664
1274.633, 288.1461
1275.115, 288.6884
1275.597, 288.2943
1276.079, 286.9637
1276.561, 284.1187
1277.043, 279.8808
1277.526, 277.6931
1278.008, 282.4753
1278.490, 286.7237
1278.972, 284.6833
1279.454, 280.8167
1279.936, 279.7627
1280.418, 281.4271
1280.900, 282.7774
1281.383, 283.7715
1281.865, 284.1871
1282.347, 283.3153
1282.829, 282.7171
1283.311, 283.6503
1283.793, 284.1228
1284.275, 281.6091
1284.757, 282.7905
1285.240, 278.3114
1285.722, 282.6512
1286.204, 285.7856
1286.686, 285.6271
1287.168, 284.4600
1287.650, 282.0445
1288.132, 280.0822
1288.614, 280.1228
1289.096, 281.1655
1289.578, 281.2255
1290.061, 280.6774
1290.543, 280.2585
1291.025, 280.0029
1291.507, 280.3837
1291.989, 281.5721
1292.471, 282.6200
1292.953, 283.4439
1293.435, 283.2503
1293.918, 279.5586
1294.400, 274.9708
1294.882, 273.8835
1295.364, 277.0318
1295.846, 276.9893
1296.328, 273.6828
1296.810, 271.9194
1297.292, 275.1482
1297.775, 278.4701
1298.257, 277.6549
1298.739, 275.5493
1299.221, 274.7231
1299.703, 275.1075
1300.185, 276.5020
1300.667, 278.6616
1301.149, 280.1151
1301.631, 280.2585
1302.114, 279.5983
1302.596, 278.5208
##END=



