##NAMES=Tapiaite
##RRUFFID=R150032
##IDEAL CHEMISTRY=Ca_5_Al_2_(As^5+^O_4_)_4_(OH)_4_&#183;12H_2_O
##LOCALITY=Jote mine, Pampa Larga district, Tierra Amarilla, CopiapoÂ´ Province, Atacama Region, Chile
##OWNER=RRUFF
##SOURCE=Bob Jenkins
##DESCRIPTION=Pale yellow or pale blue to clear bladed crystals.
##STATUS=The identification of this mineral has been confirmed only by single crystal X-ray diffraction.
##URL=rruff.info/R150032
9.059570e+001, 7.437757e+002
9.107782e+001, 7.224792e+002
9.155994e+001, 7.149426e+002
9.204205e+001, 7.296708e+002
9.252417e+001, 7.524740e+002
9.300629e+001, 7.793625e+002
9.348840e+001, 8.044122e+002
9.397052e+001, 8.212115e+002
9.445264e+001, 8.259160e+002
9.493475e+001, 8.293718e+002
9.541687e+001, 8.312254e+002
9.589898e+001, 8.327809e+002
9.638110e+001, 8.334781e+002
9.686321e+001, 8.324672e+002
9.734533e+001, 8.288239e+002
9.782745e+001, 8.218675e+002
9.830956e+001, 8.168609e+002
9.879168e+001, 8.154324e+002
9.927380e+001, 8.138402e+002
9.975591e+001, 8.110701e+002
1.002380e+002, 8.072405e+002
1.007201e+002, 8.028219e+002
1.012023e+002, 7.979324e+002
1.016844e+002, 7.925853e+002
1.021665e+002, 7.871735e+002
1.026486e+002, 7.810912e+002
1.031307e+002, 7.751774e+002
1.036128e+002, 7.702324e+002
1.040950e+002, 7.662465e+002
1.045771e+002, 7.628372e+002
1.050592e+002, 7.596453e+002
1.055413e+002, 7.566093e+002
1.060234e+002, 7.537609e+002
1.065055e+002, 7.510482e+002
1.069877e+002, 7.484729e+002
1.074698e+002, 7.462258e+002
1.079519e+002, 7.451932e+002
1.084340e+002, 7.432114e+002
1.089161e+002, 7.390709e+002
1.093982e+002, 7.332526e+002
1.098804e+002, 7.269963e+002
1.103625e+002, 7.212380e+002
1.108446e+002, 7.159483e+002
1.113267e+002, 7.114193e+002
1.118088e+002, 7.083063e+002
1.122909e+002, 7.053311e+002
1.127731e+002, 7.017239e+002
1.132552e+002, 6.974783e+002
1.137373e+002, 6.931992e+002
1.142194e+002, 6.897976e+002
1.147015e+002, 6.876467e+002
1.151836e+002, 6.858161e+002
1.156658e+002, 6.847867e+002
1.161479e+002, 6.838401e+002
1.166300e+002, 6.821616e+002
1.171121e+002, 6.794249e+002
1.175942e+002, 6.761307e+002
1.180763e+002, 6.734919e+002
1.185584e+002, 6.716744e+002
1.190406e+002, 6.699539e+002
1.195227e+002, 6.680303e+002
1.200048e+002, 6.660291e+002
1.204869e+002, 6.643174e+002
1.209690e+002, 6.631838e+002
1.214511e+002, 6.623597e+002
1.219333e+002, 6.612072e+002
1.224154e+002, 6.594754e+002
1.228975e+002, 6.578292e+002
1.233796e+002, 6.570767e+002
1.238617e+002, 6.573538e+002
1.243438e+002, 6.573116e+002
1.248260e+002, 6.557027e+002
1.253081e+002, 6.536454e+002
1.257902e+002, 6.521645e+002
1.262723e+002, 6.517382e+002
1.267544e+002, 6.519413e+002
1.272365e+002, 6.519319e+002
1.277187e+002, 6.520135e+002
1.282008e+002, 6.512551e+002
1.286829e+002, 6.490624e+002
1.291650e+002, 6.460853e+002
1.296471e+002, 6.431635e+002
1.301292e+002, 6.408132e+002
1.306114e+002, 6.390060e+002
1.310935e+002, 6.373044e+002
1.315756e+002, 6.358145e+002
1.320577e+002, 6.343324e+002
1.325398e+002, 6.329230e+002
1.330219e+002, 6.314998e+002
1.335041e+002, 6.298831e+002
1.339862e+002, 6.278773e+002
1.344683e+002, 6.253746e+002
1.349504e+002, 6.231559e+002
1.354325e+002, 6.212986e+002
1.359146e+002, 6.195950e+002
1.363968e+002, 6.180646e+002
1.368789e+002, 6.166584e+002
1.373610e+002, 6.150996e+002
1.378431e+002, 6.129825e+002
1.383252e+002, 6.100901e+002
1.388073e+002, 6.078064e+002
1.392895e+002, 6.066406e+002
1.397716e+002, 6.059438e+002
1.402537e+002, 6.049590e+002
1.407358e+002, 6.035020e+002
1.412179e+002, 6.018469e+002
1.417000e+002, 6.004420e+002
1.421821e+002, 5.992786e+002
1.426643e+002, 5.978167e+002
1.431464e+002, 5.957289e+002
1.436285e+002, 5.931407e+002
1.441106e+002, 5.904158e+002
1.445927e+002, 5.872934e+002
1.450748e+002, 5.844988e+002
1.455570e+002, 5.826844e+002
1.460391e+002, 5.818538e+002
1.465212e+002, 5.812777e+002
1.470033e+002, 5.804642e+002
1.474854e+002, 5.794254e+002
1.479675e+002, 5.780048e+002
1.484497e+002, 5.757426e+002
1.489318e+002, 5.733255e+002
1.494139e+002, 5.710010e+002
1.498960e+002, 5.688548e+002
1.503781e+002, 5.669813e+002
1.508602e+002, 5.656546e+002
1.513424e+002, 5.653392e+002
1.518245e+002, 5.645128e+002
1.523066e+002, 5.624692e+002
1.527887e+002, 5.602701e+002
1.532708e+002, 5.588371e+002
1.537529e+002, 5.585060e+002
1.542351e+002, 5.588025e+002
1.547172e+002, 5.585457e+002
1.551993e+002, 5.571873e+002
1.556814e+002, 5.558712e+002
1.561635e+002, 5.547310e+002
1.566456e+002, 5.536398e+002
1.571278e+002, 5.523680e+002
1.576099e+002, 5.507743e+002
1.580920e+002, 5.490353e+002
1.585741e+002, 5.479470e+002
1.590562e+002, 5.484771e+002
1.595383e+002, 5.484824e+002
1.600205e+002, 5.471887e+002
1.605026e+002, 5.449589e+002
1.609847e+002, 5.425649e+002
1.614668e+002, 5.403499e+002
1.619489e+002, 5.383974e+002
1.624310e+002, 5.369756e+002
1.629131e+002, 5.370003e+002
1.633953e+002, 5.366669e+002
1.638774e+002, 5.344919e+002
1.643595e+002, 5.306729e+002
1.648416e+002, 5.272254e+002
1.653237e+002, 5.256494e+002
1.658058e+002, 5.252930e+002
1.662880e+002, 5.245391e+002
1.667701e+002, 5.229977e+002
1.672522e+002, 5.211647e+002
1.677343e+002, 5.195677e+002
1.682164e+002, 5.182286e+002
1.686985e+002, 5.170378e+002
1.691807e+002, 5.160914e+002
1.696628e+002, 5.152260e+002
1.701449e+002, 5.142054e+002
1.706270e+002, 5.128240e+002
1.711091e+002, 5.113068e+002
1.715912e+002, 5.102535e+002
1.720734e+002, 5.100445e+002
1.725555e+002, 5.095930e+002
1.730376e+002, 5.083885e+002
1.735197e+002, 5.067339e+002
1.740018e+002, 5.050189e+002
1.744839e+002, 5.034264e+002
1.749661e+002, 5.019723e+002
1.754482e+002, 5.007790e+002
1.759303e+002, 5.000326e+002
1.764124e+002, 4.993733e+002
1.768945e+002, 4.988663e+002
1.773766e+002, 4.983701e+002
1.778588e+002, 4.976296e+002
1.783409e+002, 4.963946e+002
1.788230e+002, 4.946554e+002
1.793051e+002, 4.933979e+002
1.797872e+002, 4.931186e+002
1.802693e+002, 4.928253e+002
1.807515e+002, 4.920187e+002
1.812336e+002, 4.909109e+002
1.817157e+002, 4.901844e+002
1.821978e+002, 4.905607e+002
1.826799e+002, 4.923002e+002
1.831620e+002, 4.923864e+002
1.836441e+002, 4.893528e+002
1.841263e+002, 4.863506e+002
1.846084e+002, 4.851436e+002
1.850905e+002, 4.856055e+002
1.855726e+002, 4.863378e+002
1.860547e+002, 4.860580e+002
1.865368e+002, 4.845880e+002
1.870190e+002, 4.833002e+002
1.875011e+002, 4.821473e+002
1.879832e+002, 4.812079e+002
1.884653e+002, 4.803867e+002
1.889474e+002, 4.797047e+002
1.894296e+002, 4.796505e+002
1.899117e+002, 4.812906e+002
1.903938e+002, 4.845006e+002
1.908759e+002, 4.859008e+002
1.913580e+002, 4.837911e+002
1.918401e+002, 4.803046e+002
1.923223e+002, 4.778553e+002
1.928044e+002, 4.768340e+002
1.932865e+002, 4.761992e+002
1.937686e+002, 4.747944e+002
1.942507e+002, 4.728991e+002
1.947328e+002, 4.714736e+002
1.952150e+002, 4.709986e+002
1.956971e+002, 4.711538e+002
1.961792e+002, 4.713772e+002
1.966613e+002, 4.717267e+002
1.971434e+002, 4.719058e+002
1.976255e+002, 4.717529e+002
1.981077e+002, 4.712924e+002
1.985898e+002, 4.705304e+002
1.990719e+002, 4.691887e+002
1.995540e+002, 4.674706e+002
2.000361e+002, 4.663363e+002
2.005182e+002, 4.662679e+002
2.010004e+002, 4.661468e+002
2.014825e+002, 4.651994e+002
2.019646e+002, 4.637139e+002
2.024467e+002, 4.624194e+002
2.029288e+002, 4.618756e+002
2.034109e+002, 4.620393e+002
2.038930e+002, 4.622197e+002
2.043752e+002, 4.628604e+002
2.048573e+002, 4.630096e+002
2.053394e+002, 4.620038e+002
2.058215e+002, 4.601940e+002
2.063036e+002, 4.584134e+002
2.067857e+002, 4.573839e+002
2.072679e+002, 4.571518e+002
2.077500e+002, 4.567769e+002
2.082321e+002, 4.560589e+002
2.087142e+002, 4.553722e+002
2.091963e+002, 4.549699e+002
2.096784e+002, 4.547264e+002
2.101606e+002, 4.542729e+002
2.106427e+002, 4.531941e+002
2.111248e+002, 4.513500e+002
2.116069e+002, 4.501904e+002
2.120890e+002, 4.501005e+002
2.125711e+002, 4.502581e+002
2.130533e+002, 4.505891e+002
2.135354e+002, 4.509318e+002
2.140175e+002, 4.509608e+002
2.144996e+002, 4.503184e+002
2.149817e+002, 4.488480e+002
2.154638e+002, 4.478119e+002
2.159460e+002, 4.475497e+002
2.164281e+002, 4.473166e+002
2.169102e+002, 4.467322e+002
2.173923e+002, 4.458126e+002
2.178744e+002, 4.447824e+002
2.183565e+002, 4.438242e+002
2.188387e+002, 4.429381e+002
2.193208e+002, 4.422451e+002
2.198029e+002, 4.417714e+002
2.202850e+002, 4.414370e+002
2.207671e+002, 4.412488e+002
2.212492e+002, 4.411819e+002
2.217314e+002, 4.411445e+002
2.222135e+002, 4.411300e+002
2.226956e+002, 4.411160e+002
2.231777e+002, 4.406123e+002
2.236598e+002, 4.389488e+002
2.241419e+002, 4.372870e+002
2.246240e+002, 4.366924e+002
2.251062e+002, 4.371689e+002
2.255883e+002, 4.376520e+002
2.260704e+002, 4.371984e+002
2.265525e+002, 4.359259e+002
2.270346e+002, 4.349671e+002
2.275167e+002, 4.345546e+002
2.279989e+002, 4.343829e+002
2.284810e+002, 4.341286e+002
2.289631e+002, 4.337681e+002
2.294452e+002, 4.336382e+002
2.299273e+002, 4.342349e+002
2.304094e+002, 4.352570e+002
2.308916e+002, 4.358631e+002
2.313737e+002, 4.359576e+002
2.318558e+002, 4.355489e+002
2.323379e+002, 4.343453e+002
2.328200e+002, 4.321812e+002
2.333021e+002, 4.303855e+002
2.337843e+002, 4.301925e+002
2.342664e+002, 4.308582e+002
2.347485e+002, 4.313045e+002
2.352306e+002, 4.312547e+002
2.357127e+002, 4.308763e+002
2.361948e+002, 4.303865e+002
2.366770e+002, 4.297903e+002
2.371591e+002, 4.290458e+002
2.376412e+002, 4.277743e+002
2.381233e+002, 4.264492e+002
2.386054e+002, 4.256697e+002
2.390875e+002, 4.257844e+002
2.395697e+002, 4.262850e+002
2.400518e+002, 4.263180e+002
2.405339e+002, 4.257071e+002
2.410160e+002, 4.251944e+002
2.414981e+002, 4.251792e+002
2.419802e+002, 4.253504e+002
2.424624e+002, 4.254395e+002
2.429445e+002, 4.253613e+002
2.434266e+002, 4.251434e+002
2.439087e+002, 4.247416e+002
2.443908e+002, 4.239529e+002
2.448729e+002, 4.235512e+002
2.453550e+002, 4.240655e+002
2.458372e+002, 4.248594e+002
2.463193e+002, 4.254589e+002
2.468014e+002, 4.257118e+002
2.472835e+002, 4.256266e+002
2.477656e+002, 4.251175e+002
2.482477e+002, 4.238707e+002
2.487299e+002, 4.229630e+002
2.492120e+002, 4.227506e+002
2.496941e+002, 4.228047e+002
2.501762e+002, 4.228384e+002
2.506583e+002, 4.227594e+002
2.511404e+002, 4.226089e+002
2.516226e+002, 4.224556e+002
2.521047e+002, 4.223202e+002
2.525868e+002, 4.221371e+002
2.530689e+002, 4.220498e+002
2.535510e+002, 4.218336e+002
2.540331e+002, 4.211694e+002
2.545153e+002, 4.200388e+002
2.549974e+002, 4.188848e+002
2.554795e+002, 4.184339e+002
2.559616e+002, 4.191255e+002
2.564437e+002, 4.195992e+002
2.569258e+002, 4.195769e+002
2.574080e+002, 4.195490e+002
2.578901e+002, 4.200242e+002
2.583722e+002, 4.209995e+002
2.588543e+002, 4.218863e+002
2.593364e+002, 4.217920e+002
2.598185e+002, 4.200365e+002
2.603007e+002, 4.190292e+002
2.607828e+002, 4.191406e+002
2.612649e+002, 4.195347e+002
2.617470e+002, 4.197961e+002
2.622291e+002, 4.198299e+002
2.627112e+002, 4.196922e+002
2.631934e+002, 4.194436e+002
2.636755e+002, 4.190785e+002
2.641576e+002, 4.185966e+002
2.646397e+002, 4.176950e+002
2.651218e+002, 4.169470e+002
2.656039e+002, 4.167368e+002
2.660861e+002, 4.170284e+002
2.665682e+002, 4.175117e+002
2.670503e+002, 4.179138e+002
2.675324e+002, 4.182507e+002
2.680145e+002, 4.183514e+002
2.684966e+002, 4.181403e+002
2.689788e+002, 4.178169e+002
2.694609e+002, 4.174109e+002
2.699430e+002, 4.169651e+002
2.704251e+002, 4.165494e+002
2.709072e+002, 4.161946e+002
2.713893e+002, 4.158949e+002
2.718715e+002, 4.159652e+002
2.723536e+002, 4.171525e+002
2.728357e+002, 4.179051e+002
2.733178e+002, 4.171456e+002
2.737999e+002, 4.153384e+002
2.742820e+002, 4.138125e+002
2.747642e+002, 4.135004e+002
2.752463e+002, 4.142890e+002
2.757284e+002, 4.148065e+002
2.762105e+002, 4.150859e+002
2.766926e+002, 4.151389e+002
2.771747e+002, 4.148110e+002
2.776568e+002, 4.142550e+002
2.781389e+002, 4.138415e+002
2.786211e+002, 4.138143e+002
2.791032e+002, 4.140209e+002
2.795853e+002, 4.137742e+002
2.800674e+002, 4.124436e+002
2.805495e+002, 4.114877e+002
2.810316e+002, 4.116412e+002
2.815138e+002, 4.123724e+002
2.819959e+002, 4.127168e+002
2.824780e+002, 4.122372e+002
2.829601e+002, 4.112214e+002
2.834422e+002, 4.104077e+002
2.839243e+002, 4.099585e+002
2.844065e+002, 4.093750e+002
2.848886e+002, 4.082627e+002
2.853707e+002, 4.070324e+002
2.858528e+002, 4.063789e+002
2.863349e+002, 4.065749e+002
2.868170e+002, 4.071274e+002
2.872992e+002, 4.071845e+002
2.877813e+002, 4.065982e+002
2.882634e+002, 4.060760e+002
2.887455e+002, 4.057802e+002
2.892276e+002, 4.055844e+002
2.897097e+002, 4.053591e+002
2.901919e+002, 4.050766e+002
2.906740e+002, 4.047310e+002
2.911561e+002, 4.043386e+002
2.916382e+002, 4.039221e+002
2.921203e+002, 4.032397e+002
2.926024e+002, 4.019330e+002
2.930846e+002, 4.005362e+002
2.935667e+002, 3.995023e+002
2.940488e+002, 3.988911e+002
2.945309e+002, 3.987201e+002
2.950130e+002, 3.992235e+002
2.954951e+002, 4.003864e+002
2.959773e+002, 4.008385e+002
2.964594e+002, 3.998955e+002
2.969415e+002, 3.986828e+002
2.974236e+002, 3.980901e+002
2.979057e+002, 3.981210e+002
2.983878e+002, 3.982729e+002
2.988700e+002, 3.982922e+002
2.993521e+002, 3.981169e+002
2.998342e+002, 3.975979e+002
3.003163e+002, 3.960912e+002
3.007984e+002, 3.948315e+002
3.012805e+002, 3.948554e+002
3.017627e+002, 3.958770e+002
3.022448e+002, 3.965197e+002
3.027269e+002, 3.959236e+002
3.032090e+002, 3.945572e+002
3.036911e+002, 3.938727e+002
3.041732e+002, 3.941999e+002
3.046554e+002, 3.945893e+002
3.051375e+002, 3.946209e+002
3.056196e+002, 3.943953e+002
3.061017e+002, 3.941470e+002
3.065838e+002, 3.939379e+002
3.070659e+002, 3.938014e+002
3.075481e+002, 3.938471e+002
3.080302e+002, 3.941420e+002
3.085123e+002, 3.943349e+002
3.089944e+002, 3.942419e+002
3.094765e+002, 3.939888e+002
3.099586e+002, 3.937188e+002
3.104408e+002, 3.934221e+002
3.109229e+002, 3.933178e+002
3.114050e+002, 3.938698e+002
3.118871e+002, 3.951076e+002
3.123692e+002, 3.960511e+002
3.128513e+002, 3.960631e+002
3.133335e+002, 3.958833e+002
3.138156e+002, 3.965010e+002
3.142977e+002, 3.980784e+002
3.147798e+002, 3.998411e+002
3.152619e+002, 4.010168e+002
3.157440e+002, 4.016646e+002
3.162262e+002, 4.026869e+002
3.167083e+002, 4.046765e+002
3.171904e+002, 4.066972e+002
3.176725e+002, 4.078283e+002
3.181546e+002, 4.081092e+002
3.186367e+002, 4.084144e+002
3.191188e+002, 4.093615e+002
3.196010e+002, 4.108135e+002
3.200831e+002, 4.120260e+002
3.205652e+002, 4.130833e+002
3.210473e+002, 4.138386e+002
3.215294e+002, 4.143690e+002
3.220115e+002, 4.145723e+002
3.224937e+002, 4.140207e+002
3.229758e+002, 4.123930e+002
3.234579e+002, 4.100225e+002
3.239400e+002, 4.077584e+002
3.244221e+002, 4.054769e+002
3.249042e+002, 4.035036e+002
3.253864e+002, 4.021367e+002
3.258685e+002, 4.011284e+002
3.263506e+002, 4.000380e+002
3.268327e+002, 3.987518e+002
3.273148e+002, 3.972510e+002
3.277969e+002, 3.953673e+002
3.282791e+002, 3.929755e+002
3.287612e+002, 3.909706e+002
3.292433e+002, 3.898772e+002
3.297254e+002, 3.890974e+002
3.302075e+002, 3.878194e+002
3.306896e+002, 3.859029e+002
3.311718e+002, 3.840384e+002
3.316539e+002, 3.829311e+002
3.321360e+002, 3.826601e+002
3.326181e+002, 3.824169e+002
3.331002e+002, 3.822668e+002
3.335823e+002, 3.820707e+002
3.340645e+002, 3.815850e+002
3.345466e+002, 3.808765e+002
3.350287e+002, 3.804367e+002
3.355108e+002, 3.807184e+002
3.359929e+002, 3.815678e+002
3.364750e+002, 3.818425e+002
3.369572e+002, 3.812260e+002
3.374393e+002, 3.804438e+002
3.379214e+002, 3.795699e+002
3.384035e+002, 3.787511e+002
3.388856e+002, 3.784019e+002
3.393677e+002, 3.787804e+002
3.398499e+002, 3.795838e+002
3.403320e+002, 3.799817e+002
3.408141e+002, 3.797736e+002
3.412962e+002, 3.795919e+002
3.417783e+002, 3.795905e+002
3.422604e+002, 3.796675e+002
3.427426e+002, 3.797289e+002
3.432247e+002, 3.797482e+002
3.437068e+002, 3.796595e+002
3.441889e+002, 3.793582e+002
3.446710e+002, 3.787583e+002
3.451531e+002, 3.781676e+002
3.456353e+002, 3.776386e+002
3.461174e+002, 3.770907e+002
3.465995e+002, 3.764101e+002
3.470816e+002, 3.756200e+002
3.475637e+002, 3.748714e+002
3.480458e+002, 3.742896e+002
3.485280e+002, 3.738772e+002
3.490101e+002, 3.737160e+002
3.494922e+002, 3.739193e+002
3.499743e+002, 3.742134e+002
3.504564e+002, 3.747115e+002
3.509385e+002, 3.752154e+002
3.514207e+002, 3.751910e+002
3.519028e+002, 3.742393e+002
3.523849e+002, 3.727163e+002
3.528670e+002, 3.721681e+002
3.533491e+002, 3.737701e+002
3.538312e+002, 3.748862e+002
3.543134e+002, 3.747393e+002
3.547955e+002, 3.741246e+002
3.552776e+002, 3.740860e+002
3.557597e+002, 3.749678e+002
3.562418e+002, 3.761470e+002
3.567239e+002, 3.765606e+002
3.572061e+002, 3.757670e+002
3.576882e+002, 3.750431e+002
3.581703e+002, 3.742086e+002
3.586524e+002, 3.735643e+002
3.591345e+002, 3.735624e+002
3.596166e+002, 3.740802e+002
3.600987e+002, 3.743903e+002
3.605808e+002, 3.736939e+002
3.610630e+002, 3.718176e+002
3.615451e+002, 3.706120e+002
3.620272e+002, 3.707107e+002
3.625093e+002, 3.707753e+002
3.629914e+002, 3.702693e+002
3.634735e+002, 3.694059e+002
3.639557e+002, 3.686918e+002
3.644378e+002, 3.684572e+002
3.649199e+002, 3.685359e+002
3.654020e+002, 3.682031e+002
3.658841e+002, 3.670221e+002
3.663662e+002, 3.660183e+002
3.668484e+002, 3.653989e+002
3.673305e+002, 3.649638e+002
3.678126e+002, 3.645400e+002
3.682947e+002, 3.640674e+002
3.687768e+002, 3.635514e+002
3.692589e+002, 3.630140e+002
3.697411e+002, 3.625095e+002
3.702232e+002, 3.618272e+002
3.707053e+002, 3.606888e+002
3.711874e+002, 3.596060e+002
3.716695e+002, 3.589048e+002
3.721516e+002, 3.585429e+002
3.726338e+002, 3.582086e+002
3.731159e+002, 3.576343e+002
3.735980e+002, 3.568273e+002
3.740801e+002, 3.559911e+002
3.745622e+002, 3.549802e+002
3.750443e+002, 3.541290e+002
3.755265e+002, 3.535649e+002
3.760086e+002, 3.532135e+002
3.764907e+002, 3.529898e+002
3.769728e+002, 3.528800e+002
3.774549e+002, 3.528039e+002
3.779370e+002, 3.525673e+002
3.784192e+002, 3.521120e+002
3.789013e+002, 3.516617e+002
3.793834e+002, 3.513264e+002
3.798655e+002, 3.509917e+002
3.803476e+002, 3.504998e+002
3.808297e+002, 3.498252e+002
3.813119e+002, 3.492497e+002
3.817940e+002, 3.491082e+002
3.822761e+002, 3.493923e+002
3.827582e+002, 3.496842e+002
3.832403e+002, 3.499702e+002
3.837224e+002, 3.502057e+002
3.842046e+002, 3.503187e+002
3.846867e+002, 3.503509e+002
3.851688e+002, 3.504550e+002
3.856509e+002, 3.508398e+002
3.861330e+002, 3.513300e+002
3.866151e+002, 3.514752e+002
3.870973e+002, 3.511772e+002
3.875794e+002, 3.508820e+002
3.880615e+002, 3.509861e+002
3.885436e+002, 3.512079e+002
3.890257e+002, 3.510541e+002
3.895078e+002, 3.501104e+002
3.899900e+002, 3.493573e+002
3.904721e+002, 3.500039e+002
3.909542e+002, 3.518312e+002
3.914363e+002, 3.530326e+002
3.919184e+002, 3.527444e+002
3.924005e+002, 3.519095e+002
3.928827e+002, 3.518854e+002
3.933648e+002, 3.527183e+002
3.938469e+002, 3.535307e+002
3.943290e+002, 3.540041e+002
3.948111e+002, 3.542399e+002
3.952932e+002, 3.543517e+002
3.957754e+002, 3.543467e+002
3.962575e+002, 3.543377e+002
3.967396e+002, 3.544069e+002
3.972217e+002, 3.545638e+002
3.977038e+002, 3.548119e+002
3.981859e+002, 3.552373e+002
3.986681e+002, 3.556836e+002
3.991501e+002, 3.560781e+002
3.996323e+002, 3.564127e+002
4.001144e+002, 3.567066e+002
4.005965e+002, 3.570105e+002
4.010786e+002, 3.572115e+002
4.015607e+002, 3.569334e+002
4.020428e+002, 3.559405e+002
4.025250e+002, 3.549636e+002
4.030071e+002, 3.539450e+002
4.034892e+002, 3.530880e+002
4.039713e+002, 3.527036e+002
4.044534e+002, 3.528428e+002
4.049355e+002, 3.532245e+002
4.054177e+002, 3.535963e+002
4.058998e+002, 3.540738e+002
4.063819e+002, 3.538347e+002
4.068640e+002, 3.521949e+002
4.073461e+002, 3.505879e+002
4.078282e+002, 3.497033e+002
4.083104e+002, 3.494372e+002
4.087925e+002, 3.493875e+002
4.092746e+002, 3.493114e+002
4.097567e+002, 3.492310e+002
4.102388e+002, 3.492479e+002
4.107209e+002, 3.495082e+002
4.112031e+002, 3.496776e+002
4.116852e+002, 3.496675e+002
4.121673e+002, 3.495895e+002
4.126494e+002, 3.495827e+002
4.131315e+002, 3.496692e+002
4.136136e+002, 3.497175e+002
4.140958e+002, 3.495460e+002
4.145779e+002, 3.491128e+002
4.150600e+002, 3.486223e+002
4.155421e+002, 3.481004e+002
4.160242e+002, 3.474968e+002
4.165063e+002, 3.466615e+002
4.169885e+002, 3.457207e+002
4.174706e+002, 3.450147e+002
4.179527e+002, 3.448661e+002
4.184348e+002, 3.450083e+002
4.189169e+002, 3.444414e+002
4.193990e+002, 3.427992e+002
4.198812e+002, 3.412640e+002
4.203633e+002, 3.402114e+002
4.208454e+002, 3.394221e+002
4.213275e+002, 3.388364e+002
4.218096e+002, 3.384560e+002
4.222917e+002, 3.378741e+002
4.227739e+002, 3.364427e+002
4.232560e+002, 3.342247e+002
4.237381e+002, 3.325357e+002
4.242202e+002, 3.317903e+002
4.247023e+002, 3.313285e+002
4.251844e+002, 3.306366e+002
4.256666e+002, 3.297752e+002
4.261487e+002, 3.289618e+002
4.266308e+002, 3.284014e+002
4.271129e+002, 3.278874e+002
4.275950e+002, 3.270060e+002
4.280771e+002, 3.257172e+002
4.285593e+002, 3.246757e+002
4.290414e+002, 3.244149e+002
4.295235e+002, 3.245421e+002
4.300056e+002, 3.241638e+002
4.304877e+002, 3.230973e+002
4.309698e+002, 3.219408e+002
4.314520e+002, 3.209472e+002
4.319341e+002, 3.200844e+002
4.324162e+002, 3.192696e+002
4.328983e+002, 3.184809e+002
4.333804e+002, 3.177874e+002
4.338625e+002, 3.173138e+002
4.343447e+002, 3.171035e+002
4.348268e+002, 3.167443e+002
4.353089e+002, 3.161769e+002
4.357910e+002, 3.154939e+002
4.362731e+002, 3.146485e+002
4.367552e+002, 3.137218e+002
4.372374e+002, 3.129424e+002
4.377195e+002, 3.124434e+002
4.382016e+002, 3.121894e+002
4.386837e+002, 3.120605e+002
4.391658e+002, 3.123281e+002
4.396479e+002, 3.123708e+002
4.401301e+002, 3.119454e+002
4.406122e+002, 3.113934e+002
4.410943e+002, 3.110814e+002
4.415764e+002, 3.110602e+002
4.420585e+002, 3.110449e+002
4.425406e+002, 3.106312e+002
4.430227e+002, 3.096671e+002
4.435049e+002, 3.094216e+002
4.439870e+002, 3.104604e+002
4.444691e+002, 3.116468e+002
4.449512e+002, 3.132354e+002
4.454333e+002, 3.146176e+002
4.459154e+002, 3.147169e+002
4.463976e+002, 3.128625e+002
4.468797e+002, 3.100058e+002
4.473618e+002, 3.082851e+002
4.478439e+002, 3.080516e+002
4.483260e+002, 3.079137e+002
4.488081e+002, 3.075684e+002
4.492903e+002, 3.072735e+002
4.497724e+002, 3.072104e+002
4.502545e+002, 3.073790e+002
4.507366e+002, 3.076362e+002
4.512187e+002, 3.078944e+002
4.517008e+002, 3.081542e+002
4.521830e+002, 3.085221e+002
4.526651e+002, 3.092355e+002
4.531472e+002, 3.094575e+002
4.536293e+002, 3.080596e+002
4.541114e+002, 3.060047e+002
4.545935e+002, 3.047109e+002
4.550757e+002, 3.047380e+002
4.555578e+002, 3.050782e+002
4.560399e+002, 3.049264e+002
4.565220e+002, 3.043785e+002
4.570041e+002, 3.038319e+002
4.574862e+002, 3.033691e+002
4.579684e+002, 3.030073e+002
4.584505e+002, 3.028318e+002
4.589326e+002, 3.028444e+002
4.594147e+002, 3.027504e+002
4.598968e+002, 3.022957e+002
4.603789e+002, 3.018617e+002
4.608611e+002, 3.019100e+002
4.613432e+002, 3.023569e+002
4.618253e+002, 3.026557e+002
4.623074e+002, 3.024646e+002
4.627895e+002, 3.018778e+002
4.632716e+002, 3.012683e+002
4.637538e+002, 3.005199e+002
4.642359e+002, 2.999027e+002
4.647180e+002, 2.995535e+002
4.652001e+002, 2.992860e+002
4.656822e+002, 2.989085e+002
4.661643e+002, 2.983838e+002
4.666465e+002, 2.977881e+002
4.671286e+002, 2.971614e+002
4.676107e+002, 2.964521e+002
4.680928e+002, 2.961641e+002
4.685749e+002, 2.969588e+002
4.690570e+002, 2.974648e+002
4.695392e+002, 2.970641e+002
4.700213e+002, 2.962063e+002
4.705034e+002, 2.955403e+002
4.709855e+002, 2.953472e+002
4.714676e+002, 2.955094e+002
4.719497e+002, 2.959516e+002
4.724319e+002, 2.968423e+002
4.729140e+002, 2.972734e+002
4.733961e+002, 2.968941e+002
4.738782e+002, 2.961807e+002
4.743603e+002, 2.952421e+002
4.748424e+002, 2.941733e+002
4.753246e+002, 2.932229e+002
4.758067e+002, 2.925032e+002
4.762888e+002, 2.920218e+002
4.767709e+002, 2.918447e+002
4.772530e+002, 2.920178e+002
4.777351e+002, 2.922184e+002
4.782173e+002, 2.923122e+002
4.786994e+002, 2.923363e+002
4.791815e+002, 2.923317e+002
4.796636e+002, 2.922676e+002
4.801457e+002, 2.922915e+002
4.806278e+002, 2.926338e+002
4.811100e+002, 2.930734e+002
4.815920e+002, 2.931668e+002
4.820742e+002, 2.928257e+002
4.825563e+002, 2.923521e+002
4.830384e+002, 2.919497e+002
4.835205e+002, 2.916365e+002
4.840026e+002, 2.916015e+002
4.844847e+002, 2.922531e+002
4.849669e+002, 2.927215e+002
4.854490e+002, 2.924180e+002
4.859311e+002, 2.917398e+002
4.864132e+002, 2.914564e+002
4.868953e+002, 2.918499e+002
4.873774e+002, 2.924801e+002
4.878596e+002, 2.926279e+002
4.883417e+002, 2.921696e+002
4.888238e+002, 2.915395e+002
4.893059e+002, 2.902347e+002
4.897880e+002, 2.892651e+002
4.902701e+002, 2.894109e+002
4.907523e+002, 2.902852e+002
4.912344e+002, 2.909622e+002
4.917165e+002, 2.908624e+002
4.921986e+002, 2.902638e+002
4.926807e+002, 2.899240e+002
4.931628e+002, 2.899219e+002
4.936450e+002, 2.899650e+002
4.941271e+002, 2.902884e+002
4.946092e+002, 2.904211e+002
4.950913e+002, 2.898029e+002
4.955734e+002, 2.885211e+002
4.960555e+002, 2.874842e+002
4.965377e+002, 2.875894e+002
4.970198e+002, 2.883994e+002
4.975019e+002, 2.887183e+002
4.979840e+002, 2.884670e+002
4.984661e+002, 2.879616e+002
4.989482e+002, 2.870922e+002
4.994304e+002, 2.861857e+002
4.999125e+002, 2.858887e+002
5.003946e+002, 2.864513e+002
5.008767e+002, 2.870854e+002
5.013588e+002, 2.873231e+002
5.018409e+002, 2.873919e+002
5.023231e+002, 2.877771e+002
5.028052e+002, 2.885821e+002
5.032873e+002, 2.893630e+002
5.037694e+002, 2.896710e+002
5.042515e+002, 2.894864e+002
5.047336e+002, 2.894482e+002
5.052158e+002, 2.897085e+002
5.056979e+002, 2.899281e+002
5.061800e+002, 2.897963e+002
5.066621e+002, 2.896028e+002
5.071442e+002, 2.898385e+002
5.076263e+002, 2.906672e+002
5.081085e+002, 2.917741e+002
5.085906e+002, 2.926924e+002
5.090727e+002, 2.934102e+002
5.095548e+002, 2.939789e+002
5.100369e+002, 2.941830e+002
5.105190e+002, 2.944492e+002
5.110012e+002, 2.951092e+002
5.114833e+002, 2.959278e+002
5.119654e+002, 2.963788e+002
5.124475e+002, 2.961117e+002
5.129296e+002, 2.956504e+002
5.134117e+002, 2.960081e+002
5.138939e+002, 2.972957e+002
5.143760e+002, 2.985663e+002
5.148581e+002, 2.996042e+002
5.153402e+002, 3.005830e+002
5.158223e+002, 3.016789e+002
5.163044e+002, 3.028649e+002
5.167866e+002, 3.039500e+002
5.172687e+002, 3.049179e+002
5.177508e+002, 3.057109e+002
5.182329e+002, 3.062534e+002
5.187150e+002, 3.065483e+002
5.191971e+002, 3.066303e+002
5.196793e+002, 3.064796e+002
5.201614e+002, 3.061683e+002
5.206435e+002, 3.058934e+002
5.211256e+002, 3.057923e+002
5.216077e+002, 3.053384e+002
5.220898e+002, 3.041432e+002
5.225720e+002, 3.027708e+002
5.230541e+002, 3.017729e+002
5.235362e+002, 3.011269e+002
5.240183e+002, 3.004881e+002
5.245004e+002, 2.996717e+002
5.249825e+002, 2.985862e+002
5.254647e+002, 2.966546e+002
5.259468e+002, 2.926424e+002
5.264289e+002, 2.895890e+002
5.269110e+002, 2.883755e+002
5.273931e+002, 2.877281e+002
5.278752e+002, 2.865905e+002
5.283574e+002, 2.848724e+002
5.288395e+002, 2.832042e+002
5.293216e+002, 2.822045e+002
5.298037e+002, 2.817491e+002
5.302858e+002, 2.810146e+002
5.307679e+002, 2.798039e+002
5.312501e+002, 2.787782e+002
5.317322e+002, 2.784688e+002
5.322143e+002, 2.783740e+002
5.326964e+002, 2.779575e+002
5.331785e+002, 2.771072e+002
5.336606e+002, 2.761706e+002
5.341428e+002, 2.753227e+002
5.346249e+002, 2.745578e+002
5.351070e+002, 2.738497e+002
5.355891e+002, 2.731932e+002
5.360712e+002, 2.726119e+002
5.365533e+002, 2.721027e+002
5.370355e+002, 2.716898e+002
5.375176e+002, 2.714859e+002
5.379997e+002, 2.716544e+002
5.384818e+002, 2.718109e+002
5.389639e+002, 2.719568e+002
5.394460e+002, 2.719813e+002
5.399282e+002, 2.717017e+002
5.404103e+002, 2.711037e+002
5.408924e+002, 2.703611e+002
5.413745e+002, 2.696128e+002
5.418566e+002, 2.688481e+002
5.423387e+002, 2.684616e+002
5.428209e+002, 2.689714e+002
5.433029e+002, 2.692499e+002
5.437850e+002, 2.689222e+002
5.442672e+002, 2.683210e+002
5.447493e+002, 2.677891e+002
5.452314e+002, 2.674261e+002
5.457135e+002, 2.671955e+002
5.461956e+002, 2.671422e+002
5.466777e+002, 2.672377e+002
5.471599e+002, 2.670920e+002
5.476420e+002, 2.665150e+002
5.481241e+002, 2.660581e+002
5.486062e+002, 2.662829e+002
5.490883e+002, 2.668107e+002
5.495704e+002, 2.670346e+002
5.500526e+002, 2.668086e+002
5.505347e+002, 2.663665e+002
5.510168e+002, 2.656496e+002
5.514989e+002, 2.648569e+002
5.519810e+002, 2.643931e+002
5.524631e+002, 2.643431e+002
5.529453e+002, 2.646139e+002
5.534274e+002, 2.652001e+002
5.539095e+002, 2.661043e+002
5.543916e+002, 2.666588e+002
5.548737e+002, 2.668483e+002
5.553558e+002, 2.667647e+002
5.558380e+002, 2.662186e+002
5.563201e+002, 2.655102e+002
5.568022e+002, 2.649975e+002
5.572843e+002, 2.647713e+002
5.577664e+002, 2.646980e+002
5.582485e+002, 2.646356e+002
5.587307e+002, 2.645844e+002
5.592128e+002, 2.645507e+002
5.596949e+002, 2.646005e+002
5.601770e+002, 2.645685e+002
5.606591e+002, 2.643696e+002
5.611412e+002, 2.640835e+002
5.616234e+002, 2.637633e+002
5.621055e+002, 2.634093e+002
5.625876e+002, 2.631809e+002
5.630697e+002, 2.633612e+002
5.635518e+002, 2.637891e+002
5.640339e+002, 2.638902e+002
5.645161e+002, 2.635556e+002
5.649982e+002, 2.631124e+002
5.654803e+002, 2.627670e+002
5.659624e+002, 2.625051e+002
5.664445e+002, 2.622346e+002
5.669266e+002, 2.617838e+002
5.674088e+002, 2.615656e+002
5.678909e+002, 2.618228e+002
5.683730e+002, 2.623418e+002
5.688551e+002, 2.630050e+002
5.693372e+002, 2.637155e+002
5.698193e+002, 2.641324e+002
5.703015e+002, 2.638951e+002
5.707836e+002, 2.630381e+002
5.712657e+002, 2.622430e+002
5.717478e+002, 2.612421e+002
5.722299e+002, 2.606882e+002
5.727120e+002, 2.610171e+002
5.731942e+002, 2.616036e+002
5.736763e+002, 2.618803e+002
5.741584e+002, 2.617585e+002
5.746405e+002, 2.615065e+002
5.751226e+002, 2.612842e+002
5.756047e+002, 2.611158e+002
5.760869e+002, 2.611422e+002
5.765690e+002, 2.614169e+002
5.770511e+002, 2.616590e+002
5.775332e+002, 2.617239e+002
5.780153e+002, 2.616803e+002
5.784974e+002, 2.616529e+002
5.789796e+002, 2.616581e+002
5.794617e+002, 2.616140e+002
5.799438e+002, 2.613172e+002
5.804259e+002, 2.610579e+002
5.809080e+002, 2.613127e+002
5.813901e+002, 2.620140e+002
5.818723e+002, 2.625177e+002
5.823544e+002, 2.623651e+002
5.828365e+002, 2.618180e+002
5.833186e+002, 2.617741e+002
5.838007e+002, 2.627480e+002
5.842828e+002, 2.634566e+002
5.847650e+002, 2.639045e+002
5.852471e+002, 2.640824e+002
5.857292e+002, 2.637928e+002
5.862113e+002, 2.632115e+002
5.866934e+002, 2.628150e+002
5.871755e+002, 2.629201e+002
5.876577e+002, 2.633596e+002
5.881398e+002, 2.637898e+002
5.886219e+002, 2.642207e+002
5.891040e+002, 2.645747e+002
5.895861e+002, 2.648362e+002
5.900682e+002, 2.650070e+002
5.905504e+002, 2.650369e+002
5.910325e+002, 2.649574e+002
5.915146e+002, 2.649803e+002
5.919967e+002, 2.653640e+002
5.924788e+002, 2.657105e+002
5.929609e+002, 2.656595e+002
5.934431e+002, 2.652870e+002
5.939252e+002, 2.648384e+002
5.944073e+002, 2.644063e+002
5.948894e+002, 2.638817e+002
5.953715e+002, 2.630565e+002
5.958536e+002, 2.617606e+002
5.963358e+002, 2.609479e+002
5.968179e+002, 2.610591e+002
5.973000e+002, 2.610909e+002
5.977821e+002, 2.606549e+002
5.982642e+002, 2.599302e+002
5.987463e+002, 2.591568e+002
5.992285e+002, 2.584225e+002
5.997106e+002, 2.577706e+002
6.001927e+002, 2.572710e+002
6.006748e+002, 2.569164e+002
6.011569e+002, 2.565667e+002
6.016390e+002, 2.562032e+002
6.021212e+002, 2.558718e+002
6.026033e+002, 2.555909e+002
6.030854e+002, 2.553622e+002
6.035675e+002, 2.552475e+002
6.040496e+002, 2.553661e+002
6.045317e+002, 2.552620e+002
6.050139e+002, 2.543986e+002
6.054960e+002, 2.533048e+002
6.059781e+002, 2.528808e+002
6.064602e+002, 2.531657e+002
6.069423e+002, 2.533897e+002
6.074244e+002, 2.529657e+002
6.079066e+002, 2.520780e+002
6.083887e+002, 2.515588e+002
6.088708e+002, 2.517762e+002
6.093529e+002, 2.518540e+002
6.098350e+002, 2.515617e+002
6.103171e+002, 2.512859e+002
6.107993e+002, 2.514324e+002
6.112814e+002, 2.518706e+002
6.117635e+002, 2.520841e+002
6.122456e+002, 2.516974e+002
6.127277e+002, 2.509677e+002
6.132098e+002, 2.503443e+002
6.136920e+002, 2.498033e+002
6.141741e+002, 2.496625e+002
6.146562e+002, 2.502455e+002
6.151383e+002, 2.509273e+002
6.156204e+002, 2.510918e+002
6.161025e+002, 2.508030e+002
6.165847e+002, 2.503658e+002
6.170668e+002, 2.497389e+002
6.175489e+002, 2.490837e+002
6.180310e+002, 2.483511e+002
6.185131e+002, 2.476932e+002
6.189952e+002, 2.475193e+002
6.194774e+002, 2.479303e+002
6.199595e+002, 2.484025e+002
6.204416e+002, 2.482541e+002
6.209237e+002, 2.474079e+002
6.214058e+002, 2.471303e+002
6.218879e+002, 2.482100e+002
6.223701e+002, 2.488941e+002
6.228522e+002, 2.485285e+002
6.233343e+002, 2.477663e+002
6.238164e+002, 2.473005e+002
6.242985e+002, 2.472546e+002
6.247806e+002, 2.472264e+002
6.252628e+002, 2.468027e+002
6.257448e+002, 2.461616e+002
6.262269e+002, 2.457908e+002
6.267090e+002, 2.457132e+002
6.271912e+002, 2.457538e+002
6.276733e+002, 2.458592e+002
6.281554e+002, 2.460115e+002
6.286375e+002, 2.462223e+002
6.291196e+002, 2.465554e+002
6.296017e+002, 2.466597e+002
6.300839e+002, 2.463841e+002
6.305660e+002, 2.459522e+002
6.310481e+002, 2.453599e+002
6.315302e+002, 2.447491e+002
6.320123e+002, 2.443909e+002
6.324944e+002, 2.444108e+002
6.329766e+002, 2.447201e+002
6.334587e+002, 2.452899e+002
6.339408e+002, 2.462810e+002
6.344229e+002, 2.466973e+002
6.349050e+002, 2.462263e+002
6.353871e+002, 2.455476e+002
6.358693e+002, 2.447812e+002
6.363514e+002, 2.440782e+002
6.368335e+002, 2.436716e+002
6.373156e+002, 2.436337e+002
6.377977e+002, 2.438242e+002
6.382798e+002, 2.444223e+002
6.387620e+002, 2.450960e+002
6.392441e+002, 2.450567e+002
6.397262e+002, 2.442488e+002
6.402083e+002, 2.435669e+002
6.406904e+002, 2.436158e+002
6.411725e+002, 2.441918e+002
6.416547e+002, 2.446131e+002
6.421368e+002, 2.446108e+002
6.426189e+002, 2.448523e+002
6.431010e+002, 2.461162e+002
6.435831e+002, 2.469324e+002
6.440652e+002, 2.458844e+002
6.445474e+002, 2.436165e+002
6.450295e+002, 2.418883e+002
6.455116e+002, 2.416787e+002
6.459937e+002, 2.421815e+002
6.464758e+002, 2.421019e+002
6.469579e+002, 2.414458e+002
6.474401e+002, 2.409056e+002
6.479222e+002, 2.405810e+002
6.484043e+002, 2.403953e+002
6.488864e+002, 2.402980e+002
6.493685e+002, 2.402991e+002
6.498506e+002, 2.404452e+002
6.503328e+002, 2.409258e+002
6.508149e+002, 2.412673e+002
6.512970e+002, 2.412962e+002
6.517791e+002, 2.410807e+002
6.522612e+002, 2.405369e+002
6.527433e+002, 2.397659e+002
6.532255e+002, 2.392348e+002
6.537076e+002, 2.393167e+002
6.541897e+002, 2.398453e+002
6.546718e+002, 2.402033e+002
6.551539e+002, 2.403158e+002
6.556360e+002, 2.404322e+002
6.561182e+002, 2.407601e+002
6.566003e+002, 2.409395e+002
6.570824e+002, 2.405400e+002
6.575645e+002, 2.398021e+002
6.580466e+002, 2.394920e+002
6.585287e+002, 2.401191e+002
6.590109e+002, 2.409180e+002
6.594930e+002, 2.411864e+002
6.599751e+002, 2.410468e+002
6.604572e+002, 2.407729e+002
6.609393e+002, 2.404149e+002
6.614214e+002, 2.402251e+002
6.619036e+002, 2.405440e+002
6.623857e+002, 2.412607e+002
6.628678e+002, 2.411706e+002
6.633499e+002, 2.390478e+002
6.638320e+002, 2.377484e+002
6.643141e+002, 2.381820e+002
6.647963e+002, 2.390171e+002
6.652784e+002, 2.391583e+002
6.657605e+002, 2.386665e+002
6.662426e+002, 2.383052e+002
6.667247e+002, 2.386180e+002
6.672068e+002, 2.392065e+002
6.676890e+002, 2.393486e+002
6.681711e+002, 2.390550e+002
6.686532e+002, 2.386487e+002
6.691353e+002, 2.381500e+002
6.696174e+002, 2.376750e+002
6.700995e+002, 2.372726e+002
6.705817e+002, 2.369755e+002
6.710638e+002, 2.370025e+002
6.715459e+002, 2.376543e+002
6.720280e+002, 2.382613e+002
6.725101e+002, 2.387895e+002
6.729922e+002, 2.390562e+002
6.734744e+002, 2.387054e+002
6.739565e+002, 2.378197e+002
6.744386e+002, 2.369448e+002
6.749207e+002, 2.364777e+002
6.754028e+002, 2.363543e+002
6.758849e+002, 2.364639e+002
6.763671e+002, 2.369516e+002
6.768492e+002, 2.369844e+002
6.773313e+002, 2.359271e+002
6.778134e+002, 2.349032e+002
6.782955e+002, 2.349041e+002
6.787776e+002, 2.356847e+002
6.792598e+002, 2.363852e+002
6.797419e+002, 2.368928e+002
6.802240e+002, 2.371703e+002
6.807061e+002, 2.369521e+002
6.811882e+002, 2.365836e+002
6.816703e+002, 2.367580e+002
6.821525e+002, 2.375106e+002
6.826346e+002, 2.380949e+002
6.831167e+002, 2.378558e+002
6.835988e+002, 2.369938e+002
6.840809e+002, 2.365174e+002
6.845630e+002, 2.366559e+002
6.850452e+002, 2.366807e+002
6.855273e+002, 2.363356e+002
6.860094e+002, 2.359923e+002
6.864915e+002, 2.359306e+002
6.869736e+002, 2.360524e+002
6.874557e+002, 2.360260e+002
6.879379e+002, 2.356287e+002
6.884200e+002, 2.352173e+002
6.889021e+002, 2.350727e+002
6.893842e+002, 2.351597e+002
6.898663e+002, 2.354665e+002
6.903484e+002, 2.359834e+002
6.908306e+002, 2.364792e+002
6.913127e+002, 2.367932e+002
6.917948e+002, 2.369247e+002
6.922769e+002, 2.368752e+002
6.927590e+002, 2.366502e+002
6.932411e+002, 2.362229e+002
6.937233e+002, 2.352260e+002
6.942054e+002, 2.343818e+002
6.946875e+002, 2.343397e+002
6.951696e+002, 2.348026e+002
6.956517e+002, 2.349180e+002
6.961339e+002, 2.341982e+002
6.966160e+002, 2.333699e+002
6.970981e+002, 2.333024e+002
6.975802e+002, 2.338056e+002
6.980623e+002, 2.342600e+002
6.985444e+002, 2.345809e+002
6.990266e+002, 2.346730e+002
6.995087e+002, 2.343778e+002
6.999908e+002, 2.338545e+002
7.004729e+002, 2.337244e+002
7.009550e+002, 2.344846e+002
7.014371e+002, 2.348720e+002
7.019193e+002, 2.345612e+002
7.024014e+002, 2.341581e+002
7.028835e+002, 2.340230e+002
7.033656e+002, 2.340908e+002
7.038477e+002, 2.341518e+002
7.043298e+002, 2.341165e+002
7.048120e+002, 2.340526e+002
7.052941e+002, 2.340843e+002
7.057762e+002, 2.341709e+002
7.062583e+002, 2.339728e+002
7.067404e+002, 2.333604e+002
7.072225e+002, 2.332503e+002
7.077046e+002, 2.345319e+002
7.081867e+002, 2.364101e+002
7.086688e+002, 2.366998e+002
7.091509e+002, 2.343794e+002
7.096331e+002, 2.331661e+002
7.101152e+002, 2.344370e+002
7.105973e+002, 2.357676e+002
7.110794e+002, 2.355220e+002
7.115615e+002, 2.343598e+002
7.120436e+002, 2.335966e+002
7.125258e+002, 2.337077e+002
7.130079e+002, 2.342166e+002
7.134900e+002, 2.347681e+002
7.139721e+002, 2.352796e+002
7.144542e+002, 2.352035e+002
7.149363e+002, 2.344281e+002
7.154185e+002, 2.336660e+002
7.159006e+002, 2.331760e+002
7.163827e+002, 2.329506e+002
7.168648e+002, 2.330509e+002
7.173469e+002, 2.335451e+002
7.178290e+002, 2.339172e+002
7.183112e+002, 2.340674e+002
7.187933e+002, 2.341468e+002
7.192754e+002, 2.342188e+002
7.197575e+002, 2.342721e+002
7.202396e+002, 2.342989e+002
7.207217e+002, 2.342897e+002
7.212039e+002, 2.341982e+002
7.216860e+002, 2.339199e+002
7.221681e+002, 2.335355e+002
7.226502e+002, 2.334064e+002
7.231323e+002, 2.335704e+002
7.236144e+002, 2.336671e+002
7.240966e+002, 2.335612e+002
7.245787e+002, 2.333766e+002
7.250608e+002, 2.332419e+002
7.255429e+002, 2.331568e+002
7.260250e+002, 2.331182e+002
7.265071e+002, 2.332526e+002
7.269893e+002, 2.332846e+002
7.274714e+002, 2.329484e+002
7.279535e+002, 2.325575e+002
7.284356e+002, 2.325796e+002
7.289177e+002, 2.329761e+002
7.293998e+002, 2.331878e+002
7.298820e+002, 2.327029e+002
7.303641e+002, 2.319532e+002
7.308462e+002, 2.320071e+002
7.313283e+002, 2.328931e+002
7.318104e+002, 2.338145e+002
7.322925e+002, 2.347821e+002
7.327747e+002, 2.353544e+002
7.332568e+002, 2.349128e+002
7.337389e+002, 2.337178e+002
7.342210e+002, 2.331848e+002
7.347031e+002, 2.337941e+002
7.351852e+002, 2.343156e+002
7.356674e+002, 2.345084e+002
7.361495e+002, 2.345123e+002
7.366316e+002, 2.343598e+002
7.371137e+002, 2.341259e+002
7.375958e+002, 2.339872e+002
7.380779e+002, 2.340453e+002
7.385601e+002, 2.340901e+002
7.390422e+002, 2.337104e+002
7.395243e+002, 2.329738e+002
7.400064e+002, 2.325391e+002
7.404885e+002, 2.324914e+002
7.409706e+002, 2.326016e+002
7.414528e+002, 2.327522e+002
7.419349e+002, 2.329766e+002
7.424170e+002, 2.334248e+002
7.428991e+002, 2.342982e+002
7.433812e+002, 2.347011e+002
7.438633e+002, 2.341285e+002
7.443455e+002, 2.335218e+002
7.448276e+002, 2.334013e+002
7.453097e+002, 2.335658e+002
7.457918e+002, 2.337122e+002
7.462739e+002, 2.337369e+002
7.467560e+002, 2.336125e+002
7.472382e+002, 2.331583e+002
7.477203e+002, 2.325612e+002
7.482024e+002, 2.325152e+002
7.486845e+002, 2.330386e+002
7.491666e+002, 2.333316e+002
7.496487e+002, 2.330785e+002
7.501309e+002, 2.326050e+002
7.506130e+002, 2.322051e+002
7.510951e+002, 2.318665e+002
7.515772e+002, 2.319657e+002
7.520593e+002, 2.330105e+002
7.525414e+002, 2.337905e+002
7.530236e+002, 2.339527e+002
7.535057e+002, 2.337989e+002
7.539878e+002, 2.334232e+002
7.544699e+002, 2.329774e+002
7.549520e+002, 2.328778e+002
7.554341e+002, 2.335279e+002
7.559163e+002, 2.342731e+002
7.563984e+002, 2.339467e+002
7.568805e+002, 2.328667e+002
7.573626e+002, 2.325830e+002
7.578447e+002, 2.333996e+002
7.583268e+002, 2.341477e+002
7.588090e+002, 2.339683e+002
7.592911e+002, 2.331348e+002
7.597732e+002, 2.325512e+002
7.602553e+002, 2.322390e+002
7.607374e+002, 2.321586e+002
7.612195e+002, 2.325269e+002
7.617017e+002, 2.328902e+002
7.621838e+002, 2.329850e+002
7.626659e+002, 2.329548e+002
7.631480e+002, 2.330777e+002
7.636301e+002, 2.334395e+002
7.641122e+002, 2.337366e+002
7.645944e+002, 2.336318e+002
7.650765e+002, 2.333792e+002
7.655586e+002, 2.333522e+002
7.660407e+002, 2.335544e+002
7.665228e+002, 2.340182e+002
7.670049e+002, 2.347920e+002
7.674871e+002, 2.353513e+002
7.679692e+002, 2.348990e+002
7.684513e+002, 2.333634e+002
7.689334e+002, 2.325225e+002
7.694155e+002, 2.326907e+002
7.698976e+002, 2.330423e+002
7.703798e+002, 2.335955e+002
7.708619e+002, 2.340971e+002
7.713440e+002, 2.342574e+002
7.718261e+002, 2.341496e+002
7.723082e+002, 2.341992e+002
7.727903e+002, 2.347878e+002
7.732725e+002, 2.352638e+002
7.737546e+002, 2.350015e+002
7.742367e+002, 2.344086e+002
7.747188e+002, 2.341788e+002
7.752009e+002, 2.343431e+002
7.756830e+002, 2.343681e+002
7.761652e+002, 2.338609e+002
7.766473e+002, 2.331926e+002
7.771294e+002, 2.333444e+002
7.776115e+002, 2.344908e+002
7.780936e+002, 2.353067e+002
7.785757e+002, 2.356934e+002
7.790579e+002, 2.357677e+002
7.795400e+002, 2.353103e+002
7.800221e+002, 2.346971e+002
7.805042e+002, 2.346324e+002
7.809863e+002, 2.352904e+002
7.814684e+002, 2.357159e+002
7.819506e+002, 2.354086e+002
7.824327e+002, 2.350682e+002
7.829148e+002, 2.351294e+002
7.833969e+002, 2.354740e+002
7.838790e+002, 2.359212e+002
7.843611e+002, 2.363946e+002
7.848433e+002, 2.368036e+002
7.853254e+002, 2.370874e+002
7.858075e+002, 2.372289e+002
7.862896e+002, 2.370952e+002
7.867717e+002, 2.366805e+002
7.872538e+002, 2.364064e+002
7.877360e+002, 2.363559e+002
7.882181e+002, 2.365495e+002
7.887002e+002, 2.370879e+002
7.891823e+002, 2.379124e+002
7.896644e+002, 2.385058e+002
7.901465e+002, 2.387223e+002
7.906286e+002, 2.389329e+002
7.911107e+002, 2.390826e+002
7.915928e+002, 2.393115e+002
7.920750e+002, 2.398071e+002
7.925571e+002, 2.404346e+002
7.930392e+002, 2.408921e+002
7.935213e+002, 2.410530e+002
7.940034e+002, 2.411807e+002
7.944855e+002, 2.413654e+002
7.949677e+002, 2.417317e+002
7.954498e+002, 2.427625e+002
7.959319e+002, 2.443220e+002
7.964140e+002, 2.452331e+002
7.968961e+002, 2.449510e+002
7.973782e+002, 2.444790e+002
7.978604e+002, 2.452743e+002
7.983425e+002, 2.474135e+002
7.988246e+002, 2.490374e+002
7.993067e+002, 2.498374e+002
7.997888e+002, 2.506868e+002
8.002709e+002, 2.519314e+002
8.007531e+002, 2.531932e+002
8.012352e+002, 2.540643e+002
8.017173e+002, 2.546586e+002
8.021994e+002, 2.555417e+002
8.026815e+002, 2.569244e+002
8.031636e+002, 2.585307e+002
8.036458e+002, 2.603392e+002
8.041279e+002, 2.622055e+002
8.046100e+002, 2.639531e+002
8.050921e+002, 2.655836e+002
8.055742e+002, 2.672296e+002
8.060563e+002, 2.689549e+002
8.065385e+002, 2.706686e+002
8.070206e+002, 2.722642e+002
8.075027e+002, 2.737345e+002
8.079848e+002, 2.747967e+002
8.084669e+002, 2.753020e+002
8.089490e+002, 2.762106e+002
8.094312e+002, 2.782347e+002
8.099133e+002, 2.804763e+002
8.103954e+002, 2.814544e+002
8.108775e+002, 2.808697e+002
8.113596e+002, 2.809876e+002
8.118417e+002, 2.824516e+002
8.123239e+002, 2.837865e+002
8.128060e+002, 2.847222e+002
8.132881e+002, 2.852560e+002
8.137702e+002, 2.851972e+002
8.142523e+002, 2.847039e+002
8.147344e+002, 2.843900e+002
8.152166e+002, 2.847267e+002
8.156987e+002, 2.850072e+002
8.161808e+002, 2.842828e+002
8.166629e+002, 2.829984e+002
8.171450e+002, 2.822319e+002
8.176271e+002, 2.820409e+002
8.181093e+002, 2.816577e+002
8.185914e+002, 2.806169e+002
8.190735e+002, 2.792852e+002
8.195556e+002, 2.783678e+002
8.200377e+002, 2.779091e+002
8.205198e+002, 2.775840e+002
8.210020e+002, 2.774800e+002
8.214841e+002, 2.773382e+002
8.219662e+002, 2.772374e+002
8.224483e+002, 2.769203e+002
8.229304e+002, 2.759708e+002
8.234125e+002, 2.744165e+002
8.238947e+002, 2.731110e+002
8.243768e+002, 2.724892e+002
8.248589e+002, 2.718395e+002
8.253410e+002, 2.705705e+002
8.258231e+002, 2.692945e+002
8.263052e+002, 2.689361e+002
8.267874e+002, 2.693022e+002
8.272695e+002, 2.692834e+002
8.277516e+002, 2.681859e+002
8.282337e+002, 2.667824e+002
8.287158e+002, 2.661711e+002
8.291979e+002, 2.661981e+002
8.296801e+002, 2.662545e+002
8.301622e+002, 2.662862e+002
8.306443e+002, 2.663141e+002
8.311264e+002, 2.663434e+002
8.316085e+002, 2.663845e+002
8.320906e+002, 2.664505e+002
8.325728e+002, 2.665331e+002
8.330549e+002, 2.666791e+002
8.335370e+002, 2.667954e+002
8.340191e+002, 2.671106e+002
8.345012e+002, 2.677471e+002
8.349833e+002, 2.685266e+002
8.354655e+002, 2.693775e+002
8.359476e+002, 2.702570e+002
8.364297e+002, 2.710154e+002
8.369118e+002, 2.714114e+002
8.373939e+002, 2.719929e+002
8.378760e+002, 2.731748e+002
8.383582e+002, 2.746320e+002
8.388403e+002, 2.760175e+002
8.393224e+002, 2.773189e+002
8.398045e+002, 2.785844e+002
8.402866e+002, 2.798315e+002
8.407687e+002, 2.813288e+002
8.412509e+002, 2.835766e+002
8.417330e+002, 2.864243e+002
8.422151e+002, 2.889484e+002
8.426972e+002, 2.910992e+002
8.431793e+002, 2.932810e+002
8.436614e+002, 2.956006e+002
8.441436e+002, 2.980373e+002
8.446257e+002, 3.004944e+002
8.451078e+002, 3.029848e+002
8.455899e+002, 3.059988e+002
8.460720e+002, 3.103117e+002
8.465541e+002, 3.139773e+002
8.470363e+002, 3.164491e+002
8.475184e+002, 3.186066e+002
8.480005e+002, 3.209467e+002
8.484826e+002, 3.234201e+002
8.489647e+002, 3.259149e+002
8.494468e+002, 3.285013e+002
8.499290e+002, 3.306600e+002
8.504111e+002, 3.321564e+002
8.508932e+002, 3.330647e+002
8.513753e+002, 3.333669e+002
8.518574e+002, 3.331778e+002
8.523395e+002, 3.327337e+002
8.528217e+002, 3.321080e+002
8.533038e+002, 3.311722e+002
8.537859e+002, 3.297469e+002
8.542680e+002, 3.279756e+002
8.547501e+002, 3.264496e+002
8.552322e+002, 3.251672e+002
8.557144e+002, 3.231295e+002
8.561965e+002, 3.199655e+002
8.566786e+002, 3.168275e+002
8.571607e+002, 3.146495e+002
8.576428e+002, 3.131141e+002
8.581249e+002, 3.111660e+002
8.586071e+002, 3.084769e+002
8.590892e+002, 3.060948e+002
8.595713e+002, 3.043262e+002
8.600534e+002, 3.024946e+002
8.605355e+002, 3.000541e+002
8.610176e+002, 2.975840e+002
8.614998e+002, 2.959277e+002
8.619819e+002, 2.951219e+002
8.624640e+002, 2.941199e+002
8.629461e+002, 2.924222e+002
8.634282e+002, 2.904584e+002
8.639103e+002, 2.883967e+002
8.643925e+002, 2.863227e+002
8.648746e+002, 2.845327e+002
8.653567e+002, 2.828963e+002
8.658388e+002, 2.808022e+002
8.663209e+002, 2.778580e+002
8.668030e+002, 2.745857e+002
8.672852e+002, 2.718105e+002
8.677673e+002, 2.694463e+002
8.682494e+002, 2.669442e+002
8.687315e+002, 2.642677e+002
8.692136e+002, 2.618739e+002
8.696957e+002, 2.599994e+002
8.701779e+002, 2.582874e+002
8.706600e+002, 2.562589e+002
8.711421e+002, 2.539055e+002
8.716242e+002, 2.517882e+002
8.721063e+002, 2.498571e+002
8.725884e+002, 2.482496e+002
8.730705e+002, 2.472000e+002
8.735526e+002, 2.463015e+002
8.740347e+002, 2.454343e+002
8.745168e+002, 2.445211e+002
8.749990e+002, 2.432812e+002
8.754811e+002, 2.413947e+002
8.759632e+002, 2.400576e+002
8.764453e+002, 2.402381e+002
8.769274e+002, 2.405942e+002
8.774095e+002, 2.401797e+002
8.778917e+002, 2.392179e+002
8.783738e+002, 2.380085e+002
8.788559e+002, 2.367324e+002
8.793380e+002, 2.358684e+002
8.798201e+002, 2.359618e+002
8.803022e+002, 2.364802e+002
8.807844e+002, 2.366572e+002
8.812665e+002, 2.365050e+002
8.817486e+002, 2.359798e+002
8.822307e+002, 2.351002e+002
8.827128e+002, 2.342081e+002
8.831949e+002, 2.335005e+002
8.836771e+002, 2.330091e+002
8.841592e+002, 2.328921e+002
8.846413e+002, 2.332563e+002
8.851234e+002, 2.331539e+002
8.856055e+002, 2.324231e+002
8.860876e+002, 2.316138e+002
8.865698e+002, 2.308866e+002
8.870519e+002, 2.301882e+002
8.875340e+002, 2.293801e+002
8.880161e+002, 2.284891e+002
8.884982e+002, 2.278992e+002
8.889803e+002, 2.279632e+002
8.894625e+002, 2.278461e+002
8.899446e+002, 2.272545e+002
8.904267e+002, 2.265787e+002
8.909088e+002, 2.261186e+002
8.913909e+002, 2.257726e+002
8.918730e+002, 2.252127e+002
8.923552e+002, 2.243238e+002
8.928373e+002, 2.237538e+002
8.933194e+002, 2.243197e+002
8.938015e+002, 2.250734e+002
8.942836e+002, 2.249734e+002
8.947657e+002, 2.242823e+002
8.952479e+002, 2.235526e+002
8.957300e+002, 2.229280e+002
8.962121e+002, 2.223431e+002
8.966942e+002, 2.217568e+002
8.971763e+002, 2.211680e+002
8.976584e+002, 2.204556e+002
8.981406e+002, 2.196784e+002
8.986227e+002, 2.195362e+002
8.991048e+002, 2.201517e+002
8.995869e+002, 2.206331e+002
9.000690e+002, 2.205205e+002
9.005511e+002, 2.201849e+002
9.010333e+002, 2.202383e+002
9.015154e+002, 2.207239e+002
9.019975e+002, 2.205686e+002
9.024796e+002, 2.192431e+002
9.029617e+002, 2.182598e+002
9.034438e+002, 2.181015e+002
9.039260e+002, 2.181757e+002
9.044081e+002, 2.180400e+002
9.048902e+002, 2.178291e+002
9.053723e+002, 2.179512e+002
9.058544e+002, 2.186685e+002
9.063365e+002, 2.190912e+002
9.068187e+002, 2.189529e+002
9.073008e+002, 2.185117e+002
9.077829e+002, 2.176907e+002
9.082650e+002, 2.167829e+002
9.087471e+002, 2.161978e+002
9.092292e+002, 2.159638e+002
9.097114e+002, 2.157184e+002
9.101935e+002, 2.151392e+002
9.106756e+002, 2.146358e+002
9.111577e+002, 2.147834e+002
9.116398e+002, 2.152383e+002
9.121219e+002, 2.153032e+002
9.126041e+002, 2.150034e+002
9.130862e+002, 2.149098e+002
9.135683e+002, 2.152940e+002
9.140504e+002, 2.156780e+002
9.145325e+002, 2.153247e+002
9.150146e+002, 2.143980e+002
9.154968e+002, 2.138653e+002
9.159789e+002, 2.137424e+002
9.164610e+002, 2.135391e+002
9.169431e+002, 2.130865e+002
9.174252e+002, 2.127509e+002
9.179073e+002, 2.128828e+002
9.183895e+002, 2.133270e+002
9.188716e+002, 2.135095e+002
9.193537e+002, 2.133211e+002
9.198358e+002, 2.131509e+002
9.203179e+002, 2.130722e+002
9.208000e+002, 2.129028e+002
9.212822e+002, 2.124876e+002
9.217643e+002, 2.119948e+002
9.222464e+002, 2.116188e+002
9.227285e+002, 2.113550e+002
9.232106e+002, 2.110445e+002
9.236927e+002, 2.104429e+002
9.241749e+002, 2.100906e+002
9.246570e+002, 2.104153e+002
9.251391e+002, 2.108004e+002
9.256212e+002, 2.107245e+002
9.261033e+002, 2.103356e+002
9.265854e+002, 2.099862e+002
9.270676e+002, 2.097777e+002
9.275497e+002, 2.097129e+002
9.280318e+002, 2.099790e+002
9.285139e+002, 2.102294e+002
9.289960e+002, 2.099004e+002
9.294781e+002, 2.093678e+002
9.299603e+002, 2.094409e+002
9.304424e+002, 2.101639e+002
9.309245e+002, 2.109613e+002
9.314066e+002, 2.115037e+002
9.318887e+002, 2.117208e+002
9.323708e+002, 2.113936e+002
9.328530e+002, 2.106361e+002
9.333351e+002, 2.098576e+002
9.338172e+002, 2.090927e+002
9.342993e+002, 2.084530e+002
9.347814e+002, 2.079661e+002
9.352635e+002, 2.078411e+002
9.357457e+002, 2.084166e+002
9.362278e+002, 2.094875e+002
9.367099e+002, 2.097573e+002
9.371920e+002, 2.089693e+002
9.376741e+002, 2.085002e+002
9.381563e+002, 2.085567e+002
9.386384e+002, 2.088474e+002
9.391205e+002, 2.093743e+002
9.396026e+002, 2.099078e+002
9.400847e+002, 2.099980e+002
9.405668e+002, 2.095444e+002
9.410490e+002, 2.092441e+002
9.415311e+002, 2.093385e+002
9.420132e+002, 2.092519e+002
9.424953e+002, 2.085346e+002
9.429774e+002, 2.079106e+002
9.434595e+002, 2.080104e+002
9.439417e+002, 2.086192e+002
9.444238e+002, 2.091536e+002
9.449059e+002, 2.095233e+002
9.453880e+002, 2.097359e+002
9.458701e+002, 2.098537e+002
9.463522e+002, 2.097561e+002
9.468344e+002, 2.091615e+002
9.473165e+002, 2.084150e+002
9.477986e+002, 2.080006e+002
9.482807e+002, 2.079419e+002
9.487628e+002, 2.079098e+002
9.492449e+002, 2.077393e+002
9.497271e+002, 2.075076e+002
9.502092e+002, 2.072636e+002
9.506913e+002, 2.070191e+002
9.511734e+002, 2.067506e+002
9.516555e+002, 2.064973e+002
9.521376e+002, 2.063793e+002
9.526198e+002, 2.064337e+002
9.531019e+002, 2.065984e+002
9.535840e+002, 2.068805e+002
9.540661e+002, 2.071482e+002
9.545482e+002, 2.070165e+002
9.550303e+002, 2.065498e+002
9.555124e+002, 2.061681e+002
9.559945e+002, 2.059288e+002
9.564766e+002, 2.057247e+002
9.569587e+002, 2.054796e+002
9.574409e+002, 2.053333e+002
9.579230e+002, 2.055352e+002
9.584051e+002, 2.060797e+002
9.588872e+002, 2.066206e+002
9.593693e+002, 2.072298e+002
9.598514e+002, 2.075057e+002
9.603336e+002, 2.072663e+002
9.608157e+002, 2.069068e+002
9.612978e+002, 2.067908e+002
9.617799e+002, 2.067292e+002
9.622620e+002, 2.061212e+002
9.627441e+002, 2.045627e+002
9.632263e+002, 2.037156e+002
9.637084e+002, 2.040901e+002
9.641905e+002, 2.044939e+002
9.646726e+002, 2.046195e+002
9.651547e+002, 2.046377e+002
9.656368e+002, 2.046651e+002
9.661190e+002, 2.047103e+002
9.666011e+002, 2.047940e+002
9.670832e+002, 2.049659e+002
9.675653e+002, 2.050810e+002
9.680474e+002, 2.051757e+002
9.685295e+002, 2.051326e+002
9.690117e+002, 2.047717e+002
9.694938e+002, 2.042956e+002
9.699759e+002, 2.039553e+002
9.704580e+002, 2.037829e+002
9.709401e+002, 2.036940e+002
9.714222e+002, 2.037071e+002
9.719044e+002, 2.037064e+002
9.723865e+002, 2.036511e+002
9.728686e+002, 2.035204e+002
9.733507e+002, 2.032018e+002
9.738328e+002, 2.028104e+002
9.743149e+002, 2.026118e+002
9.747971e+002, 2.026735e+002
9.752792e+002, 2.027948e+002
9.757613e+002, 2.028004e+002
9.762434e+002, 2.027973e+002
9.767255e+002, 2.030454e+002
9.772076e+002, 2.033553e+002
9.776898e+002, 2.032319e+002
9.781719e+002, 2.027135e+002
9.786540e+002, 2.022571e+002
9.791361e+002, 2.020784e+002
9.796182e+002, 2.021671e+002
9.801003e+002, 2.027124e+002
9.805825e+002, 2.034429e+002
9.810646e+002, 2.032579e+002
9.815467e+002, 2.022973e+002
9.820288e+002, 2.017316e+002
9.825109e+002, 2.017933e+002
9.829930e+002, 2.019644e+002
9.834752e+002, 2.019229e+002
9.839573e+002, 2.017231e+002
9.844394e+002, 2.013888e+002
9.849215e+002, 2.009164e+002
9.854036e+002, 2.009334e+002
9.858857e+002, 2.015297e+002
9.863679e+002, 2.020986e+002
9.868500e+002, 2.024978e+002
9.873321e+002, 2.027931e+002
9.878142e+002, 2.030566e+002
9.882963e+002, 2.032376e+002
9.887784e+002, 2.031580e+002
9.892606e+002, 2.027295e+002
9.897427e+002, 2.023373e+002
9.902248e+002, 2.019023e+002
9.907069e+002, 2.016603e+002
9.911890e+002, 2.017702e+002
9.916711e+002, 2.020073e+002
9.921533e+002, 2.021837e+002
9.926354e+002, 2.023035e+002
9.931175e+002, 2.023811e+002
9.935996e+002, 2.021957e+002
9.940817e+002, 2.023657e+002
9.945638e+002, 2.035874e+002
9.950460e+002, 2.043451e+002
9.955281e+002, 2.035053e+002
9.960102e+002, 2.022927e+002
9.964923e+002, 2.021863e+002
9.969744e+002, 2.030625e+002
9.974565e+002, 2.034829e+002
9.979387e+002, 2.028152e+002
9.984208e+002, 2.022801e+002
9.989029e+002, 2.022231e+002
9.993850e+002, 2.023484e+002
9.998671e+002, 2.026009e+002
1.000349e+003, 2.028514e+002
1.000831e+003, 2.028863e+002
1.001313e+003, 2.027134e+002
1.001796e+003, 2.026601e+002
1.002278e+003, 2.030998e+002
1.002760e+003, 2.033258e+002
1.003242e+003, 2.026548e+002
1.003724e+003, 2.018559e+002
1.004206e+003, 2.016398e+002
1.004688e+003, 2.018633e+002
1.005170e+003, 2.022466e+002
1.005653e+003, 2.026591e+002
1.006135e+003, 2.027211e+002
1.006617e+003, 2.018762e+002
1.007099e+003, 2.010075e+002
1.007581e+003, 2.010819e+002
1.008063e+003, 2.015674e+002
1.008545e+003, 2.018276e+002
1.009027e+003, 2.017853e+002
1.009509e+003, 2.014037e+002
1.009992e+003, 2.007073e+002
1.010474e+003, 2.000759e+002
1.010956e+003, 1.997743e+002
1.011438e+003, 1.998114e+002
1.011920e+003, 2.005343e+002
1.012402e+003, 2.015109e+002
1.012884e+003, 2.014743e+002
1.013366e+003, 2.005706e+002
1.013849e+003, 2.002631e+002
1.014331e+003, 2.011762e+002
1.014813e+003, 2.023143e+002
1.015295e+003, 2.025771e+002
1.015777e+003, 2.022259e+002
1.016259e+003, 2.018572e+002
1.016741e+003, 2.014626e+002
1.017223e+003, 2.009223e+002
1.017705e+003, 2.002581e+002
1.018188e+003, 1.998966e+002
1.018670e+003, 2.000667e+002
1.019152e+003, 2.004765e+002
1.019634e+003, 2.007716e+002
1.020116e+003, 2.009447e+002
1.020598e+003, 2.009644e+002
1.021080e+003, 2.008311e+002
1.021562e+003, 2.004947e+002
1.022044e+003, 1.999272e+002
1.022527e+003, 1.995122e+002
1.023009e+003, 1.994713e+002
1.023491e+003, 1.997076e+002
1.023973e+003, 2.001382e+002
1.024455e+003, 2.007311e+002
1.024937e+003, 2.009166e+002
1.025419e+003, 2.006633e+002
1.025901e+003, 2.002047e+002
1.026384e+003, 1.994908e+002
1.026866e+003, 1.990019e+002
1.027348e+003, 1.990747e+002
1.027830e+003, 1.994767e+002
1.028312e+003, 1.998022e+002
1.028794e+003, 2.000560e+002
1.029276e+003, 2.001589e+002
1.029758e+003, 2.000500e+002
1.030240e+003, 2.000106e+002
1.030723e+003, 2.001080e+002
1.031205e+003, 2.002671e+002
1.031687e+003, 2.005175e+002
1.032169e+003, 2.007090e+002
1.032651e+003, 2.005078e+002
1.033133e+003, 1.998567e+002
1.033615e+003, 1.992691e+002
1.034097e+003, 1.986283e+002
1.034579e+003, 1.983191e+002
1.035062e+003, 1.985881e+002
1.035544e+003, 1.989384e+002
1.036026e+003, 1.990526e+002
1.036508e+003, 1.990149e+002
1.036990e+003, 1.989646e+002
1.037472e+003, 1.988456e+002
1.037954e+003, 1.990320e+002
1.038436e+003, 1.998941e+002
1.038919e+003, 2.004638e+002
1.039401e+003, 2.005540e+002
1.039883e+003, 2.003273e+002
1.040365e+003, 1.995756e+002
1.040847e+003, 1.986759e+002
1.041329e+003, 1.984981e+002
1.041811e+003, 1.992224e+002
1.042293e+003, 1.997119e+002
1.042776e+003, 2.000151e+002
1.043258e+003, 1.999902e+002
1.043740e+003, 1.993153e+002
1.044222e+003, 1.986023e+002
1.044704e+003, 1.982113e+002
1.045186e+003, 1.980737e+002
1.045668e+003, 1.981096e+002
1.046150e+003, 1.983750e+002
1.046632e+003, 1.983736e+002
1.047115e+003, 1.977413e+002
1.047597e+003, 1.972663e+002
1.048079e+003, 1.972241e+002
1.048561e+003, 1.973199e+002
1.049043e+003, 1.974124e+002
1.049525e+003, 1.974705e+002
1.050007e+003, 1.974098e+002
1.050489e+003, 1.971940e+002
1.050971e+003, 1.971931e+002
1.051454e+003, 1.977658e+002
1.051936e+003, 1.981696e+002
1.052418e+003, 1.979906e+002
1.052900e+003, 1.977539e+002
1.053382e+003, 1.979046e+002
1.053864e+003, 1.982490e+002
1.054346e+003, 1.983944e+002
1.054828e+003, 1.982821e+002
1.055311e+003, 1.981435e+002
1.055793e+003, 1.981344e+002
1.056275e+003, 1.979809e+002
1.056757e+003, 1.972724e+002
1.057239e+003, 1.966934e+002
1.057721e+003, 1.969641e+002
1.058203e+003, 1.976444e+002
1.058685e+003, 1.978507e+002
1.059167e+003, 1.974631e+002
1.059650e+003, 1.973550e+002
1.060132e+003, 1.982485e+002
1.060614e+003, 1.988793e+002
1.061096e+003, 1.984522e+002
1.061578e+003, 1.978923e+002
1.062060e+003, 1.979517e+002
1.062542e+003, 1.983521e+002
1.063024e+003, 1.985944e+002
1.063506e+003, 1.985922e+002
1.063989e+003, 1.984531e+002
1.064471e+003, 1.980417e+002
1.064953e+003, 1.977458e+002
1.065435e+003, 1.977698e+002
1.065917e+003, 1.979237e+002
1.066399e+003, 1.981683e+002
1.066881e+003, 1.983904e+002
1.067363e+003, 1.984492e+002
1.067846e+003, 1.983237e+002
1.068328e+003, 1.980533e+002
1.068810e+003, 1.975019e+002
1.069292e+003, 1.970745e+002
1.069774e+003, 1.970297e+002
1.070256e+003, 1.971007e+002
1.070738e+003, 1.972324e+002
1.071220e+003, 1.972696e+002
1.071703e+003, 1.968363e+002
1.072185e+003, 1.960408e+002
1.072667e+003, 1.957337e+002
1.073149e+003, 1.964914e+002
1.073631e+003, 1.971657e+002
1.074113e+003, 1.970137e+002
1.074595e+003, 1.968041e+002
1.075077e+003, 1.973878e+002
1.075559e+003, 1.980711e+002
1.076042e+003, 1.977630e+002
1.076524e+003, 1.965667e+002
1.077006e+003, 1.955511e+002
1.077488e+003, 1.950510e+002
1.077970e+003, 1.948526e+002
1.078452e+003, 1.950374e+002
1.078934e+003, 1.952906e+002
1.079416e+003, 1.954280e+002
1.079898e+003, 1.954934e+002
1.080380e+003, 1.954790e+002
1.080863e+003, 1.954580e+002
1.081345e+003, 1.956760e+002
1.081827e+003, 1.962865e+002
1.082309e+003, 1.967379e+002
1.082791e+003, 1.967710e+002
1.083273e+003, 1.965838e+002
1.083755e+003, 1.960096e+002
1.084237e+003, 1.954977e+002
1.084720e+003, 1.956375e+002
1.085202e+003, 1.962320e+002
1.085684e+003, 1.966576e+002
1.086166e+003, 1.967403e+002
1.086648e+003, 1.967534e+002
1.087130e+003, 1.969082e+002
1.087612e+003, 1.969013e+002
1.088094e+003, 1.964052e+002
1.088577e+003, 1.958209e+002
1.089059e+003, 1.955159e+002
1.089541e+003, 1.954270e+002
1.090023e+003, 1.952897e+002
1.090505e+003, 1.950479e+002
1.090987e+003, 1.951679e+002
1.091469e+003, 1.965532e+002
1.091951e+003, 1.973692e+002
1.092433e+003, 1.962211e+002
1.092916e+003, 1.947966e+002
1.093398e+003, 1.944361e+002
1.093880e+003, 1.947461e+002
1.094362e+003, 1.949523e+002
1.094844e+003, 1.949397e+002
1.095326e+003, 1.949424e+002
1.095808e+003, 1.952117e+002
1.096290e+003, 1.952439e+002
1.096772e+003, 1.946433e+002
1.097255e+003, 1.940033e+002
1.097737e+003, 1.936081e+002
1.098219e+003, 1.934565e+002
1.098701e+003, 1.935827e+002
1.099183e+003, 1.939385e+002
1.099665e+003, 1.942609e+002
1.100147e+003, 1.945217e+002
1.100629e+003, 1.946748e+002
1.101112e+003, 1.946516e+002
1.101594e+003, 1.945811e+002
1.102076e+003, 1.945762e+002
1.102558e+003, 1.945170e+002
1.103040e+003, 1.942227e+002
1.103522e+003, 1.937562e+002
1.104004e+003, 1.933755e+002
1.104486e+003, 1.931256e+002
1.104969e+003, 1.929319e+002
1.105451e+003, 1.927463e+002
1.105933e+003, 1.926618e+002
1.106415e+003, 1.926311e+002
1.106897e+003, 1.927860e+002
1.107379e+003, 1.934817e+002
1.107861e+003, 1.943907e+002
1.108343e+003, 1.946823e+002
1.108825e+003, 1.941805e+002
1.109307e+003, 1.937417e+002
1.109790e+003, 1.933857e+002
1.110272e+003, 1.931753e+002
1.110754e+003, 1.932180e+002
1.111236e+003, 1.933120e+002
1.111718e+003, 1.935265e+002
1.112200e+003, 1.936274e+002
1.112682e+003, 1.930534e+002
1.113164e+003, 1.917390e+002
1.113647e+003, 1.911234e+002
1.114129e+003, 1.920064e+002
1.114611e+003, 1.922465e+002
1.115093e+003, 1.909334e+002
1.115575e+003, 1.900207e+002
1.116057e+003, 1.906820e+002
1.116539e+003, 1.918355e+002
1.117021e+003, 1.922537e+002
1.117504e+003, 1.920282e+002
1.117986e+003, 1.918304e+002
1.118468e+003, 1.916506e+002
1.118950e+003, 1.915364e+002
1.119432e+003, 1.916127e+002
1.119914e+003, 1.914751e+002
1.120396e+003, 1.908095e+002
1.120878e+003, 1.901835e+002
1.121360e+003, 1.900385e+002
1.121843e+003, 1.903412e+002
1.122325e+003, 1.910989e+002
1.122807e+003, 1.925258e+002
1.123289e+003, 1.930500e+002
1.123771e+003, 1.924409e+002
1.124253e+003, 1.916916e+002
1.124735e+003, 1.909472e+002
1.125217e+003, 1.902851e+002
1.125699e+003, 1.897264e+002
1.126182e+003, 1.893419e+002
1.126664e+003, 1.892706e+002
1.127146e+003, 1.895010e+002
1.127628e+003, 1.898495e+002
1.128110e+003, 1.903363e+002
1.128592e+003, 1.907576e+002
1.129074e+003, 1.910964e+002
1.129556e+003, 1.912495e+002
1.130039e+003, 1.911453e+002
1.130521e+003, 1.909773e+002
1.131003e+003, 1.909828e+002
1.131485e+003, 1.910767e+002
1.131967e+003, 1.909490e+002
1.132449e+003, 1.906104e+002
1.132931e+003, 1.901651e+002
1.133413e+003, 1.896315e+002
1.133896e+003, 1.895506e+002
1.134378e+003, 1.900863e+002
1.134860e+003, 1.906641e+002
1.135342e+003, 1.908293e+002
1.135824e+003, 1.908201e+002
1.136306e+003, 1.911734e+002
1.136788e+003, 1.917106e+002
1.137270e+003, 1.916803e+002
1.137752e+003, 1.911739e+002
1.138234e+003, 1.905598e+002
1.138717e+003, 1.899732e+002
1.139199e+003, 1.898262e+002
1.139681e+003, 1.903313e+002
1.140163e+003, 1.909265e+002
1.140645e+003, 1.910287e+002
1.141127e+003, 1.907613e+002
1.141609e+003, 1.901882e+002
1.142091e+003, 1.894905e+002
1.142574e+003, 1.889838e+002
1.143056e+003, 1.887488e+002
1.143538e+003, 1.890076e+002
1.144020e+003, 1.897490e+002
1.144502e+003, 1.903183e+002
1.144984e+003, 1.901763e+002
1.145466e+003, 1.898604e+002
1.145948e+003, 1.899020e+002
1.146431e+003, 1.901201e+002
1.146913e+003, 1.903624e+002
1.147395e+003, 1.905709e+002
1.147877e+003, 1.907050e+002
1.148359e+003, 1.907344e+002
1.148841e+003, 1.905326e+002
1.149323e+003, 1.899767e+002
1.149805e+003, 1.896187e+002
1.150287e+003, 1.901035e+002
1.150770e+003, 1.905727e+002
1.151252e+003, 1.902694e+002
1.151734e+003, 1.897331e+002
1.152216e+003, 1.894580e+002
1.152698e+003, 1.894851e+002
1.153180e+003, 1.898767e+002
1.153662e+003, 1.906402e+002
1.154144e+003, 1.910094e+002
1.154626e+003, 1.904922e+002
1.155109e+003, 1.898792e+002
1.155591e+003, 1.892197e+002
1.156073e+003, 1.887770e+002
1.156555e+003, 1.888976e+002
1.157037e+003, 1.892093e+002
1.157519e+003, 1.892265e+002
1.158001e+003, 1.889593e+002
1.158483e+003, 1.887107e+002
1.158966e+003, 1.885067e+002
1.159448e+003, 1.883226e+002
1.159930e+003, 1.880336e+002
1.160412e+003, 1.879318e+002
1.160894e+003, 1.880740e+002
1.161376e+003, 1.884632e+002
1.161858e+003, 1.893770e+002
1.162340e+003, 1.903838e+002
1.162822e+003, 1.904926e+002
1.163305e+003, 1.896154e+002
1.163787e+003, 1.887499e+002
1.164269e+003, 1.877495e+002
1.164751e+003, 1.872418e+002
1.165233e+003, 1.874685e+002
1.165715e+003, 1.877093e+002
1.166197e+003, 1.875659e+002
1.166679e+003, 1.874570e+002
1.167161e+003, 1.879261e+002
1.167644e+003, 1.887944e+002
1.168126e+003, 1.893427e+002
1.168608e+003, 1.895647e+002
1.169090e+003, 1.896208e+002
1.169572e+003, 1.895128e+002
1.170054e+003, 1.894088e+002
1.170536e+003, 1.893549e+002
1.171018e+003, 1.893032e+002
1.171500e+003, 1.892272e+002
1.171983e+003, 1.890836e+002
1.172465e+003, 1.886489e+002
1.172947e+003, 1.881469e+002
1.173429e+003, 1.886054e+002
1.173911e+003, 1.896561e+002
1.174393e+003, 1.898432e+002
1.174875e+003, 1.891148e+002
1.175357e+003, 1.881032e+002
1.175840e+003, 1.871109e+002
1.176322e+003, 1.867327e+002
1.176804e+003, 1.876829e+002
1.177286e+003, 1.889636e+002
1.177768e+003, 1.891515e+002
1.178250e+003, 1.890141e+002
1.178732e+003, 1.899993e+002
1.179214e+003, 1.914055e+002
1.179697e+003, 1.914021e+002
1.180179e+003, 1.901628e+002
1.180661e+003, 1.898558e+002
1.181143e+003, 1.915499e+002
1.181625e+003, 1.928085e+002
1.182107e+003, 1.918215e+002
1.182589e+003, 1.903033e+002
1.183071e+003, 1.889999e+002
1.183553e+003, 1.880341e+002
1.184036e+003, 1.875435e+002
1.184518e+003, 1.874319e+002
1.185000e+003, 1.876516e+002
1.185482e+003, 1.881536e+002
1.185964e+003, 1.883243e+002
1.186446e+003, 1.876572e+002
1.186928e+003, 1.872486e+002
1.187410e+003, 1.875719e+002
1.187892e+003, 1.878267e+002
1.188375e+003, 1.874534e+002
1.188857e+003, 1.870659e+002
1.189339e+003, 1.873676e+002
1.189821e+003, 1.880680e+002
1.190303e+003, 1.883233e+002
1.190785e+003, 1.880804e+002
1.191267e+003, 1.876683e+002
1.191749e+003, 1.868895e+002
1.192232e+003, 1.865256e+002
1.192714e+003, 1.867984e+002
1.193196e+003, 1.872320e+002
1.193678e+003, 1.876418e+002
1.194160e+003, 1.879518e+002
1.194642e+003, 1.880887e+002
1.195124e+003, 1.880204e+002
1.195606e+003, 1.874370e+002
1.196089e+003, 1.863834e+002
1.196571e+003, 1.863634e+002
1.197053e+003, 1.873720e+002
1.197535e+003, 1.878060e+002
1.198017e+003, 1.872932e+002
1.198499e+003, 1.867310e+002
1.198981e+003, 1.866741e+002
1.199463e+003, 1.868639e+002
1.199945e+003, 1.870329e+002
1.200427e+003, 1.871506e+002
1.200910e+003, 1.871096e+002
1.201392e+003, 1.869900e+002
1.201874e+003, 1.870041e+002
1.202356e+003, 1.871035e+002
1.202838e+003, 1.870605e+002
1.203320e+003, 1.868342e+002
1.203802e+003, 1.866219e+002
1.204284e+003, 1.865302e+002
1.204767e+003, 1.865094e+002
1.205249e+003, 1.865892e+002
1.205731e+003, 1.866531e+002
1.206213e+003, 1.865797e+002
1.206695e+003, 1.864526e+002
1.207177e+003, 1.863296e+002
1.207659e+003, 1.862551e+002
1.208141e+003, 1.863523e+002
1.208624e+003, 1.866640e+002
1.209106e+003, 1.868048e+002
1.209588e+003, 1.865096e+002
1.210070e+003, 1.862943e+002
1.210552e+003, 1.864505e+002
1.211034e+003, 1.864893e+002
1.211516e+003, 1.859858e+002
1.211998e+003, 1.853989e+002
1.212480e+003, 1.851309e+002
1.212963e+003, 1.851735e+002
1.213445e+003, 1.855759e+002
1.213927e+003, 1.865412e+002
1.214409e+003, 1.867365e+002
1.214891e+003, 1.858668e+002
1.215373e+003, 1.854463e+002
1.215855e+003, 1.858531e+002
1.216337e+003, 1.862788e+002
1.216819e+003, 1.863069e+002
1.217302e+003, 1.860852e+002
1.217784e+003, 1.857326e+002
1.218266e+003, 1.853775e+002
1.218748e+003, 1.856184e+002
1.219230e+003, 1.862325e+002
1.219712e+003, 1.859179e+002
1.220194e+003, 1.848193e+002
1.220676e+003, 1.839642e+002
1.221159e+003, 1.836102e+002
1.221641e+003, 1.836902e+002
1.222123e+003, 1.841823e+002
1.222605e+003, 1.847259e+002
1.223087e+003, 1.850029e+002
1.223569e+003, 1.850918e+002
1.224051e+003, 1.850743e+002
1.224533e+003, 1.849261e+002
1.225016e+003, 1.844573e+002
1.225498e+003, 1.838975e+002
1.225980e+003, 1.836746e+002
1.226462e+003, 1.838408e+002
1.226944e+003, 1.841994e+002
1.227426e+003, 1.848051e+002
1.227908e+003, 1.852229e+002
1.228390e+003, 1.852717e+002
1.228872e+003, 1.851385e+002
1.229354e+003, 1.844586e+002
1.229837e+003, 1.840620e+002
1.230319e+003, 1.851336e+002
1.230801e+003, 1.866546e+002
1.231283e+003, 1.866576e+002
1.231765e+003, 1.852041e+002
1.232247e+003, 1.844110e+002
1.232729e+003, 1.844901e+002
1.233211e+003, 1.845893e+002
1.233694e+003, 1.846528e+002
1.234176e+003, 1.848815e+002
1.234658e+003, 1.854437e+002
1.235140e+003, 1.856509e+002
1.235622e+003, 1.849312e+002
1.236104e+003, 1.838671e+002
1.236586e+003, 1.834074e+002
1.237068e+003, 1.834830e+002
1.237551e+003, 1.840993e+002
1.238033e+003, 1.849857e+002
1.238515e+003, 1.845698e+002
1.238997e+003, 1.831216e+002
1.239479e+003, 1.828098e+002
1.239961e+003, 1.840979e+002
1.240443e+003, 1.853060e+002
1.240925e+003, 1.853636e+002
1.241407e+003, 1.850331e+002
1.241890e+003, 1.849964e+002
1.242372e+003, 1.849830e+002
1.242854e+003, 1.847108e+002
1.243336e+003, 1.843156e+002
1.243818e+003, 1.838672e+002
1.244300e+003, 1.834800e+002
1.244782e+003, 1.834081e+002
1.245264e+003, 1.836576e+002
1.245746e+003, 1.837672e+002
1.246229e+003, 1.835049e+002
1.246711e+003, 1.833049e+002
1.247193e+003, 1.831424e+002
1.247675e+003, 1.831913e+002
1.248157e+003, 1.837470e+002
1.248639e+003, 1.842429e+002
1.249121e+003, 1.842649e+002
1.249603e+003, 1.839836e+002
1.250085e+003, 1.836801e+002
1.250568e+003, 1.833588e+002
1.251050e+003, 1.830798e+002
1.251532e+003, 1.828311e+002
1.252014e+003, 1.827773e+002
1.252496e+003, 1.829374e+002
1.252978e+003, 1.830861e+002
1.253460e+003, 1.831552e+002
1.253942e+003, 1.831366e+002
1.254425e+003, 1.830165e+002
1.254907e+003, 1.828946e+002
1.255389e+003, 1.830256e+002
1.255871e+003, 1.831638e+002
1.256353e+003, 1.825849e+002
1.256835e+003, 1.818153e+002
1.257317e+003, 1.819991e+002
1.257799e+003, 1.828294e+002
1.258281e+003, 1.834002e+002
1.258764e+003, 1.835029e+002
1.259246e+003, 1.833252e+002
1.259728e+003, 1.828533e+002
1.260210e+003, 1.824711e+002
1.260692e+003, 1.822857e+002
1.261174e+003, 1.823262e+002
1.261656e+003, 1.826990e+002
1.262138e+003, 1.832088e+002
1.262620e+003, 1.840344e+002
1.263103e+003, 1.847034e+002
1.263585e+003, 1.842291e+002
1.264067e+003, 1.828282e+002
1.264549e+003, 1.824210e+002
1.265031e+003, 1.835158e+002
1.265513e+003, 1.837853e+002
1.265995e+003, 1.829669e+002
1.266477e+003, 1.824669e+002
1.266960e+003, 1.826366e+002
1.267442e+003, 1.828892e+002
1.267924e+003, 1.829035e+002
1.268406e+003, 1.827920e+002
1.268888e+003, 1.826501e+002
1.269370e+003, 1.825547e+002
1.269852e+003, 1.827820e+002
1.270334e+003, 1.831546e+002
1.270817e+003, 1.832292e+002
1.271299e+003, 1.830493e+002
1.271781e+003, 1.827546e+002
1.272263e+003, 1.824124e+002
1.272745e+003, 1.820797e+002
1.273227e+003, 1.817792e+002
1.273709e+003, 1.817061e+002
1.274191e+003, 1.821842e+002
1.274673e+003, 1.826311e+002
1.275156e+003, 1.827751e+002
1.275638e+003, 1.827700e+002
1.276120e+003, 1.826347e+002
1.276602e+003, 1.824724e+002
1.277084e+003, 1.823725e+002
1.277566e+003, 1.823397e+002
1.278048e+003, 1.823868e+002
1.278530e+003, 1.825323e+002
1.279012e+003, 1.825719e+002
1.279495e+003, 1.824145e+002
1.279977e+003, 1.824729e+002
1.280459e+003, 1.828434e+002
1.280941e+003, 1.832254e+002
1.281423e+003, 1.835284e+002
1.281905e+003, 1.836220e+002
1.282387e+003, 1.833861e+002
1.282869e+003, 1.829892e+002
1.283352e+003, 1.826835e+002
1.283834e+003, 1.824326e+002
1.284316e+003, 1.821457e+002
1.284798e+003, 1.818314e+002
##END=



