##NAMES=Taramite
##RRUFFID=R070238
##IDEAL CHEMISTRY=Na(NaCa)(Mg_3_Al_2_)(Si_6_Al_2_)O_22_(OH)_2_
##LOCALITY=Ilmen Mts, Chelyabinsk Oblast', Urals Region, Russia
##OWNER=RRUFF
##SOURCE=Michael Scott
##DESCRIPTION=Lustrous black crystals in matrix
##STATUS=The identification of this mineral has been confirmed only by single crystal X-ray diffraction.
##URL=rruff.info/R070238
163.1611, 1035.293
163.6432, 1046.867
164.1253, 1056.297
164.6075, 1058.002
165.0896, 1051.714
165.5717, 1046.956
166.0538, 1050.499
166.5359, 1058.676
167.0180, 1066.222
167.5002, 1069.530
167.9823, 1072.332
168.4644, 1078.078
168.9465, 1087.501
169.4286, 1096.510
169.9107, 1102.324
170.3929, 1105.496
170.8750, 1107.343
171.3571, 1109.496
171.8392, 1110.218
172.3213, 1106.477
172.8034, 1096.467
173.2856, 1086.837
173.7677, 1085.418
174.2498, 1090.104
174.7319, 1093.681
175.2140, 1087.336
175.6961, 1078.124
176.1783, 1078.674
176.6604, 1095.793
177.1425, 1115.152
177.6246, 1115.517
178.1067, 1099.722
178.5888, 1086.202
179.0710, 1093.332
179.5531, 1112.663
180.0352, 1125.220
180.5173, 1124.565
180.9994, 1116.861
181.4815, 1110.164
181.9637, 1104.488
182.4458, 1102.058
182.9279, 1107.851
183.4100, 1119.305
183.8921, 1126.635
184.3742, 1125.056
184.8564, 1118.447
185.3385, 1115.339
185.8206, 1115.769
186.3027, 1118.932
186.7848, 1125.896
187.2669, 1135.921
187.7491, 1143.620
188.2312, 1146.346
188.7133, 1145.251
189.1954, 1144.585
189.6775, 1144.470
190.1596, 1144.253
190.6418, 1142.747
191.1239, 1140.007
191.6060, 1137.855
192.0881, 1136.318
192.5702, 1135.647
193.0524, 1138.790
193.5345, 1146.628
194.0166, 1155.966
194.4987, 1161.784
194.9808, 1163.916
195.4629, 1165.036
195.9451, 1165.899
196.4272, 1166.536
196.9093, 1167.921
197.3914, 1169.827
197.8735, 1172.884
198.3556, 1179.514
198.8378, 1190.547
199.3199, 1199.765
199.8020, 1202.653
200.2841, 1198.641
200.7662, 1196.984
201.2483, 1199.518
201.7305, 1203.496
202.2126, 1200.813
202.6947, 1189.429
203.1768, 1179.001
203.6589, 1177.319
204.1410, 1186.470
204.6232, 1188.916
205.1053, 1180.635
205.5874, 1165.740
206.0695, 1158.328
206.5516, 1160.169
207.0337, 1164.853
207.5159, 1168.122
207.9980, 1169.444
208.4801, 1171.718
208.9622, 1175.789
209.4443, 1181.070
209.9264, 1185.166
210.4086, 1188.934
210.8907, 1189.778
211.3728, 1184.562
211.8549, 1170.746
212.3370, 1159.371
212.8191, 1152.013
213.3013, 1148.476
213.7834, 1146.560
214.2655, 1146.029
214.7476, 1147.518
215.2297, 1152.320
215.7118, 1162.506
216.1940, 1170.373
216.6761, 1174.346
217.1582, 1174.575
217.6403, 1173.298
218.1224, 1169.018
218.6045, 1165.250
219.0867, 1166.239
219.5688, 1175.243
220.0509, 1181.128
220.5330, 1180.350
221.0151, 1172.694
221.4972, 1168.458
221.9794, 1168.540
222.4615, 1170.991
222.9436, 1174.767
223.4257, 1183.404
223.9078, 1185.729
224.3899, 1176.874
224.8721, 1155.325
225.3542, 1141.346
225.8363, 1137.780
226.3184, 1138.959
226.8005, 1137.894
227.2827, 1132.376
227.7648, 1128.792
228.2469, 1128.258
228.7290, 1130.537
229.2111, 1138.392
229.6932, 1156.572
230.1754, 1176.388
230.6575, 1185.939
231.1396, 1179.559
231.6217, 1172.751
232.1038, 1169.603
232.5859, 1170.678
233.0681, 1172.733
233.5502, 1177.496
234.0323, 1182.000
234.5144, 1180.889
234.9965, 1167.961
235.4786, 1160.017
235.9608, 1163.393
236.4429, 1181.040
236.9250, 1196.270
237.4071, 1209.959
237.8892, 1220.552
238.3713, 1225.120
238.8535, 1220.831
239.3356, 1215.208
239.8177, 1210.215
240.2998, 1205.512
240.7819, 1202.366
241.2640, 1198.786
241.7462, 1197.862
242.2283, 1206.577
242.7104, 1234.546
243.1925, 1256.213
243.6746, 1260.786
244.1567, 1240.372
244.6389, 1230.413
245.1210, 1235.783
245.6031, 1248.677
246.0852, 1255.033
246.5673, 1251.182
247.0494, 1247.061
247.5316, 1246.628
248.0137, 1251.902
248.4958, 1253.761
248.9779, 1250.386
249.4600, 1244.604
249.9421, 1241.687
250.4243, 1242.321
250.9064, 1244.574
251.3885, 1248.520
251.8706, 1255.942
252.3527, 1258.840
252.8348, 1255.626
253.3170, 1248.897
253.7991, 1243.698
254.2812, 1241.309
254.7633, 1238.094
255.2454, 1232.315
255.7275, 1222.963
256.2097, 1214.620
256.6918, 1206.082
257.1739, 1199.466
257.6560, 1200.273
258.1381, 1214.138
258.6202, 1223.709
259.1024, 1220.117
259.5845, 1197.891
260.0666, 1186.065
260.5487, 1188.632
261.0308, 1198.603
261.5129, 1202.466
261.9951, 1196.684
262.4772, 1193.229
262.9593, 1198.847
263.4414, 1217.495
263.9235, 1225.533
264.4056, 1218.898
264.8878, 1205.506
265.3699, 1200.294
265.8520, 1206.984
266.3341, 1211.003
266.8162, 1203.614
267.2983, 1181.012
267.7805, 1173.486
268.2626, 1186.577
268.7447, 1208.696
269.2268, 1219.120
269.7089, 1214.701
270.1910, 1209.875
270.6732, 1210.509
271.1553, 1217.285
271.6374, 1222.933
272.1195, 1227.349
272.6016, 1230.800
273.0837, 1232.998
273.5659, 1233.428
274.0480, 1235.304
274.5301, 1241.097
275.0122, 1251.044
275.4943, 1257.094
275.9764, 1259.064
276.4586, 1257.481
276.9407, 1251.079
277.4228, 1238.944
277.9049, 1230.529
278.3870, 1230.999
278.8691, 1239.894
279.3513, 1246.783
279.8334, 1251.527
280.3155, 1254.616
280.7976, 1256.318
281.2798, 1256.564
281.7619, 1256.669
282.2440, 1256.730
282.7261, 1256.916
283.2082, 1258.418
283.6903, 1261.199
284.1725, 1265.430
284.6546, 1272.784
285.1367, 1282.993
285.6188, 1290.640
286.1009, 1294.089
286.5830, 1293.443
287.0652, 1287.840
287.5473, 1276.628
288.0294, 1264.655
288.5115, 1257.316
288.9936, 1254.202
289.4757, 1252.231
289.9579, 1250.994
290.4400, 1249.987
290.9221, 1245.696
291.4042, 1237.538
291.8863, 1233.359
292.3684, 1247.009
292.8506, 1273.425
293.3327, 1290.552
293.8148, 1287.524
294.2969, 1273.327
294.7790, 1265.520
295.2611, 1264.091
295.7433, 1263.194
296.2254, 1256.424
296.7075, 1245.910
297.1896, 1237.950
297.6717, 1235.007
298.1538, 1234.770
298.6360, 1235.525
299.1181, 1236.955
299.6002, 1235.220
300.0823, 1222.687
300.5644, 1205.396
301.0465, 1195.205
301.5287, 1198.385
302.0108, 1205.926
302.4929, 1207.051
302.9750, 1202.946
303.4571, 1200.347
303.9392, 1209.320
304.4214, 1220.887
304.9035, 1221.898
305.3856, 1204.064
305.8677, 1183.173
306.3498, 1173.940
306.8319, 1173.719
307.3141, 1172.996
307.7962, 1163.827
308.2783, 1152.580
308.7604, 1145.538
309.2425, 1145.019
309.7246, 1146.883
310.2068, 1151.784
310.6889, 1157.420
311.1710, 1157.921
311.6531, 1144.058
312.1352, 1127.879
312.6173, 1119.191
313.0995, 1122.235
313.5816, 1125.219
314.0637, 1122.116
314.5458, 1115.147
315.0279, 1108.490
315.5100, 1102.245
315.9922, 1097.862
316.4743, 1097.708
316.9564, 1104.213
317.4385, 1105.949
317.9206, 1091.725
318.4027, 1072.157
318.8849, 1062.081
319.3670, 1076.979
319.8491, 1091.928
320.3312, 1094.599
320.8133, 1080.514
321.2954, 1076.354
321.7776, 1099.365
322.2597, 1130.161
322.7418, 1148.080
323.2239, 1137.756
323.7060, 1126.662
324.1881, 1121.630
324.6703, 1123.497
325.1524, 1123.502
325.6345, 1119.465
326.1166, 1114.183
326.5987, 1109.799
327.0808, 1101.792
327.5630, 1100.088
328.0451, 1108.863
328.5272, 1127.444
329.0093, 1141.602
329.4914, 1153.617
329.9735, 1158.902
330.4557, 1153.172
330.9378, 1125.399
331.4199, 1105.956
331.9020, 1099.349
332.3841, 1103.161
332.8662, 1105.875
333.3484, 1107.473
333.8305, 1107.956
334.3126, 1106.692
334.7947, 1102.051
335.2768, 1101.017
335.7589, 1105.281
336.2411, 1112.601
336.7232, 1117.263
337.2053, 1118.437
337.6874, 1119.280
338.1695, 1121.248
338.6516, 1124.420
339.1338, 1128.085
339.6159, 1132.567
340.0980, 1136.959
340.5801, 1139.780
341.0622, 1141.036
341.5443, 1140.840
342.0265, 1138.971
342.5086, 1135.568
342.9907, 1130.260
343.4728, 1121.842
343.9549, 1116.427
344.4370, 1127.407
344.9192, 1152.245
345.4013, 1166.304
345.8834, 1153.510
346.3655, 1125.627
346.8476, 1115.170
347.3297, 1122.560
347.8119, 1135.262
348.2940, 1144.142
348.7761, 1149.254
349.2582, 1150.375
349.7403, 1145.904
350.2225, 1139.064
350.7046, 1133.342
351.1867, 1128.856
351.6688, 1126.926
352.1509, 1131.960
352.6331, 1139.262
353.1152, 1141.608
353.5973, 1136.458
354.0794, 1127.749
354.5615, 1116.114
355.0436, 1103.195
355.5258, 1093.982
356.0079, 1094.811
356.4900, 1098.555
356.9721, 1098.709
357.4542, 1093.297
357.9363, 1087.612
358.4185, 1083.580
358.9006, 1081.391
359.3827, 1081.372
359.8648, 1087.972
360.3469, 1093.350
360.8290, 1091.759
361.3112, 1081.331
361.7933, 1074.215
362.2754, 1080.561
362.7575, 1089.810
363.2396, 1090.485
363.7217, 1070.909
364.2039, 1051.584
364.6860, 1037.189
365.1681, 1027.864
365.6502, 1021.667
366.1323, 1018.575
366.6144, 1018.332
367.0966, 1020.845
367.5787, 1032.328
368.0608, 1038.888
368.5429, 1039.149
369.0250, 1033.612
369.5071, 1024.370
369.9893, 1005.640
370.4714, 989.9432
370.9535, 983.7804
371.4356, 991.2606
371.9177, 999.5209
372.3998, 1010.439
372.8820, 1021.042
373.3641, 1024.274
373.8462, 1018.519
374.3283, 1009.505
374.8104, 997.4633
375.2925, 981.3257
375.7747, 975.4476
376.2568, 983.3726
376.7389, 994.4352
377.2210, 990.8274
377.7031, 970.9721
378.1852, 959.9481
378.6674, 970.8707
379.1495, 996.4630
379.6316, 1004.190
380.1137, 992.6403
380.5958, 975.4185
381.0779, 962.9114
381.5601, 954.9083
382.0422, 951.8937
382.5243, 956.1959
383.0064, 962.4917
383.4885, 960.0489
383.9706, 950.1354
384.4528, 942.2676
384.9349, 945.6000
385.4170, 954.4905
385.8991, 959.0874
386.3812, 956.8483
386.8633, 953.8768
387.3455, 957.6465
387.8276, 965.1353
388.3097, 969.4684
388.7918, 963.5278
389.2739, 955.3203
389.7560, 952.6998
390.2382, 956.9809
390.7203, 958.1565
391.2024, 946.8773
391.6845, 930.8927
392.1666, 918.9896
392.6487, 917.1183
393.1309, 917.1188
393.6130, 915.3189
394.0951, 912.0068
394.5772, 911.3514
395.0593, 917.1431
395.5414, 924.1981
396.0236, 929.2261
396.5057, 931.4387
396.9878, 932.0150
397.4699, 930.3396
397.9520, 926.9839
398.4341, 923.6005
398.9163, 915.6311
399.3984, 912.4327
399.8805, 919.0917
400.3626, 941.9788
400.8447, 955.8586
401.3268, 959.6878
401.8090, 955.2466
402.2911, 942.1852
402.7732, 913.3361
403.2553, 895.5284
403.7374, 900.3744
404.2195, 926.0134
404.7017, 936.8311
405.1838, 928.9338
405.6659, 916.7189
406.1480, 914.4218
406.6301, 922.2255
407.1122, 925.9931
407.5944, 921.6803
408.0765, 913.4296
408.5586, 910.6595
409.0407, 913.2981
409.5228, 919.3011
410.0049, 927.8611
410.4871, 938.6850
410.9692, 953.0458
411.4513, 972.8734
411.9334, 989.0272
412.4155, 989.6078
412.8976, 977.8833
413.3798, 963.5306
413.8619, 943.9424
414.3440, 927.8199
414.8261, 927.7241
415.3082, 943.7751
415.7903, 958.2380
416.2725, 956.5479
416.7546, 948.0401
417.2367, 943.2723
417.7188, 948.8641
418.2009, 955.3144
418.6830, 957.9734
419.1652, 957.8364
419.6473, 958.4490
420.1294, 962.9735
420.6115, 967.1180
421.0937, 967.7466
421.5758, 960.2371
422.0579, 958.3344
422.5400, 968.3159
423.0221, 984.0160
423.5042, 995.5602
423.9864, 1001.259
424.4685, 1004.203
424.9506, 1004.697
425.4327, 1002.609
425.9148, 999.2580
426.3969, 992.3928
426.8791, 986.8234
427.3612, 987.9560
427.8433, 999.3313
428.3254, 1005.891
428.8075, 1003.834
429.2896, 996.1813
429.7718, 993.7623
430.2539, 997.5152
430.7360, 1001.449
431.2181, 1001.736
431.7002, 998.6442
432.1823, 996.8427
432.6645, 997.3947
433.1466, 996.4390
433.6287, 983.8503
434.1108, 963.0557
434.5929, 951.6332
435.0750, 965.2741
435.5572, 989.2842
436.0393, 996.7892
436.5214, 988.3983
437.0035, 977.0267
437.4856, 967.9374
437.9677, 963.6266
438.4499, 969.8429
438.9320, 997.6353
439.4141, 1019.925
439.8962, 1010.180
440.3783, 979.2014
440.8604, 954.5417
441.3426, 952.5458
441.8247, 957.4478
442.3068, 961.4682
442.7889, 964.0368
443.2710, 964.2833
443.7531, 959.5304
444.2353, 953.2905
444.7174, 949.3653
445.1995, 948.1904
445.6816, 949.5568
446.1637, 956.2353
446.6458, 967.1581
447.1280, 970.9125
447.6101, 962.3945
448.0922, 952.3107
448.5743, 946.5993
449.0564, 946.7305
449.5385, 947.3945
450.0207, 948.9658
450.5028, 950.5369
450.9849, 951.0497
451.4670, 951.0513
451.9491, 946.9611
452.4312, 934.2419
452.9134, 915.0591
453.3955, 907.0448
453.8776, 911.1755
454.3597, 919.5019
454.8418, 925.9785
455.3239, 930.4908
455.8061, 931.6650
456.2882, 927.3291
456.7703, 922.4756
457.2524, 926.1849
457.7345, 936.3088
458.2166, 944.1551
458.6988, 944.6089
459.1809, 939.9724
459.6630, 931.3566
460.1451, 918.1055
460.6272, 906.1092
461.1093, 897.5076
461.5915, 892.8386
462.0736, 893.0043
462.5557, 903.8835
463.0378, 914.1548
463.5199, 917.4557
464.0020, 915.1135
464.4842, 917.5647
464.9663, 935.4103
465.4484, 952.3260
465.9305, 959.1710
466.4126, 946.3017
466.8947, 940.0380
467.3769, 944.1935
467.8590, 953.2743
468.3411, 957.9576
468.8232, 954.8527
469.3053, 954.4387
469.7874, 962.1543
470.2696, 976.9827
470.7517, 978.1488
471.2338, 962.2441
471.7159, 943.2226
472.1980, 932.6862
472.6801, 930.4890
473.1623, 930.5353
473.6444, 931.2623
474.1265, 935.1700
474.6086, 951.7059
475.0907, 978.1074
475.5728, 996.5076
476.0550, 990.5599
476.5371, 972.9644
477.0192, 964.8112
477.5013, 966.8569
477.9834, 970.2536
478.4655, 969.1776
478.9477, 965.0297
479.4298, 959.3019
479.9119, 947.9355
480.3940, 940.7009
480.8761, 944.8555
481.3582, 957.4777
481.8404, 970.1859
482.3225, 982.5446
482.8046, 992.4714
483.2867, 998.2384
483.7688, 997.7853
484.2509, 999.8364
484.7331, 1008.220
485.2152, 1017.816
485.6973, 1023.894
486.1794, 1024.141
486.6615, 1024.758
487.1436, 1026.326
487.6258, 1028.913
488.1079, 1034.113
488.5900, 1044.331
489.0721, 1050.364
489.5542, 1043.161
490.0363, 1022.481
490.5185, 1015.447
491.0006, 1025.084
491.4827, 1040.788
491.9648, 1048.124
492.4470, 1048.851
492.9291, 1052.748
493.4112, 1065.422
493.8933, 1080.988
494.3754, 1090.576
494.8575, 1094.678
495.3397, 1095.831
495.8218, 1093.260
496.3039, 1089.834
496.7860, 1088.927
497.2681, 1091.552
497.7502, 1094.570
498.2324, 1097.504
498.7145, 1099.503
499.1966, 1099.464
499.6787, 1093.609
500.1608, 1089.129
500.6429, 1087.818
501.1251, 1089.713
501.6072, 1094.549
502.0893, 1108.460
502.5714, 1119.907
503.0535, 1122.427
503.5356, 1108.819
504.0178, 1103.736
504.4999, 1109.598
504.9820, 1121.881
505.4641, 1136.293
505.9462, 1154.922
506.4283, 1163.710
506.9105, 1153.329
507.3926, 1131.137
507.8747, 1129.886
508.3568, 1150.730
508.8389, 1171.429
509.3210, 1172.074
509.8032, 1160.003
510.2853, 1156.118
510.7674, 1164.114
511.2495, 1175.668
511.7316, 1185.029
512.2137, 1191.526
512.6959, 1193.708
513.1780, 1183.274
513.6601, 1174.793
514.1422, 1180.168
514.6243, 1197.492
515.1064, 1213.172
515.5886, 1219.712
516.0707, 1224.528
516.5528, 1232.149
517.0349, 1244.733
517.5170, 1256.937
517.9991, 1267.403
518.4813, 1277.476
518.9634, 1288.868
519.4455, 1302.490
519.9276, 1316.212
520.4097, 1331.927
520.8918, 1347.803
521.3740, 1350.437
521.8561, 1334.976
522.3382, 1322.345
522.8203, 1329.445
523.3024, 1354.753
523.7845, 1372.389
524.2667, 1380.000
524.7488, 1383.802
525.2309, 1392.761
525.7130, 1404.845
526.1951, 1412.569
526.6772, 1410.178
527.1594, 1405.302
527.6415, 1407.356
528.1236, 1415.010
528.6057, 1422.497
529.0878, 1424.608
529.5699, 1426.500
530.0521, 1433.363
530.5342, 1447.982
531.0163, 1458.123
531.4984, 1455.091
531.9805, 1447.742
532.4626, 1445.490
532.9448, 1465.746
533.4269, 1471.212
533.9090, 1448.629
534.3911, 1407.243
534.8732, 1385.153
535.3553, 1391.721
535.8375, 1399.654
536.3196, 1395.879
536.8017, 1379.493
537.2838, 1370.269
537.7659, 1369.410
538.2480, 1371.481
538.7302, 1371.366
539.2123, 1369.174
539.6944, 1364.892
540.1765, 1356.677
540.6586, 1349.752
541.1407, 1354.895
541.6229, 1368.454
542.1050, 1377.395
542.5871, 1373.003
543.0692, 1361.998
543.5513, 1347.574
544.0334, 1330.162
544.5156, 1317.817
544.9977, 1318.037
545.4798, 1322.743
545.9619, 1325.495
546.4440, 1322.030
546.9261, 1321.118
547.4083, 1333.822
547.8904, 1347.737
548.3725, 1338.600
548.8546, 1283.797
549.3367, 1243.427
549.8188, 1236.472
550.3010, 1259.527
550.7831, 1272.569
551.2652, 1273.725
551.7473, 1271.117
552.2294, 1271.632
552.7115, 1274.425
553.1937, 1269.235
553.6758, 1253.638
554.1579, 1236.759
554.6400, 1230.374
555.1221, 1231.923
555.6042, 1234.450
556.0864, 1238.801
556.5685, 1239.684
557.0506, 1227.667
557.5327, 1206.630
558.0148, 1191.204
558.4969, 1194.234
558.9791, 1200.762
559.4612, 1201.419
559.9433, 1193.999
560.4254, 1187.131
560.9075, 1184.531
561.3896, 1181.905
561.8718, 1175.005
562.3539, 1156.782
562.8360, 1146.707
563.3181, 1149.453
563.8002, 1159.729
564.2823, 1165.385
564.7645, 1166.150
565.2466, 1163.297
565.7287, 1157.334
566.2108, 1148.181
566.6929, 1132.152
567.1750, 1108.841
567.6572, 1090.848
568.1393, 1095.173
568.6214, 1111.615
569.1035, 1118.923
569.5856, 1112.252
570.0677, 1102.792
570.5499, 1100.278
571.0320, 1100.972
571.5141, 1098.945
571.9962, 1088.461
572.4783, 1078.392
572.9604, 1073.257
573.4426, 1072.044
573.9247, 1069.163
574.4068, 1060.677
574.8889, 1053.214
575.3710, 1049.752
575.8531, 1051.370
576.3353, 1051.405
576.8174, 1049.116
577.2995, 1046.344
577.7816, 1045.586
578.2637, 1047.323
578.7458, 1045.535
579.2280, 1038.659
579.7101, 1029.160
580.1922, 1018.441
580.6743, 1007.769
581.1564, 1004.305
581.6385, 1021.572
582.1207, 1042.466
582.6028, 1040.633
583.0849, 1018.869
583.5670, 998.9915
584.0491, 999.9244
584.5313, 1004.026
585.0134, 995.0081
585.4955, 963.4866
585.9776, 941.7993
586.4597, 948.8805
586.9418, 965.6292
587.4240, 970.0086
587.9061, 950.1672
588.3882, 935.5513
588.8703, 930.6422
589.3524, 932.6016
589.8345, 933.0978
590.3167, 931.5800
590.7988, 930.7402
591.2809, 932.0610
591.7630, 935.0717
592.2451, 937.6725
592.7272, 939.8952
593.2094, 940.9246
593.6915, 938.8993
594.1736, 935.4373
594.6557, 934.2870
595.1378, 936.9204
595.6199, 938.2323
596.1021, 931.5989
596.5842, 921.9653
597.0663, 916.3638
597.5485, 922.3554
598.0306, 927.3196
598.5127, 925.2091
598.9948, 918.1979
599.4769, 916.0629
599.9590, 926.5375
600.4412, 933.1724
600.9233, 928.4554
601.4054, 911.0999
601.8875, 903.0892
602.3696, 906.6836
602.8517, 914.2575
603.3339, 920.9212
603.8160, 926.5234
604.2981, 926.8803
604.7802, 920.3339
605.2623, 912.6834
605.7444, 912.8254
606.2266, 918.0132
606.7087, 920.8810
607.1908, 917.8881
607.6729, 912.4551
608.1550, 905.0019
608.6371, 896.9536
609.1193, 892.6832
609.6014, 899.1466
610.0835, 905.3883
610.5656, 905.2625
611.0477, 897.2795
611.5298, 891.6694
612.0120, 887.5533
612.4941, 887.1108
612.9762, 893.5817
613.4583, 911.3905
613.9404, 919.0819
614.4225, 913.0255
614.9047, 901.4566
615.3868, 893.9618
615.8689, 890.6833
616.3510, 895.3980
616.8331, 913.6398
617.3152, 934.5801
617.7974, 939.5277
618.2795, 931.9916
618.7616, 925.9409
619.2437, 932.5008
619.7258, 940.9078
620.2079, 942.4477
620.6901, 936.6989
621.1722, 931.5134
621.6543, 931.4333
622.1364, 931.5157
622.6185, 927.7410
623.1006, 914.1623
623.5828, 909.8857
624.0649, 919.5359
624.5470, 934.2469
625.0291, 943.6182
625.5112, 946.9332
625.9933, 948.7136
626.4755, 949.7178
626.9576, 949.6672
627.4397, 947.0021
627.9218, 942.1750
628.4039, 938.6395
628.8860, 938.7065
629.3682, 940.7275
629.8503, 942.8383
630.3324, 944.9964
630.8145, 946.9429
631.2966, 947.7397
631.7787, 948.7955
632.2609, 951.8481
632.7430, 958.4410
633.2251, 961.7453
633.7072, 957.2705
634.1893, 950.8698
634.6714, 947.2666
635.1536, 947.1206
635.6357, 948.6237
636.1178, 952.6195
636.5999, 957.1690
637.0820, 957.7962
637.5641, 954.2635
638.0463, 952.9174
638.5284, 957.4447
639.0105, 963.9887
639.4926, 963.2363
639.9747, 956.6104
640.4568, 952.3585
640.9390, 957.2493
641.4211, 965.6357
641.9032, 973.0671
642.3853, 979.1887
642.8674, 983.4083
643.3495, 986.8643
643.8317, 987.3865
644.3138, 982.8742
644.7959, 967.2960
645.2780, 958.0525
645.7601, 957.4787
646.2422, 961.1876
646.7244, 964.2794
647.2065, 966.5411
647.6886, 969.1741
648.1707, 972.4244
648.6528, 976.0513
649.1349, 979.7722
649.6171, 983.5330
650.0992, 987.0829
650.5813, 993.0485
651.0634, 997.0353
651.5455, 990.2891
652.0276, 975.1404
652.5098, 964.4454
652.9919, 967.7825
653.4740, 975.5742
653.9561, 983.4691
654.4382, 991.9679
654.9203, 994.5136
655.4025, 983.7964
655.8846, 972.2084
656.3667, 968.8427
656.8488, 978.1360
657.3309, 981.8024
657.8130, 977.7040
658.2952, 970.6447
658.7773, 967.9728
659.2594, 969.1643
659.7415, 967.4933
660.2236, 958.9307
660.7057, 950.4986
661.1879, 955.3078
661.6700, 968.8713
662.1521, 978.6219
662.6342, 979.7289
663.1163, 973.9832
663.5984, 956.4896
664.0806, 929.9136
664.5627, 914.5204
665.0448, 925.8718
665.5269, 940.0949
666.0090, 946.5944
666.4911, 943.8448
666.9733, 945.1107
667.4554, 953.1331
667.9375, 959.7349
668.4196, 954.6661
668.9017, 938.6207
669.3839, 936.2043
669.8660, 952.1469
670.3481, 969.7953
670.8302, 965.6369
671.3123, 948.8796
671.7944, 939.8245
672.2766, 948.5209
672.7587, 960.5202
673.2408, 968.9145
673.7229, 973.5604
674.2050, 974.3727
674.6871, 967.2322
675.1693, 960.6276
675.6514, 956.3023
676.1335, 954.2270
676.6156, 954.7773
677.0977, 959.1302
677.5798, 963.3790
678.0620, 965.1465
678.5441, 964.9572
679.0262, 969.7350
679.5083, 980.0558
679.9904, 986.4855
680.4725, 976.4772
680.9547, 958.9625
681.4368, 949.9908
681.9189, 952.0376
682.4010, 957.2714
682.8831, 962.7585
683.3652, 967.6502
683.8474, 971.1876
684.3295, 975.2233
684.8116, 974.6420
685.2937, 963.0051
685.7758, 948.9009
686.2579, 944.7612
686.7401, 956.1429
687.2222, 962.1027
687.7043, 958.0868
688.1864, 947.2596
688.6685, 934.1156
689.1506, 919.2094
689.6328, 911.7185
690.1149, 921.8603
690.5970, 937.7693
691.0791, 938.3796
691.5612, 927.1934
692.0433, 921.9575
692.5255, 940.1748
693.0076, 960.9368
693.4897, 971.6019
693.9718, 970.6917
694.4539, 965.1204
694.9360, 949.6338
695.4182, 935.5549
695.9003, 929.6482
696.3824, 934.7890
696.8645, 935.4973
697.3466, 930.0506
697.8287, 924.6933
698.3109, 927.9508
698.7930, 937.8726
699.2751, 944.0873
699.7572, 944.5329
700.2393, 941.7396
700.7214, 933.5839
701.2036, 924.9655
701.6857, 924.1742
702.1678, 941.0882
702.6499, 958.2390
703.1320, 971.0203
703.6141, 979.2119
704.0963, 982.0155
704.5784, 975.7856
705.0605, 970.1793
705.5426, 967.3518
706.0247, 966.6999
706.5068, 966.0582
706.9890, 965.6199
707.4711, 963.5626
707.9532, 957.4692
708.4353, 949.3930
708.9174, 944.2900
709.3995, 942.1224
709.8817, 942.8979
710.3638, 948.1060
710.8459, 955.3081
711.3280, 962.8314
711.8101, 970.7414
712.2922, 977.1362
712.7744, 983.1992
713.2565, 986.2413
713.7386, 984.0125
714.2207, 972.3591
714.7028, 965.7986
715.1849, 963.7764
715.6671, 967.7356
716.1492, 984.2054
716.6313, 1011.256
717.1134, 1026.523
717.5955, 1024.655
718.0776, 1014.546
718.5598, 1000.502
719.0419, 986.9777
719.5240, 982.9907
720.0061, 1002.060
720.4882, 1018.719
720.9703, 1017.418
721.4525, 1005.513
721.9346, 999.7540
722.4167, 1006.902
722.8988, 1014.586
723.3809, 1021.781
723.8630, 1027.696
724.3452, 1028.261
724.8273, 1022.741
725.3094, 1017.101
725.7915, 1013.186
726.2736, 1011.523
726.7557, 1015.295
727.2379, 1023.681
727.7200, 1030.219
728.2021, 1027.849
728.6842, 1023.892
729.1663, 1025.356
729.6484, 1033.013
730.1306, 1038.318
730.6127, 1036.949
731.0948, 1034.069
731.5769, 1032.503
732.0590, 1032.558
732.5411, 1032.613
733.0233, 1032.668
733.5054, 1032.724
733.9875, 1031.383
734.4696, 1029.414
734.9517, 1034.354
735.4338, 1048.447
735.9160, 1061.024
736.3981, 1058.633
736.8802, 1048.544
737.3623, 1041.267
737.8444, 1039.427
738.3266, 1041.097
738.8087, 1048.890
739.2908, 1058.642
739.7729, 1064.193
740.2551, 1064.368
740.7372, 1062.039
741.2193, 1056.316
741.7014, 1049.273
742.1835, 1045.663
742.6656, 1045.547
743.1478, 1045.032
743.6299, 1042.264
744.1120, 1039.168
744.5941, 1037.970
745.0762, 1038.896
745.5583, 1042.628
746.0405, 1055.631
746.5226, 1065.797
747.0047, 1062.231
747.4868, 1048.142
747.9689, 1042.899
748.4510, 1058.282
748.9332, 1070.549
749.4153, 1071.804
749.8974, 1062.901
750.3795, 1052.792
750.8616, 1040.889
751.3438, 1032.501
751.8259, 1031.943
752.3080, 1037.209
752.7901, 1044.947
753.2722, 1054.824
753.7543, 1063.140
754.2365, 1067.852
754.7186, 1069.698
755.2007, 1068.323
755.6828, 1062.884
756.1649, 1059.248
756.6470, 1059.175
757.1292, 1060.453
757.6113, 1061.806
758.0934, 1063.060
758.5755, 1064.614
759.0576, 1065.791
759.5397, 1069.610
760.0219, 1084.731
760.5040, 1105.378
760.9861, 1109.930
761.4682, 1092.101
761.9503, 1074.202
762.4324, 1076.655
762.9146, 1087.779
763.3967, 1093.280
763.8788, 1080.885
764.3609, 1077.242
764.8430, 1097.884
765.3251, 1123.054
765.8073, 1128.751
766.2894, 1108.604
766.7715, 1093.904
767.2536, 1089.124
767.7357, 1091.328
768.2178, 1098.104
768.7000, 1108.193
769.1821, 1116.109
769.6642, 1119.421
770.1463, 1121.124
770.6284, 1125.026
771.1105, 1129.021
771.5927, 1129.037
772.0748, 1118.442
772.5569, 1109.964
773.0390, 1107.475
773.5211, 1108.982
774.0032, 1109.009
774.4854, 1106.093
774.9675, 1107.955
775.4496, 1120.033
775.9317, 1135.627
776.4138, 1134.386
776.8959, 1119.643
777.3781, 1109.418
777.8602, 1119.031
778.3423, 1132.442
778.8244, 1136.334
779.3065, 1132.292
779.7886, 1127.779
780.2708, 1122.901
780.7529, 1120.362
781.2350, 1123.162
781.7171, 1130.006
782.1992, 1127.112
782.6813, 1111.713
783.1635, 1097.763
783.6456, 1094.876
784.1277, 1098.572
784.6098, 1091.818
785.0919, 1075.865
785.5740, 1062.844
786.0562, 1063.070
786.5383, 1067.641
787.0204, 1070.876
787.5025, 1072.285
787.9846, 1068.554
788.4667, 1050.377
788.9489, 1035.272
789.4310, 1032.403
789.9131, 1042.864
790.3952, 1044.156
790.8773, 1034.518
791.3594, 1023.875
791.8416, 1019.685
792.3237, 1020.238
792.8058, 1021.552
793.2879, 1023.413
793.7700, 1024.977
794.2521, 1030.315
794.7343, 1031.987
795.2164, 1020.823
795.6985, 990.5629
796.1806, 971.6934
796.6627, 972.1230
797.1448, 978.8743
797.6270, 985.0015
798.1091, 990.8562
798.5912, 992.4510
799.0733, 989.0905
799.5554, 985.1647
800.0375, 986.3669
800.5197, 989.6948
801.0018, 989.3392
801.4839, 984.3406
801.9660, 977.0512
802.4481, 963.9042
802.9302, 952.1782
803.4124, 948.9884
803.8945, 962.7844
804.3766, 967.7231
804.8587, 958.8817
805.3408, 947.6743
805.8229, 946.5447
806.3051, 955.3807
806.7872, 955.1992
807.2693, 943.2647
807.7514, 929.0761
808.2335, 919.1017
808.7156, 914.3261
809.1978, 917.6034
809.6799, 932.3237
810.1620, 945.6067
810.6441, 952.2598
811.1262, 954.8171
811.6083, 955.9773
812.0905, 957.9110
812.5726, 952.4814
813.0547, 935.5163
813.5368, 919.0294
814.0189, 919.6374
814.5010, 934.3776
814.9832, 946.4531
815.4653, 953.3793
815.9474, 956.0676
816.4295, 952.0287
816.9116, 945.7050
817.3937, 942.7988
817.8759, 946.6258
818.3580, 950.1841
818.8401, 953.4348
819.3222, 954.8491
819.8043, 951.4091
820.2864, 940.3878
820.7686, 938.4927
821.2507, 949.3988
821.7328, 963.0603
822.2149, 965.6105
822.6970, 960.6022
823.1791, 956.4554
823.6613, 954.4240
824.1434, 955.7674
824.6255, 966.0272
825.1076, 978.0063
825.5897, 983.5374
826.0718, 973.7761
826.5540, 968.4457
827.0361, 970.2955
827.5182, 973.4281
828.0003, 969.0591
828.4824, 957.3701
828.9645, 951.8949
829.4467, 955.4786
829.9288, 962.1874
830.4109, 966.8003
830.8930, 969.5637
831.3751, 971.1747
831.8572, 972.9120
832.3394, 970.8954
832.8215, 956.8673
833.3036, 942.2145
833.7857, 939.2604
834.2678, 950.9321
834.7499, 967.5737
835.2321, 991.9889
835.7142, 1013.231
836.1963, 1012.249
836.6784, 995.7730
837.1605, 990.7025
837.6426, 1005.232
838.1248, 1017.630
838.6069, 1007.411
839.0890, 987.5458
839.5711, 971.7635
840.0532, 958.4617
840.5353, 958.8033
841.0175, 981.7420
841.4996, 1009.240
841.9817, 1022.528
842.4638, 1021.198
842.9459, 1016.278
843.4280, 1007.366
843.9102, 1002.455
844.3923, 1017.700
844.8744, 1040.461
845.3565, 1048.312
845.8386, 1032.279
846.3207, 1018.706
846.8029, 1021.879
847.2850, 1029.849
847.7671, 1031.922
848.2492, 1025.081
848.7313, 1019.621
849.2134, 1014.912
849.6956, 1013.315
850.1777, 1018.776
850.6598, 1029.411
851.1419, 1039.382
851.6240, 1048.258
852.1061, 1053.950
852.5883, 1050.352
853.0704, 1045.687
853.5525, 1048.462
854.0346, 1063.827
854.5167, 1074.272
854.9988, 1077.066
855.4810, 1077.114
855.9631, 1078.254
856.4452, 1080.547
856.9273, 1077.467
857.4094, 1068.221
857.8915, 1062.402
858.3737, 1072.491
858.8558, 1088.982
859.3379, 1100.374
859.8200, 1105.104
860.3021, 1106.496
860.7842, 1101.334
861.2664, 1097.029
861.7485, 1099.008
862.2306, 1108.606
862.7127, 1109.040
863.1948, 1097.641
863.6769, 1088.841
864.1591, 1098.475
864.6412, 1117.014
865.1233, 1119.837
865.6054, 1107.356
866.0875, 1095.307
866.5696, 1088.522
867.0518, 1088.920
867.5339, 1102.043
868.0160, 1129.028
868.4981, 1142.956
868.9802, 1140.079
869.4623, 1131.697
869.9445, 1119.093
870.4266, 1105.550
870.9087, 1112.984
871.3908, 1138.723
871.8729, 1153.798
872.3550, 1123.903
872.8372, 1089.570
873.3193, 1089.237
873.8014, 1117.370
874.2835, 1137.978
874.7656, 1136.221
875.2477, 1133.842
875.7299, 1135.885
876.2120, 1141.417
876.6941, 1147.965
877.1762, 1155.504
877.6583, 1160.132
878.1404, 1159.019
878.6226, 1155.201
879.1047, 1152.129
879.5869, 1149.602
880.0690, 1147.028
880.5511, 1138.512
881.0332, 1136.717
881.5153, 1155.332
881.9974, 1179.859
882.4796, 1176.732
882.9617, 1139.053
883.4438, 1112.982
883.9259, 1110.750
884.4080, 1122.568
884.8901, 1139.027
885.3723, 1157.070
885.8544, 1169.495
886.3365, 1172.333
886.8186, 1171.313
887.3007, 1166.102
887.7828, 1159.611
888.2650, 1155.842
888.7471, 1155.321
889.2292, 1156.594
889.7113, 1160.157
890.1934, 1164.117
890.6755, 1168.734
891.1577, 1171.803
891.6398, 1164.133
892.1219, 1141.550
892.6040, 1121.424
893.0861, 1113.002
893.5682, 1114.607
894.0504, 1127.078
894.5325, 1161.275
895.0146, 1177.542
895.4967, 1170.898
895.9788, 1155.561
896.4609, 1138.708
896.9431, 1122.274
897.4252, 1122.446
897.9073, 1140.304
898.3894, 1157.529
898.8715, 1160.503
899.3536, 1156.899
899.8358, 1151.770
900.3179, 1145.358
900.8000, 1142.300
901.2821, 1142.234
901.7642, 1146.776
902.2463, 1160.096
902.7285, 1179.474
903.2106, 1185.032
903.6927, 1177.000
904.1748, 1163.166
904.6569, 1137.499
905.1390, 1116.290
905.6212, 1121.631
906.1033, 1147.475
906.5854, 1166.820
907.0675, 1165.805
907.5496, 1164.783
908.0317, 1168.435
908.5139, 1175.421
908.9960, 1183.109
909.4781, 1191.472
909.9602, 1195.129
910.4423, 1190.267
910.9244, 1182.881
911.4066, 1179.946
911.8887, 1179.806
912.3708, 1179.375
912.8529, 1180.390
913.3350, 1177.192
913.8171, 1165.135
914.2993, 1151.186
914.7814, 1144.749
915.2635, 1146.231
915.7456, 1149.802
916.2277, 1154.560
916.7098, 1161.640
917.1920, 1172.831
917.6741, 1186.915
918.1562, 1204.007
918.6383, 1227.485
919.1204, 1240.962
919.6025, 1229.521
920.0847, 1214.316
920.5668, 1209.357
921.0489, 1216.062
921.5310, 1223.835
922.0131, 1232.932
922.4952, 1240.761
922.9774, 1243.009
923.4595, 1243.705
923.9416, 1250.812
924.4237, 1264.024
924.9058, 1272.734
925.3879, 1266.905
925.8701, 1261.684
926.3522, 1263.608
926.8343, 1271.884
927.3164, 1279.607
927.7985, 1286.503
928.2806, 1296.274
928.7628, 1316.552
929.2449, 1334.910
929.7270, 1324.895
930.2091, 1296.683
930.6912, 1277.566
931.1733, 1285.629
931.6555, 1296.556
932.1376, 1301.972
932.6197, 1306.301
933.1018, 1318.897
933.5839, 1341.897
934.0660, 1357.161
934.5482, 1360.300
935.0303, 1358.635
935.5124, 1361.189
935.9945, 1365.812
936.4766, 1367.400
936.9587, 1360.547
937.4409, 1362.483
937.9230, 1391.039
938.4051, 1421.225
938.8872, 1434.141
939.3693, 1427.798
939.8514, 1412.331
940.3336, 1385.743
940.8157, 1366.345
941.2978, 1379.975
941.7799, 1405.038
942.2620, 1404.074
942.7441, 1377.095
943.2263, 1363.871
943.7084, 1399.503
944.1905, 1431.323
944.6726, 1435.373
945.1547, 1417.061
945.6368, 1412.661
946.1190, 1423.343
946.6011, 1426.856
947.0832, 1406.860
947.5653, 1381.381
948.0474, 1375.543
948.5295, 1382.989
949.0117, 1388.932
949.4938, 1387.960
949.9759, 1385.164
950.4580, 1380.066
950.9401, 1374.858
951.4222, 1373.567
951.9044, 1376.276
952.3865, 1376.581
952.8686, 1372.651
953.3507, 1370.061
953.8328, 1379.147
954.3149, 1391.021
954.7971, 1393.750
955.2792, 1382.603
955.7613, 1371.292
956.2434, 1357.974
956.7255, 1349.917
957.2076, 1355.257
957.6898, 1373.262
958.1719, 1374.801
958.6540, 1360.107
959.1361, 1344.287
959.6182, 1340.382
960.1003, 1337.925
960.5825, 1322.378
961.0646, 1297.394
961.5467, 1286.635
962.0288, 1304.864
962.5109, 1322.022
962.9930, 1332.024
963.4752, 1335.662
963.9573, 1334.135
964.4394, 1327.589
964.9215, 1315.790
965.4036, 1294.523
965.8857, 1276.354
966.3679, 1274.611
966.8500, 1280.652
967.3321, 1283.119
967.8142, 1277.857
968.2963, 1272.936
968.7784, 1266.841
969.2606, 1264.290
969.7427, 1274.586
970.2248, 1292.608
970.7069, 1297.954
971.1890, 1289.222
971.6711, 1280.206
972.1533, 1279.472
972.6354, 1281.951
973.1175, 1286.085
973.5996, 1291.455
974.0817, 1290.159
974.5638, 1279.591
975.0460, 1271.783
975.5281, 1273.140
976.0102, 1279.046
976.4923, 1279.143
976.9744, 1275.402
977.4565, 1273.611
977.9387, 1279.565
978.4208, 1284.071
978.9029, 1284.327
979.3850, 1281.025
979.8671, 1274.375
980.3492, 1263.665
980.8314, 1253.749
981.3135, 1244.989
981.7956, 1237.713
982.2777, 1233.090
982.7598, 1229.686
983.2419, 1224.244
983.7241, 1215.431
984.2062, 1212.070
984.6883, 1222.938
985.1704, 1233.666
985.6525, 1237.434
986.1346, 1235.059
986.6168, 1235.526
987.0989, 1238.728
987.5810, 1241.267
988.0631, 1242.931
988.5452, 1241.569
989.0273, 1232.635
989.5095, 1219.153
989.9916, 1208.856
990.4737, 1201.632
990.9558, 1201.256
991.4379, 1211.726
991.9200, 1224.170
992.4022, 1221.278
992.8843, 1207.550
993.3664, 1204.508
993.8485, 1218.213
994.3306, 1229.472
994.8127, 1220.833
995.2949, 1206.759
995.7770, 1199.854
996.2591, 1201.580
996.7412, 1205.076
997.2233, 1211.380
997.7054, 1215.568
998.1876, 1214.006
998.6697, 1208.475
999.1518, 1197.934
999.6339, 1185.818
1000.116, 1185.510
1000.598, 1222.335
1001.080, 1249.507
1001.562, 1245.205
1002.044, 1224.016
1002.527, 1210.992
1003.009, 1206.863
1003.491, 1200.913
1003.973, 1190.239
1004.455, 1181.953
1004.937, 1190.713
1005.419, 1203.366
1005.901, 1200.025
1006.384, 1169.949
1006.866, 1156.142
1007.348, 1170.598
1007.830, 1190.763
1008.312, 1207.127
1008.794, 1218.670
1009.276, 1216.323
1009.758, 1201.656
1010.240, 1187.781
1010.723, 1179.906
1011.205, 1177.652
1011.687, 1185.373
1012.169, 1198.168
1012.651, 1202.241
1013.133, 1192.368
1013.615, 1189.975
1014.097, 1201.183
1014.580, 1213.006
1015.062, 1200.246
1015.544, 1177.016
1016.026, 1173.984
1016.508, 1201.455
1016.990, 1221.207
1017.472, 1214.170
1017.954, 1197.693
1018.436, 1178.467
1018.919, 1157.301
1019.401, 1151.465
1019.883, 1160.996
1020.365, 1171.685
1020.847, 1177.764
1021.329, 1179.080
1021.811, 1171.903
1022.293, 1160.080
1022.776, 1153.104
1023.258, 1158.354
1023.740, 1158.212
1024.222, 1147.075
1024.704, 1136.547
1025.186, 1147.301
1025.668, 1172.276
1026.150, 1187.552
1026.632, 1189.759
1027.115, 1183.973
1027.597, 1162.089
1028.079, 1142.832
1028.561, 1142.926
1029.043, 1161.024
1029.525, 1162.377
1030.007, 1144.632
1030.489, 1129.480
1030.972, 1127.823
1031.454, 1133.214
1031.936, 1139.878
1032.418, 1146.192
1032.900, 1148.603
1033.382, 1142.969
1033.864, 1137.432
1034.346, 1132.473
1034.828, 1128.444
1035.311, 1123.711
1035.793, 1119.586
1036.275, 1128.238
1036.757, 1150.782
1037.239, 1169.927
1037.721, 1171.109
1038.203, 1166.553
1038.685, 1166.827
1039.167, 1170.575
1039.650, 1158.119
1040.132, 1123.017
1040.614, 1101.252
1041.096, 1109.318
1041.578, 1130.067
1042.060, 1140.449
1042.542, 1142.445
1043.024, 1139.041
1043.507, 1125.203
1043.989, 1118.191
1044.471, 1126.233
1044.953, 1135.871
1045.435, 1135.585
1045.917, 1126.385
1046.399, 1122.048
1046.881, 1122.635
1047.364, 1123.552
1047.846, 1122.192
1048.328, 1119.642
1048.810, 1115.069
1049.292, 1109.802
1049.774, 1109.644
1050.256, 1117.459
1050.738, 1119.710
1051.220, 1112.387
1051.703, 1102.053
1052.185, 1094.815
1052.667, 1092.428
1053.149, 1100.828
1053.631, 1125.453
1054.113, 1140.034
1054.595, 1128.612
1055.077, 1115.771
1055.559, 1114.354
1056.042, 1122.434
1056.524, 1128.549
1057.006, 1132.293
1057.488, 1130.359
1057.970, 1111.406
1058.452, 1096.062
1058.934, 1103.494
1059.416, 1121.490
1059.899, 1125.723
1060.381, 1110.049
1060.863, 1101.874
1061.345, 1104.817
1061.827, 1109.338
1062.309, 1101.908
1062.791, 1091.516
1063.273, 1095.476
1063.755, 1114.613
1064.238, 1123.443
1064.720, 1104.846
1065.202, 1088.071
1065.684, 1082.270
1066.166, 1083.640
1066.648, 1080.772
1067.130, 1075.279
1067.612, 1075.301
1068.094, 1086.883
1068.577, 1096.217
1069.059, 1093.786
1069.541, 1085.841
1070.023, 1078.773
1070.505, 1073.307
1070.987, 1063.114
1071.469, 1047.015
1071.951, 1036.348
1072.434, 1043.737
1072.916, 1057.252
1073.398, 1063.908
1073.880, 1064.641
1074.362, 1063.652
1074.844, 1063.057
1075.326, 1058.133
1075.808, 1046.187
1076.291, 1033.333
1076.773, 1027.067
1077.255, 1026.908
1077.737, 1034.364
1078.219, 1050.187
1078.701, 1060.455
1079.183, 1050.073
1079.665, 1040.378
1080.147, 1043.728
1080.630, 1057.094
1081.112, 1062.730
1081.594, 1060.781
1082.076, 1055.388
1082.558, 1046.739
1083.040, 1037.856
1083.522, 1029.837
1084.004, 1023.940
1084.486, 1022.715
1084.969, 1030.417
1085.451, 1029.894
1085.933, 1018.705
1086.415, 1008.508
1086.897, 1010.369
1087.379, 1018.108
1087.861, 1020.609
1088.343, 1018.998
1088.826, 1019.068
1089.308, 1028.853
1089.790, 1031.741
1090.272, 1021.680
1090.754, 1007.407
1091.236, 1001.397
1091.718, 1003.076
1092.200, 1011.580
1092.682, 1027.296
1093.165, 1041.493
1093.647, 1055.134
1094.129, 1059.163
1094.611, 1044.080
1095.093, 1013.566
1095.575, 990.0060
1096.057, 973.2655
1096.539, 968.1437
1097.022, 981.5576
1097.504, 997.2357
1097.986, 997.4308
1098.468, 989.8430
1098.950, 985.0918
1099.432, 986.4549
1099.914, 986.2113
1100.396, 984.2939
1100.879, 981.0282
1101.361, 975.5189
1101.843, 969.3483
1102.325, 966.7297
1102.807, 966.3256
1103.289, 963.1530
1103.771, 944.8125
1104.253, 939.4064
1104.735, 958.9041
1105.218, 983.2991
1105.700, 980.9639
1106.182, 958.0807
1106.664, 943.8145
1107.146, 941.2925
1107.628, 943.8082
1108.110, 956.8605
1108.592, 963.8926
1109.074, 950.9437
1109.557, 924.5917
1110.039, 911.8798
1110.521, 912.8813
1111.003, 913.9792
1111.485, 910.0969
1111.967, 908.3983
1112.449, 923.3069
1112.931, 939.6740
1113.414, 937.6555
1113.896, 909.0412
1114.378, 898.4540
1114.860, 910.0098
1115.342, 921.5048
1115.824, 917.3676
1116.306, 908.2119
1116.788, 912.6804
1117.271, 925.1848
1117.753, 933.3249
1118.235, 932.4495
1118.717, 927.4230
1119.199, 917.5865
1119.681, 905.7974
1120.163, 890.0001
1120.645, 875.2419
1121.127, 881.8512
1121.609, 907.8484
1122.092, 927.0576
1122.574, 919.9442
1123.056, 911.3625
1123.538, 910.2788
1124.020, 912.4343
1124.502, 907.7611
1124.984, 897.5606
1125.466, 894.2632
1125.949, 901.0842
1126.431, 906.6414
1126.913, 900.6219
1127.395, 892.3727
1127.877, 887.6574
1128.359, 886.6054
1128.841, 892.5541
1129.323, 906.2662
1129.806, 912.6108
1130.288, 903.0410
1130.770, 890.5320
1131.252, 887.9798
1131.734, 890.5598
1132.216, 891.7142
1132.698, 888.9877
1133.180, 891.6300
1133.662, 900.7830
1134.145, 910.4706
1134.627, 919.4307
1135.109, 924.9773
1135.591, 920.3964
1136.073, 909.0179
1136.555, 899.3999
1137.037, 892.0969
1137.519, 890.5414
1138.001, 897.4915
1138.484, 904.7295
1138.966, 900.9666
1139.448, 891.5623
1139.930, 891.6968
1140.412, 900.7468
1140.894, 905.5153
1141.376, 895.4644
1141.858, 887.0550
1142.341, 885.5800
1142.823, 887.0048
1143.305, 880.2901
1143.787, 869.2603
1144.269, 874.8184
1144.751, 902.5096
1145.233, 923.3203
1145.715, 914.0978
1146.198, 900.0279
1146.680, 896.8654
1147.162, 900.6604
1147.644, 888.1548
1148.126, 861.3050
1148.608, 848.5287
1149.090, 863.9073
1149.572, 881.5392
1150.054, 880.5527
1150.536, 873.4053
1151.019, 871.7542
1151.501, 876.1552
1151.983, 884.5504
1152.465, 897.4413
1152.947, 902.9293
1153.429, 887.3719
1153.911, 869.6871
1154.393, 867.9973
1154.876, 876.7729
1155.358, 887.8045
1155.840, 904.7853
1156.322, 908.3004
1156.804, 895.8247
1157.286, 881.8127
1157.768, 879.6377
1158.250, 881.4097
1158.733, 875.2225
1159.215, 863.9808
1159.697, 860.1481
1160.179, 871.9288
1160.661, 875.4912
1161.143, 864.7743
1161.625, 854.7695
1162.107, 869.0524
1162.589, 892.9575
1163.072, 900.8717
1163.554, 891.6411
1164.036, 881.1974
1164.518, 870.9256
1165.000, 864.0773
1165.482, 861.5026
1165.964, 862.6990
1166.446, 871.3887
1166.928, 882.1009
1167.411, 879.3652
1167.893, 857.2332
1168.375, 845.0800
1168.857, 863.5630
1169.339, 879.5317
1169.821, 877.9734
1170.303, 866.8766
1170.785, 871.7295
1171.268, 887.3113
1171.750, 895.8036
1172.232, 887.7843
1172.714, 881.9144
1173.196, 888.0984
1173.678, 896.4471
1174.160, 901.1134
1174.642, 902.7887
1175.125, 905.1169
1175.607, 908.2089
1176.089, 912.7554
1176.571, 927.5314
1177.053, 932.6580
1177.535, 904.5067
1178.017, 873.9182
1178.499, 874.4221
1178.981, 905.4243
1179.464, 911.5150
1179.946, 893.4036
1180.428, 873.5960
1180.910, 863.7759
1181.392, 858.7828
1181.874, 857.0527
1182.356, 857.7878
1182.838, 860.3436
1183.320, 864.8308
1183.803, 867.9851
1184.285, 869.5023
1184.767, 871.9506
1185.249, 883.0442
1185.731, 890.2867
1186.213, 880.6919
1186.695, 860.8035
1187.177, 849.3862
1187.660, 847.0206
1188.142, 843.6320
1188.624, 837.1981
1189.106, 833.0413
1189.588, 835.9616
1190.070, 843.0234
1190.552, 855.4551
1191.034, 870.9430
1191.516, 873.6122
1191.999, 861.6635
1192.481, 854.4870
1192.963, 857.7379
1193.445, 864.1078
1193.927, 868.2717
1194.409, 870.5245
1194.891, 871.3921
1195.373, 870.9417
1195.855, 864.8839
1196.338, 851.6611
1196.820, 847.0717
1197.302, 861.7523
1197.784, 878.2526
1198.266, 876.3785
1198.748, 865.5405
1199.230, 856.3868
1199.712, 849.4551
1200.195, 849.5682
1200.677, 857.5002
1201.159, 867.1536
1201.641, 875.7241
1202.123, 883.6970
1202.605, 898.6386
1203.087, 910.7333
1203.569, 900.9652
1204.052, 852.2884
1204.534, 831.2836
1205.016, 841.3306
1205.498, 857.8676
1205.980, 863.1436
1206.462, 866.4603
1206.944, 887.7269
1207.426, 913.9823
1207.908, 910.5630
1208.391, 853.5131
1208.873, 834.0240
1209.355, 861.8987
1209.837, 893.9990
1210.319, 888.6755
1210.801, 871.3200
1211.283, 872.7205
1211.765, 887.2655
1212.247, 890.9179
1212.730, 875.6797
1213.212, 871.2065
1213.694, 882.7918
1214.176, 894.5857
1214.658, 887.3228
1215.140, 874.7225
1215.622, 873.1099
1216.104, 881.4073
1216.587, 887.7789
1217.069, 891.4482
1217.551, 892.3442
1218.033, 889.4520
1218.515, 888.1429
1218.997, 899.1022
1219.479, 911.7575
1219.961, 912.7937
1220.443, 901.9495
1220.926, 893.4612
1221.408, 888.2413
1221.890, 884.4714
1222.372, 881.8912
1222.854, 880.0857
1223.336, 879.1872
1223.818, 878.3849
1224.300, 876.5208
1224.782, 873.4183
1225.265, 870.4444
1225.747, 866.4973
1226.229, 868.9503
1226.711, 882.3853
1227.193, 896.7048
1227.675, 899.5607
1228.157, 896.3782
1228.639, 893.2360
1229.122, 890.8823
1229.604, 886.6939
1230.086, 879.8492
1230.568, 876.8578
1231.050, 881.7957
1231.532, 888.3402
1232.014, 891.6754
1232.496, 890.9674
1232.979, 881.9042
1233.461, 861.7833
1233.943, 862.8467
1234.425, 887.8553
1234.907, 905.8947
1235.389, 898.7050
1235.871, 884.3092
1236.353, 878.9244
1236.835, 877.9766
1237.318, 875.2246
1237.800, 869.6099
1238.282, 867.5971
1238.764, 869.2734
1239.246, 873.1369
1239.728, 879.7181
1240.210, 886.3491
1240.692, 891.7118
1241.175, 895.0842
1241.657, 895.2483
1242.139, 891.6303
1242.621, 889.3902
1243.103, 888.5198
1243.585, 886.4593
1244.067, 879.8248
1244.549, 873.3560
1245.031, 867.8897
1245.514, 866.1063
1245.996, 873.2460
1246.478, 891.1021
1246.960, 893.2462
1247.442, 880.1296
1247.924, 869.7475
1248.406, 876.2106
1248.888, 876.8652
1249.370, 888.9700
1249.853, 895.6682
1250.335, 897.2513
1250.817, 878.3970
1251.299, 885.9333
1251.781, 882.8935
1252.263, 879.4200
1252.745, 890.6708
1253.227, 874.7890
1253.710, 885.8058
1254.192, 886.0854
1254.674, 891.2795
1255.156, 885.8319
1255.638, 883.6713
1256.120, 892.1555
1256.602, 894.7455
1257.084, 888.0730
1257.567, 893.5789
1258.049, 877.3254
1258.531, 880.1664
1259.013, 891.2460
1259.495, 885.1085
1259.977, 890.8094
1260.459, 869.6748
1260.941, 863.3316
1261.423, 872.3349
1261.906, 875.7701
1262.388, 866.0560
1262.870, 853.8047
1263.352, 856.0966
1263.834, 867.1646
1264.316, 873.8768
1264.798, 875.2999
1265.280, 876.7679
1265.762, 879.0502
1266.245, 883.0625
1266.727, 889.4236
1267.209, 896.5984
1267.691, 907.6174
1268.173, 915.4960
1268.655, 902.8461
1269.137, 870.2487
1269.619, 854.8359
1270.102, 866.8598
1270.584, 877.4545
1271.066, 880.7895
1271.548, 880.3215
1272.030, 878.8130
1272.512, 876.9453
1272.994, 873.6898
1273.476, 869.9505
1273.958, 876.5519
1274.441, 898.0408
1274.923, 906.8189
1275.405, 894.7175
1275.887, 877.8845
1276.369, 870.2181
1276.851, 868.2084
1277.333, 870.2134
1277.815, 875.2888
1278.297, 879.3284
1278.780, 882.2423
1279.262, 886.4678
1279.744, 893.4921
1280.226, 895.7783
1280.708, 880.2473
1281.190, 864.1133
1281.672, 860.1464
1282.154, 865.6818
1282.637, 872.8181
1283.119, 881.3176
1283.601, 889.0390
1284.083, 895.9249
1284.565, 899.8153
1285.047, 894.7940
1285.529, 891.8967
1286.011, 898.0465
1286.494, 908.7850
1286.976, 912.0881
1287.458, 909.0140
1287.940, 902.0751
1288.422, 891.1980
1288.904, 881.4852
1289.386, 873.7849
1289.868, 868.9912
1290.350, 866.8954
1290.833, 868.8035
1291.315, 880.6191
1291.797, 897.3983
1292.279, 910.9225
1292.761, 920.4728
1293.243, 917.4962
1293.725, 894.6711
1294.207, 879.3208
1294.689, 882.7828
1295.172, 891.9385
1295.654, 884.9312
1296.136, 873.3386
1296.618, 875.0043
1297.100, 894.0693
1297.582, 900.1280
1298.064, 891.3707
1298.546, 880.4570
1299.029, 869.5314
1299.511, 863.6178
1299.993, 872.8034
1300.475, 886.0730
1300.957, 893.0354
1301.439, 893.9359
1301.921, 890.4742
1302.403, 882.9269
1302.885, 880.9047
1303.368, 889.1330
1303.850, 894.1425
1304.332, 878.1157
1304.814, 864.8085
1305.296, 870.9705
1305.778, 889.6961
1306.260, 896.7823
1306.742, 894.5659
1307.224, 892.9460
1307.707, 894.9117
1308.189, 893.9929
1308.671, 877.4643
1309.153, 872.9300
1309.635, 896.7204
1310.117, 930.2941
1310.599, 931.7443
1311.081, 913.6689
1311.564, 900.5438
1312.046, 897.6221
1312.528, 896.1973
1313.010, 896.3754
1313.492, 894.4189
1313.974, 888.5008
1314.456, 881.3317
1314.938, 875.7531
##END=



