##NAMES=Tennantite-(Fe)
##RRUFFID=R110024
##IDEAL CHEMISTRY=Cu^1+^_6_(Cu^1+^_4_Fe^2+^_2_)As^3+^_4_S^2-^_13_
##LOCALITY=Quiruvilca, La Libertad Department, Peru
##OWNER=RRUFF
##SOURCE=William Pinch
##DESCRIPTION=Black metallic tetrahedral crystals associated with pinkish grey famatinite, R110022, on pyrite
##STATUS=The identification of this mineral has been confirmed only by single crystal X-ray diffraction.
##URL=rruff.info/R110024
204.9009, 2.913418
205.3831, 3.934939
205.8652, 4.645417
206.3473, 4.755358
206.8294, 4.754959
207.3115, 4.945556
207.7936, 5.361417
208.2758, 5.812415
208.7579, 6.015028
209.2400, 5.803755
209.7221, 5.698867
210.2042, 5.911122
210.6863, 6.068168
211.1685, 5.817679
211.6506, 5.135568
212.1327, 4.371913
212.6148, 4.054581
213.0969, 4.565979
213.5790, 4.727880
214.0612, 4.179877
214.5433, 3.531184
215.0254, 3.258425
215.5075, 3.474070
215.9896, 3.976543
216.4717, 4.505743
216.9539, 5.129794
217.4360, 5.595398
217.9181, 5.949782
218.4002, 6.120231
218.8823, 5.883563
219.3644, 5.181355
219.8466, 4.506934
220.3287, 4.659402
220.8108, 5.853299
221.2929, 6.625438
221.7750, 6.391318
222.2571, 5.781511
222.7393, 5.569418
223.2214, 5.928558
223.7035, 6.604938
224.1856, 7.517722
224.6677, 8.654537
225.1498, 9.281363
225.6320, 8.869503
226.1141, 7.912895
226.5962, 7.231028
227.0783, 7.005375
227.5604, 6.905687
228.0425, 6.338499
228.5247, 5.482460
229.0068, 5.286566
229.4889, 7.155620
229.9710, 9.853770
230.4531, 10.21862
230.9352, 6.861859
231.4174, 3.443432
231.8995, 3.066184
232.3816, 4.875249
232.8637, 6.663007
233.3458, 7.322466
233.8280, 7.136074
234.3101, 6.998991
234.7922, 6.892897
235.2743, 6.914783
235.7564, 7.212626
236.2385, 7.659603
236.7207, 7.994067
237.2028, 7.999863
237.6849, 7.769371
238.1670, 7.734258
238.6491, 8.140628
239.1312, 8.362325
239.6134, 8.042677
240.0955, 7.406412
240.5776, 6.795979
241.0597, 6.337356
241.5418, 6.085314
242.0239, 6.406750
242.5061, 8.162584
242.9882, 9.278710
243.4703, 8.624291
243.9524, 7.119488
244.4345, 6.145324
244.9166, 6.572817
245.3988, 8.047925
245.8809, 8.875119
246.3630, 8.440305
246.8451, 8.108527
247.3272, 8.260665
247.8093, 8.647095
248.2915, 8.941158
248.7736, 8.965750
249.2557, 8.771744
249.7378, 8.556004
250.2199, 8.114667
250.7020, 7.925826
251.1842, 8.310812
251.6663, 8.889981
252.1484, 9.121450
252.6305, 8.733927
253.1126, 8.039729
253.5947, 8.033526
254.0769, 9.690264
254.5590, 10.89139
255.0411, 11.39688
255.5232, 11.43371
256.0053, 11.12988
256.4874, 10.54501
256.9695, 9.912159
257.4517, 9.796368
257.9338, 11.10282
258.4159, 11.85024
258.8980, 11.77926
259.3801, 11.25168
259.8622, 10.47988
260.3444, 9.555930
260.8265, 8.768482
261.3086, 8.683192
261.7907, 9.988638
262.2728, 10.94806
262.7549, 11.50882
263.2371, 11.73344
263.7192, 11.56766
264.2013, 11.01513
264.6834, 10.34940
265.1655, 9.952147
265.6476, 9.834388
266.1298, 10.06182
266.6119, 11.21613
267.0940, 12.39812
267.5761, 12.64456
268.0582, 11.79265
268.5403, 10.55551
269.0225, 9.667568
269.5046, 9.141720
269.9867, 9.211459
270.4688, 10.61794
270.9509, 12.16713
271.4330, 12.71663
271.9152, 12.16428
272.3973, 11.36302
272.8794, 11.09517
273.3615, 11.41712
273.8436, 11.71117
274.3257, 12.02291
274.8079, 12.26605
275.2900, 12.23682
275.7721, 11.96422
276.2542, 11.92350
276.7363, 12.62726
277.2184, 13.93934
277.7006, 14.66578
278.1827, 14.25967
278.6648, 13.69449
279.1469, 13.76941
279.6290, 14.39930
280.1111, 14.80266
280.5933, 14.38848
281.0754, 13.42427
281.5575, 12.89481
282.0396, 12.96853
282.5217, 13.26233
283.0038, 13.80082
283.4860, 14.46709
283.9681, 14.54994
284.4502, 13.36972
284.9323, 11.71828
285.4144, 11.26860
285.8965, 12.41623
286.3787, 13.72594
286.8608, 14.43749
287.3429, 14.66897
287.8250, 14.83167
288.3071, 14.99314
288.7892, 15.23467
289.2714, 15.71062
289.7535, 16.45351
290.2356, 17.12812
290.7177, 17.62805
291.1998, 17.94418
291.6819, 18.00019
292.1641, 17.66262
292.6462, 17.28988
293.1283, 17.21277
293.6104, 17.40550
294.0925, 17.90001
294.5746, 19.06899
295.0568, 20.48857
295.5389, 21.31310
296.0210, 21.40000
296.5031, 21.02140
296.9852, 19.97601
297.4673, 18.57134
297.9495, 17.73693
298.4316, 18.02498
298.9137, 18.95946
299.3958, 19.91928
299.8779, 20.91784
300.3600, 21.80893
300.8422, 22.67573
301.3243, 23.33247
301.8064, 23.32623
302.2885, 22.05455
302.7706, 20.56699
303.2527, 20.13917
303.7349, 20.83396
304.2170, 21.68320
304.6991, 22.40212
305.1812, 22.92561
305.6633, 23.13019
306.1454, 22.89923
306.6276, 22.59464
307.1097, 22.63277
307.5918, 22.98066
308.0739, 23.03755
308.5560, 22.49674
309.0381, 21.65469
309.5203, 20.66500
310.0024, 19.45682
310.4845, 18.85082
310.9666, 19.99930
311.4487, 22.43698
311.9308, 23.76504
312.4130, 23.09628
312.8951, 21.77243
313.3772, 21.07961
313.8593, 20.91752
314.3414, 20.65631
314.8235, 19.87141
315.3057, 18.76010
315.7878, 17.79180
316.2699, 16.97974
316.7520, 16.38694
317.2341, 16.06614
317.7162, 15.98569
318.1984, 16.13679
318.6805, 16.82996
319.1626, 17.60979
319.6447, 17.62111
320.1268, 16.69629
320.6089, 15.84807
321.0911, 15.81964
321.5732, 16.17750
322.0553, 16.32868
322.5374, 16.08165
323.0195, 15.71836
323.5016, 15.56035
323.9838, 15.60905
324.4659, 15.55134
324.9480, 15.11113
325.4301, 14.62241
325.9122, 14.54417
326.3943, 14.97867
326.8765, 15.40397
327.3586, 15.45450
327.8407, 15.17152
328.3228, 14.71639
328.8049, 13.89931
329.2870, 13.25297
329.7692, 13.47174
330.2513, 14.46924
330.7334, 15.27583
331.2155, 15.33838
331.6976, 14.88193
332.1797, 14.35991
332.6619, 13.73904
333.1440, 13.27905
333.6261, 13.36645
334.1082, 13.79293
334.5903, 14.07216
335.0724, 13.95013
335.5546, 13.65654
336.0367, 13.54933
336.5188, 13.66433
337.0009, 13.58285
337.4830, 12.81543
337.9651, 11.76984
338.4473, 11.19975
338.9294, 11.23962
339.4115, 11.68323
339.8936, 12.59058
340.3757, 13.87931
340.8578, 14.91080
341.3400, 15.47667
341.8221, 15.61862
342.3042, 15.40766
342.7863, 14.78521
343.2684, 14.16400
343.7505, 13.67346
344.2327, 13.33492
344.7148, 13.26805
345.1969, 13.58967
345.6790, 13.93945
346.1611, 13.84265
346.6432, 13.37213
347.1254, 12.90455
347.6075, 12.49043
348.0896, 12.15431
348.5717, 11.94233
349.0538, 11.85910
349.5359, 11.84806
350.0181, 11.84110
350.5002, 11.87944
350.9823, 12.10058
351.4644, 12.99611
351.9465, 13.66028
352.4286, 13.29683
352.9108, 12.09259
353.3929, 10.83473
353.8750, 9.687795
354.3571, 8.964632
354.8392, 9.591720
355.3214, 12.44996
355.8035, 14.50933
356.2856, 13.91921
356.7677, 11.93674
357.2498, 10.87359
357.7320, 11.45104
358.2141, 12.70875
358.6962, 13.35582
359.1783, 13.28330
359.6604, 13.30999
360.1425, 13.68513
360.6247, 14.10262
361.1068, 14.25240
361.5889, 14.11658
362.0710, 13.89708
362.5531, 13.73592
363.0352, 13.64050
363.5174, 13.66182
363.9995, 14.12537
364.4816, 14.37653
364.9637, 13.86126
365.4458, 12.86690
365.9279, 12.12906
366.4101, 12.03485
366.8922, 12.44274
367.3743, 12.92062
367.8564, 13.73782
368.3385, 14.24504
368.8206, 13.75808
369.3028, 13.17359
369.7849, 13.87939
370.2670, 16.18201
370.7491, 18.66220
371.2312, 19.23051
371.7133, 16.84485
372.1955, 15.69124
372.6776, 16.70503
373.1597, 18.06557
373.6418, 18.62191
374.1239, 18.43326
374.6060, 18.25769
375.0882, 18.72285
375.5703, 19.80231
376.0524, 20.60716
376.5345, 20.85243
377.0166, 21.16102
377.4987, 21.61204
377.9809, 22.23103
378.4630, 23.16581
378.9451, 24.48952
379.4272, 25.86179
379.9093, 26.41743
380.3914, 25.35569
380.8736, 24.80615
381.3557, 25.17716
381.8378, 25.79504
382.3199, 26.10406
382.8020, 26.06509
383.2841, 26.09106
383.7663, 26.73968
384.2484, 28.18263
384.7305, 29.05524
385.2126, 29.11081
385.6947, 28.79667
386.1768, 28.30660
386.6590, 27.53683
387.1411, 26.16978
387.6232, 23.88244
388.1053, 21.05246
388.5874, 19.10482
389.0695, 18.52420
389.5517, 17.94401
390.0338, 16.93779
390.5159, 15.84173
390.9980, 15.05537
391.4801, 14.67990
391.9622, 14.28355
392.4444, 13.22549
392.9265, 11.41533
393.4086, 9.842166
393.8907, 8.774802
394.3728, 7.851303
394.8549, 6.748197
395.3371, 5.568687
395.8192, 4.731523
396.3013, 4.576748
396.7834, 4.967337
397.2655, 5.555704
397.7477, 6.531739
398.2298, 7.205614
398.7119, 7.071597
399.1940, 6.465168
399.6761, 5.787248
400.1582, 5.186925
400.6404, 4.431555
401.1225, 2.854885
401.6046, 0.5540212
402.0867, -0.4729910
402.5688, 1.050902
403.0509, 3.365741
403.5331, 4.311084
404.0152, 3.871915
404.4973, 3.330923
404.9794, 3.246670
405.4615, 3.424113
405.9436, 3.534878
406.4258, 3.537376
406.9079, 3.506336
407.3900, 3.528419
407.8721, 3.570789
408.3542, 3.479306
408.8363, 3.127933
409.3185, 2.743594
409.8006, 2.452259
410.2827, 2.247262
410.7648, 2.121783
411.2469, 2.092935
411.7290, 2.100723
412.2112, 1.960726
412.6933, 1.462522
413.1754, 1.344510
413.6575, 2.145345
414.1396, 3.166857
414.6217, 3.661714
415.1039, 3.512813
415.5860, 3.097870
416.0681, 2.788863
416.5502, 2.611021
417.0323, 2.230805
417.5144, 1.330961
417.9966, 0.5910850
418.4787, 0.2367267
418.9608, 0.2501269
419.4429, 0.6686894
419.9250, 1.540650
420.4071, 2.576513
420.8893, 2.936364
421.3714, 1.755548
421.8535, 1.209927
422.3356, 1.876113
422.8177, 2.794917
423.2998, 3.181771
423.7820, 2.972707
424.2641, 2.684163
424.7462, 2.943192
425.2283, 3.833026
425.7104, 4.027015
426.1925, 2.543700
426.6747, 1.412028
427.1568, 1.536707
427.6389, 2.314160
428.1210, 2.720044
428.6031, 2.203789
429.0852, 1.324897
429.5674, 1.312122
430.0495, 2.469986
430.5316, 3.390231
431.0137, 3.665216
431.4958, 3.634097
431.9779, 3.371007
432.4601, 2.926051
432.9422, 2.554193
433.4243, 2.541904
433.9064, 2.783637
434.3885, 2.752309
434.8706, 2.241344
435.3528, 1.884544
435.8349, 2.332319
436.3170, 3.169555
436.7991, 3.706395
437.2812, 3.707497
437.7633, 3.449605
438.2455, 3.112996
438.7276, 2.713239
439.2097, 2.329461
439.6918, 1.896939
440.1739, 1.634129
440.6560, 2.065534
441.1382, 3.282020
441.6203, 4.033938
442.1024, 3.501572
442.5845, 2.583567
443.0666, 2.383047
443.5487, 2.966567
444.0309, 3.619233
444.5130, 3.844537
444.9951, 3.658412
445.4772, 3.284045
445.9593, 2.384090
446.4414, 1.716186
446.9236, 1.605178
447.4057, 1.843131
447.8878, 2.218915
448.3699, 2.648855
448.8520, 2.914897
449.3341, 2.632802
449.8163, 1.466816
450.2984, 0.7110502
450.7805, 0.5748025
451.2626, 0.5894688
451.7447, 0.4770633
452.2268, 0.3031656
452.7090, 0.3591045
453.1911, 0.8951538
453.6732, 1.699139
454.1553, 1.778216
454.6374, 0.2494817
455.1195, -0.4704072
455.6017, 0.7165169
456.0838, 2.299194
456.5659, 2.928096
457.0480, 2.398153
457.5301, 1.576073
458.0122, 1.426789
458.4944, 1.930784
458.9765, 2.049842
459.4586, 1.466961
459.9407, 0.9240912
460.4228, 0.8111852
460.9049, 0.9961942
461.3871, 1.285122
461.8692, 1.719302
462.3513, 2.049825
462.8334, 1.814158
463.3155, 1.043701
463.7976, 0.5901765
464.2798, 0.8546045
464.7619, 1.388406
465.2440, 1.557525
465.7261, 1.350402
466.2082, 1.350710
466.6903, 2.024371
467.1725, 2.866402
467.6546, 3.341527
468.1367, 3.395860
468.6188, 2.951696
469.1009, 1.728951
469.5830, 2.7864540E-02
470.0652, -0.6579275
470.5473, 0.3979255
471.0294, 1.399288
471.5115, 1.997351
471.9936, 2.248072
472.4757, 2.112334
472.9579, 1.613021
473.4400, 1.052439
473.9221, 0.8011649
474.4042, 0.9216785
474.8863, 0.9953874
475.3684, 0.9127513
475.8506, 0.9046270
476.3327, 1.148304
476.8148, 1.506428
477.2969, 1.727611
477.7790, 1.684788
478.2611, 1.512151
478.7433, 1.552935
479.2254, 2.019056
479.7075, 2.090096
480.1896, 1.169383
480.6717, 0.2498608
481.1538, -0.1485011
481.6360, -3.6144160E-02
482.1181, 0.3228565
482.6002, 0.9241647
483.0823, 1.588257
483.5644, 1.692563
484.0465, 1.028581
484.5287, 0.5788922
485.0108, 1.073500
485.4929, 1.863823
485.9750, 2.174889
486.4571, 1.872684
486.9392, 1.378449
487.4214, 0.7312396
487.9035, 0.1049338
488.3856, -3.6888950E-02
488.8677, 0.4216008
489.3498, 1.026759
489.8319, 1.475694
490.3141, 1.734033
490.7962, 1.692648
491.2783, 0.8211378
491.7604, 0.2123812
492.2425, 0.6657944
492.7246, 1.675184
493.2068, 2.254955
493.6889, 2.057817
494.1710, 1.526643
494.6531, 1.366166
495.1352, 1.816139
495.6173, 1.866583
496.0995, 1.117848
496.5816, 0.4171605
497.0637, 0.1514366
497.5458, 0.2604670
498.0279, 0.6004324
498.5100, 1.123279
498.9922, 1.656266
499.4743, 1.723467
499.9564, 1.110674
500.4385, 0.5710598
500.9206, 3.5939358E-02
501.4027, -0.2596174
501.8849, -2.4057820E-03
502.3670, 0.7095152
502.8491, 1.353819
503.3312, 1.516609
503.8133, 1.365675
504.2954, 1.354928
504.7776, 1.510466
505.2597, 1.684735
505.7418, 1.832447
506.2239, 1.945960
506.7060, 2.056113
507.1881, 2.211312
507.6703, 2.159487
508.1524, 1.525299
508.6345, 0.6827148
509.1166, 0.3011214
509.5987, 0.4794502
510.0808, 0.8152707
510.5630, 1.006044
511.0451, 1.060812
511.5272, 1.115461
512.0093, 1.110113
512.4914, 1.175164
512.9735, 1.590350
513.4556, 2.000232
513.9377, 1.749246
514.4199, 0.7364365
514.9020, -0.2575237
515.3841, -0.1324710
515.8662, 1.388588
516.3483, 2.117858
516.8304, 1.033770
517.3126, 0.2262254
517.7947, 0.5521337
518.2768, 1.438807
518.7589, 2.020849
519.2410, 1.950912
519.7231, 1.555746
520.2053, 1.247687
520.6874, 1.026066
521.1695, 0.9294139
521.6516, 1.075946
522.1337, 1.204020
522.6158, 1.019023
523.0980, 0.6655247
523.5801, 0.5678129
524.0622, 0.9794138
524.5443, 1.607318
525.0264, 2.409365
525.5085, 3.266441
525.9907, 3.240079
526.4728, 1.681514
526.9549, -0.1754938
527.4370, -0.2982030
527.9191, 1.664902
528.4012, 2.978766
528.8834, 3.195983
529.3655, 2.836199
529.8476, 1.813449
530.3297, 0.4910103
530.8118, -0.1437928
531.2939, 0.4899262
531.7761, 1.801911
532.2582, 2.250619
532.7403, 1.114928
533.2224, 0.4327461
533.7045, 0.4494281
534.1866, 0.6813187
534.6688, 0.8347713
535.1509, 0.9416761
535.6330, 1.249321
536.1151, 2.044774
536.5972, 2.983927
537.0793, 3.031998
537.5615, 1.941271
538.0436, 0.9744114
538.5257, 0.4657132
539.0078, 0.2679603
539.4899, 0.3165933
539.9720, 0.5921793
540.4542, 0.8829794
540.9363, 1.243081
541.4184, 1.479656
541.9005, 1.122569
542.3826, 0.2064574
542.8647, -0.3515524
543.3469, 8.4657453E-02
543.8290, 1.019273
544.3111, 1.066772
544.7932, -0.3905681
545.2753, -1.157764
545.7574, -0.3767641
546.2396, 0.8207610
546.7217, 1.581844
547.2038, 1.821337
547.6859, 1.705412
548.1680, 1.307851
548.6501, 0.7362525
549.1323, 0.4781137
549.6144, 0.7029475
550.0965, 0.9628288
550.5786, 1.303734
551.0607, 1.584647
551.5428, 1.696083
552.0250, 1.639143
552.5071, 1.481257
552.9892, 1.158947
553.4713, 0.8089579
553.9534, 0.9824632
554.4355, 1.864903
554.9177, 2.286601
555.3998, 1.349457
555.8819, 2.4888059E-02
556.3640, -0.3187235
556.8461, 0.4537717
557.3282, 1.243107
557.8104, 1.666125
558.2925, 1.859112
558.7746, 1.956956
559.2567, 1.975701
559.7388, 1.894696
560.2209, 1.672251
560.7031, 1.387060
561.1852, 1.291692
561.6673, 1.746540
562.1494, 1.874891
562.6315, 1.157576
563.1136, 0.5074061
563.5958, 0.7689586
564.0779, 1.770819
564.5600, 2.667486
565.0421, 2.840899
565.5242, 2.509900
566.0063, 2.437581
566.4885, 2.775756
566.9706, 2.929429
567.4527, 2.538148
567.9348, 2.077813
568.4169, 1.945328
568.8990, 2.100487
569.3812, 2.116194
569.8633, 1.501694
570.3454, 0.7597875
570.8275, 0.7337898
571.3096, 1.376647
571.7917, 1.973333
572.2739, 2.317124
572.7560, 2.307949
573.2381, 1.608164
573.7202, -0.1143577
574.2023, -1.192499
574.6844, -1.081768
575.1666, -0.6234214
575.6487, -0.3393310
576.1308, -0.1975022
576.6129, 6.0171079E-02
577.0950, 0.5793365
577.5771, 1.175814
578.0593, 1.435524
578.5414, 1.263202
579.0235, 1.012477
579.5056, 0.3816603
579.9877, -2.4263799E-02
580.4698, 0.2663284
580.9520, 0.9904206
581.4341, 1.524456
581.9162, 1.550219
582.3983, 1.349831
582.8804, 1.293912
583.3625, 1.365045
583.8447, 1.399509
584.3268, 1.398482
584.8089, 1.258345
585.2910, 0.7188295
585.7731, -0.1511029
586.2552, -0.6076211
586.7374, -0.3096230
587.2195, 0.1266769
587.7016, 0.4005063
588.1837, 0.5907727
588.6658, 0.9123122
589.1479, 1.413442
589.6301, 1.815083
590.1122, 1.720340
590.5943, 1.043187
591.0764, 0.6978073
591.5585, 0.9282359
592.0406, 1.221784
592.5228, 1.677989
593.0049, 2.028316
593.4870, 1.838057
593.9691, 1.016516
594.4512, 0.2137269
594.9333, 9.0428129E-02
595.4155, 0.5136341
595.8976, 1.010051
596.3797, 1.658483
596.8618, 1.870244
597.3439, 0.9125348
597.8260, -0.5692976
598.3082, -0.9588367
598.7903, 0.2280222
599.2724, 1.277575
599.7545, 1.737913
600.2366, 1.729555
600.7188, 0.9889529
601.2009, -0.2417604
601.6830, -0.7868869
602.1651, 0.2546881
602.6472, 2.317480
603.1294, 3.279243
603.6115, 2.516793
604.0936, 1.768982
604.5757, 0.9966829
605.0579, 0.4106741
605.5400, 0.1260185
606.0221, 0.1442568
606.5042, 0.4771518
606.9863, 1.317527
607.4684, 2.192081
607.9506, 2.170331
608.4327, 1.280230
608.9148, 0.6669806
609.3969, 0.6651308
609.8790, 0.9668187
610.3611, 1.360720
610.8433, 1.827650
611.3254, 2.045195
611.8075, 1.837781
612.2896, 1.521242
612.7717, 1.192328
613.2538, 0.8863978
613.7360, 0.6251590
614.2181, 0.4230455
614.7002, 0.3626913
615.1823, 0.5900247
615.6644, 1.133029
616.1465, 1.373505
616.6287, 1.101303
617.1108, 0.8035317
617.5929, 0.4981191
618.0750, 0.2903490
618.5571, 0.3504958
619.0392, 0.6960627
619.5214, 1.024004
620.0035, 1.015220
620.4856, 0.8468244
620.9677, 0.9889994
621.4498, 1.473873
621.9319, 1.822608
622.4141, 1.767238
622.8962, 1.467619
623.3783, 1.242300
623.8604, 1.082923
624.3425, 1.010374
624.8246, 1.258994
625.3068, 1.391172
625.7889, 0.8967618
626.2710, 5.3304490E-02
626.7531, -0.4198196
627.2352, -0.1606738
627.7173, 0.4549202
628.1995, 0.7627861
628.6816, 0.7258826
629.1637, 0.5690546
629.6458, 7.0775911E-02
630.1279, -0.2364398
630.6100, -4.4981599E-02
631.0922, 0.4824967
631.5743, 1.091816
632.0564, 1.775248
632.5385, 2.363278
633.0206, 2.896162
633.5027, 3.206368
633.9849, 2.733026
634.4670, 1.423737
634.9491, 0.3169573
635.4312, 0.2089928
635.9133, 0.8866583
636.3954, 1.342202
636.8776, 1.473436
637.3597, 1.500786
637.8418, 1.441684
638.3239, 1.271179
638.8060, 0.7708803
639.2881, 0.1246097
639.7703, -0.1091971
640.2524, 0.4832021
640.7345, 1.463741
641.2166, 2.003396
641.6987, 2.090521
642.1808, 2.029679
642.6630, 1.825005
643.1451, 1.575860
643.6272, 1.440128
644.1093, 1.349935
644.5914, 1.023848
645.0735, -4.8570789E-02
645.5557, -0.8216473
646.0378, -0.6428154
646.5199, 6.4856403E-02
647.0020, 0.8437499
647.4841, 1.534886
647.9662, 1.910954
648.4484, 1.714991
648.9305, 1.050159
649.4126, 0.6338376
649.8947, 0.5002424
650.3768, 0.5668974
650.8589, 1.117035
651.3411, 1.615324
651.8232, 1.598166
652.3053, 1.139724
652.7874, 0.7424198
653.2695, 0.7166496
653.7516, 0.8193748
654.2338, 0.7336233
654.7159, 0.5063378
655.1980, 0.3557892
655.6801, 0.3466966
656.1622, 0.4134030
656.6443, 0.4825110
657.1265, 0.5501881
657.6086, 0.6965860
658.0907, 1.241777
658.5728, 1.457482
659.0549, 0.6983855
659.5370, -0.1893170
660.0192, -0.1542563
660.5013, 0.8250317
660.9834, 1.722272
661.4655, 1.508528
661.9476, 0.6805093
662.4297, 0.9990305
662.9119, 2.670816
663.3940, 3.844760
663.8761, 3.866570
664.3582, 3.253079
664.8403, 2.289311
665.3224, 1.028311
665.8046, 0.5515730
666.2867, 1.761777
666.7688, 3.032008
667.2509, 3.505650
667.7330, 3.415562
668.2151, 3.108850
668.6973, 2.707943
669.1794, 2.291416
669.6615, 1.925626
670.1436, 1.613943
670.6257, 1.400756
671.1078, 1.296045
671.5900, 1.268165
672.0721, 1.406853
672.5542, 1.550163
673.0363, 1.521961
673.5184, 1.339560
674.0005, 1.256663
674.4827, 1.577844
674.9648, 1.889604
675.4469, 1.683904
675.9290, 1.121014
676.4111, 0.6851072
676.8932, 0.5270422
677.3754, 0.5099171
677.8575, 0.4548336
678.3396, 0.3487056
678.8217, 0.5551599
679.3038, 1.947081
679.7859, 2.508874
680.2681, 0.8066732
680.7502, -1.123722
681.2323, -1.101153
681.7144, 0.8239962
682.1965, 2.512715
682.6786, 2.284575
683.1608, 1.167453
683.6429, 0.8724753
684.1250, 1.301021
684.6071, 1.606068
685.0892, 1.514235
685.5714, 1.281157
686.0535, 1.177309
686.5356, 1.207916
687.0177, 1.307348
687.4998, 1.772266
687.9819, 1.929932
688.4641, 1.293243
688.9462, 0.4688697
689.4283, 0.1099281
689.9104, 0.2554435
690.3925, 0.4478035
690.8746, 0.3127255
691.3568, 1.1910400E-02
691.8389, -0.1452524
692.3210, -0.1687598
692.8031, 0.2737084
693.2852, 1.480799
693.7673, 2.796814
694.2495, 3.690057
694.7316, 4.133525
695.2137, 3.922272
695.6958, 2.302107
696.1779, 0.9303554
696.6600, 0.4756900
697.1422, 0.5040632
697.6243, 0.6506704
698.1064, 0.7865959
698.5885, 0.7720377
699.0706, 0.4541133
699.5527, -9.4597759E-03
700.0349, -7.7071838E-02
700.5170, 0.3643330
700.9991, 0.4027342
701.4812, -0.5397844
701.9633, -1.369004
702.4454, -0.9117394
702.9276, 0.4538803
703.4097, 1.507673
703.8918, 2.194191
704.3739, 2.401164
704.8560, 1.719068
705.3381, 0.7427048
705.8203, 0.1535895
706.3024, 2.0801481E-02
706.7845, 8.3621353E-02
707.2666, 0.1750632
707.7487, 0.2948771
708.2308, 0.4913060
708.7130, 0.8445419
709.1951, 0.8392273
709.6772, -0.1208269
710.1593, -0.7321272
710.6414, 0.2951646
711.1235, 2.187305
711.6057, 3.275118
712.0878, 3.074163
712.5699, 2.548880
713.0520, 1.985940
713.5341, 1.460659
714.0162, 1.051717
714.4984, 0.7697322
714.9805, 0.6446235
715.4626, 0.7109947
715.9447, 0.8090097
716.4268, 0.5333122
716.9089, -0.2736755
717.3911, -0.7428855
717.8732, -0.7000483
718.3553, -0.5201210
718.8374, -0.2549387
719.3195, -1.8614730E-02
719.8016, -8.1719182E-02
720.2838, -0.5911707
720.7659, -0.7506678
721.2480, 0.3675115
721.7301, 1.638050
722.2122, 1.665456
722.6943, 0.7055705
723.1765, -6.7573667E-02
723.6586, -0.1399163
724.1407, 1.5831890E-02
724.6228, -0.4331057
725.1049, -1.647558
725.5870, -1.914638
726.0692, -0.6950240
726.5513, 0.6078695
727.0334, 1.916279
727.5155, 2.832579
727.9976, 2.654693
728.4797, 1.370145
728.9619, 0.4352337
729.4440, 0.7916986
729.9261, 1.476571
730.4082, 1.794631
730.8903, 1.726405
731.3724, 1.108261
731.8546, -5.8049452E-02
732.3367, -1.090172
732.8188, -1.227472
733.3009, -0.5490474
733.7830, 5.3734090E-02
734.2651, 0.8812714
734.7473, 0.9732780
735.2294, -1.130258
735.7115, -3.009718
736.1936, -2.531988
736.6757, -0.1885897
737.1578, 1.597172
737.6400, 1.900768
738.1221, 1.683382
738.6042, 1.313718
739.0863, 0.9486787
739.5684, 0.9567072
740.0505, 1.314495
740.5327, 1.513917
741.0148, 1.161663
741.4969, 0.4561639
741.9790, -1.2376160E-02
742.4611, -0.2155903
742.9432, -0.2898945
743.4254, -0.3025753
743.9075, -0.1091306
744.3896, 0.8266617
744.8717, 1.901033
745.3538, 1.780956
745.8359, -0.2741708
746.3181, -1.758821
746.8002, -1.045697
747.2823, 0.4279071
747.7644, 1.479937
748.2465, 1.942986
748.7286, 1.628874
749.2108, 0.4494614
749.6929, -0.8642474
750.1750, -1.127226
750.6571, -0.2763510
751.1392, 0.3038864
751.6213, 0.5703287
752.1035, 0.6703269
752.5856, 0.6746228
753.0677, 0.5242281
753.5498, -2.3289849E-03
754.0319, -0.9275092
754.5140, -1.357490
754.9962, -0.4546068
755.4783, 0.3512205
755.9604, -0.1879874
756.4425, -1.232976
756.9246, -1.383579
757.4067, -0.4162847
757.8889, 0.8073576
758.3710, 1.619936
758.8531, 2.049247
759.3352, 2.063222
759.8173, 1.571461
760.2994, 1.519486
760.7816, 2.454989
761.2637, 3.239371
761.7458, 2.632121
762.2279, 0.9957115
762.7100, 0.1301723
763.1921, 0.5697981
763.6743, 1.010815
764.1564, 1.303648
764.6385, 1.361822
765.1206, 0.8898799
765.6027, 0.1336844
766.0848, -0.2966076
766.5670, -0.1155648
767.0491, 0.4118658
767.5312, 1.205834
768.0133, 2.107689
768.4954, 1.960188
768.9775, 0.5146751
769.4597, -0.3324092
769.9418, 0.5743641
770.4239, 2.235484
770.9060, 2.903763
771.3881, 2.300504
771.8702, 1.760595
772.3524, 1.413379
772.8345, 0.9713994
773.3166, 4.4524509E-02
773.7987, -0.8545406
774.2808, -1.023758
774.7629, -0.4617729
775.2451, 6.3262738E-02
775.7272, -9.8765688E-03
776.2093, -0.3633178
776.6914, -0.6328533
777.1735, -0.7857950
777.6556, -0.6701511
778.1378, -0.2476660
778.6199, 0.4416030
779.1020, 1.489959
779.5841, 2.686054
780.0662, 2.866472
780.5483, 1.180074
781.0305, 9.4479233E-02
781.5126, 0.1292636
781.9947, 0.4120216
782.4768, 0.4965577
782.9589, 0.5338997
783.4410, 0.9733503
783.9232, 2.087850
784.4053, 2.766136
784.8874, 1.670806
785.3695, 0.2207391
785.8516, 0.5304309
786.3337, 2.121873
786.8159, 2.909390
787.2980, 2.068099
787.7801, 0.7081858
788.2622, 0.3035569
788.7443, 0.8199548
789.2264, 1.060539
789.7086, 0.9273359
790.1907, 0.7904631
790.6728, 0.7649068
791.1549, 0.7694852
791.6370, 0.8313329
792.1191, 0.9015160
792.6013, 0.5979046
793.0834, -0.7328339
793.5655, -1.703788
794.0476, -1.615990
794.5297, -1.034650
795.0118, -0.3261275
795.4940, 0.3248412
795.9761, 0.5693423
796.4582, 0.1626071
796.9403, -0.3856802
797.4224, -0.2788487
797.9045, 0.3975852
798.3867, 1.226266
798.8688, 2.252679
799.3509, 2.602875
799.8330, 1.599759
800.3151, 1.9083390E-02
800.7972, -0.6563120
801.2794, -0.1055042
801.7615, 8.0236658E-02
802.2436, -0.6180058
802.7257, -1.010007
803.2078, -0.4917515
803.6899, 0.3339231
804.1721, 0.8432223
804.6542, 0.9871450
805.1363, 1.108907
805.6184, 1.460496
806.1005, 1.788622
806.5826, 1.763639
807.0648, 1.526389
807.5469, 1.374993
808.0290, 1.364826
808.5111, 1.501645
808.9932, 1.840754
809.4753, 2.159097
809.9575, 1.677099
810.4396, -1.6687321E-02
810.9217, -0.5729108
811.4038, 0.8589389
811.8859, 2.211091
812.3680, 2.270324
812.8502, 1.711108
813.3323, 1.493127
813.8144, 1.704650
814.2965, 1.890556
814.7786, 2.032130
815.2607, 2.029471
815.7429, 1.787817
816.2250, 1.382344
816.7071, 0.8063314
817.1892, 0.1386403
817.6713, -0.2780025
818.1534, -9.1358028E-02
818.6356, 0.3720790
819.1177, 0.4695683
819.5998, 0.2443561
820.0819, -3.0955071E-02
820.5640, -0.3428844
821.0461, -0.3670153
821.5283, 0.2013779
822.0104, 1.142743
822.4925, 1.801150
822.9746, 2.219377
823.4567, 2.262831
823.9388, 1.515844
824.4210, 0.8730114
824.9031, 0.5727100
825.3852, 0.5950890
825.8673, 1.019592
826.3494, 1.840065
826.8315, 2.513322
827.3137, 3.009993
827.7958, 3.046192
828.2779, 1.886160
828.7600, 0.2560556
829.2421, -0.4111800
829.7242, 5.6779921E-02
830.2064, 0.6951498
830.6885, 0.7876614
831.1706, 0.5010477
831.6527, 0.1445373
832.1348, -0.2951345
832.6169, -0.2440256
833.0991, 0.5959072
833.5812, 1.128993
834.0633, 0.4297881
834.5454, -0.7879288
835.0275, -0.8235347
835.5096, 1.093205
835.9918, 1.863263
836.4739, 0.2010222
836.9560, -1.110703
837.4381, -0.6011593
837.9202, 0.5183237
838.4023, 0.8361580
838.8845, 0.2362039
839.3666, -0.4435118
839.8487, -0.9291189
840.3308, -1.079779
840.8129, -0.4261912
841.2950, 0.5654237
841.7772, 0.8591354
842.2593, 0.3950777
842.7414, -8.9426041E-02
843.2235, -0.1243837
843.7056, 6.6557460E-02
844.1877, -9.6322082E-02
844.6699, -0.7011961
845.1520, -0.3960767
845.6341, 1.359359
846.1162, 2.546355
846.5983, 1.921304
847.0804, 0.6722212
847.5626, 0.6091931
848.0447, 1.836341
848.5268, 2.418382
849.0089, 1.788144
849.4910, 1.136195
849.9731, 0.6639248
850.4553, 0.4098087
850.9374, 0.5596420
851.4195, 0.9517986
851.9016, 1.080463
852.3837, 0.6488364
852.8658, 0.1811167
853.3480, 0.1707555
853.8301, 0.4412112
854.3122, 0.7601447
854.7943, 1.070314
855.2764, 1.190430
855.7585, 1.038226
856.2407, 0.9170931
856.7228, 1.313631
857.2049, 2.151134
857.6870, 2.369587
858.1691, 1.791030
858.6512, 1.292097
859.1334, 1.117506
859.6155, 1.045734
860.0976, 0.9980214
860.5797, 0.9046801
861.0618, 0.3698865
861.5439, -1.529983
862.0261, -2.322158
862.5082, -0.6932335
862.9903, 1.045569
863.4724, 1.515300
863.9545, 1.157934
864.4366, 0.7880337
864.9188, 0.6106521
865.4009, 0.4825140
865.8830, 0.3227771
866.3651, 0.1497639
866.8472, -0.1671146
867.3293, -0.4540647
867.8115, -0.1251890
868.2936, 0.8428686
868.7757, 1.611125
869.2578, 1.522849
869.7399, 0.8559852
870.2220, 0.1267430
870.7042, -0.6982110
871.1863, -0.6410643
871.6684, 0.7032130
872.1505, 1.735677
872.6326, 1.568108
873.1147, 0.6835269
873.5969, -0.2608738
874.0790, -1.452627
874.5611, -1.658225
875.0432, 0.1939220
875.5253, 1.573629
876.0074, 1.848319
876.4896, 1.476136
876.9717, 0.5353461
877.4538, -0.7092823
877.9359, -1.525480
878.4180, -1.599162
878.9001, -1.382856
879.3823, -1.142479
879.8644, -0.7699590
880.3465, 4.7620158E-03
880.8286, 1.010024
881.3107, 1.817444
881.7928, 2.263369
882.2750, 2.412132
882.7571, 2.261765
883.2392, 1.896801
883.7213, 1.520656
884.2034, 1.145485
884.6855, 1.062854
885.1677, 1.391189
885.6498, 1.645081
886.1319, 1.421010
886.6140, 0.8590664
887.0961, 0.4074276
887.5782, -3.1898670E-02
888.0604, -7.7791683E-02
888.5425, 0.8079863
889.0246, 1.345153
889.5067, 0.5223612
889.9888, -0.6156057
890.4709, -0.6758153
890.9531, 0.3782402
891.4352, 0.8854374
891.9173, -0.1421266
892.3994, -0.9712940
892.8815, -0.8038947
893.3636, -0.1808113
893.8458, 0.6332273
894.3279, 1.389718
894.8100, 1.571000
895.2921, 0.8990039
895.7742, 0.1066151
896.2563, -0.1290876
896.7385, -1.5663389E-02
897.2206, 0.1080601
897.7027, 0.2529113
898.1848, 0.6340396
898.6669, 1.296366
899.1490, 1.743878
899.6312, 1.414434
900.1133, 0.5923570
900.5954, 0.5351872
901.0775, 1.377308
901.5596, 1.304136
902.0417, -0.2652879
902.5239, -1.678663
903.0060, -1.968438
903.4881, -1.457807
903.9702, -0.7128761
904.4523, 0.4602038
904.9344, 1.073249
905.4166, 0.5712065
905.8987, 0.2289185
906.3808, 0.5561952
906.8629, 0.9748665
907.3450, 0.9979672
907.8271, 0.6554133
908.3093, 0.1747678
908.7914, -0.6057445
909.2735, -1.066927
909.7556, -0.7446353
910.2377, -0.1504470
910.7198, 0.3762796
911.2020, 0.7812712
911.6841, 1.021821
912.1662, 1.097249
912.6483, 1.133707
913.1304, 1.341417
913.6125, 1.480973
914.0947, 0.9814783
914.5768, 8.5842177E-02
915.0589, -0.4165847
915.5410, -0.4062828
916.0231, -0.1925164
916.5052, 2.9603841E-02
916.9874, 0.3483894
917.4695, 1.045985
917.9516, 2.152793
918.4337, 2.791507
918.9158, 2.907124
919.3979, 2.756011
919.8801, 2.297276
920.3622, 1.869916
920.8443, 1.930184
921.3264, 2.393584
921.8085, 2.350512
922.2906, 1.122893
922.7728, 0.5016033
923.2549, 1.176175
923.7370, 1.779161
924.2191, 1.464332
924.7012, 0.7663810
925.1833, 0.5360331
925.6655, 0.8869027
926.1476, 1.230607
926.6297, 1.525719
927.1118, 1.614273
927.5939, 1.241291
928.0760, 0.7443105
928.5582, 0.5197908
929.0403, 0.5258929
929.5224, 0.3908125
930.0045, -0.1145735
930.4866, -0.3498358
930.9688, 0.7018676
931.4509, 2.134459
931.9330, 2.352169
932.4151, 1.684330
932.8972, 1.478685
933.3793, 2.046646
933.8615, 2.397130
934.3436, 1.559407
934.8257, 0.1557970
935.3078, -0.1576668
935.7899, 0.5279345
936.2720, 0.7927287
936.7542, 0.4331303
937.2363, 0.3418760
937.7184, 1.063575
938.2005, 1.933233
938.6826, 1.872295
939.1647, 0.8484917
939.6469, 0.4464110
940.1290, 1.028167
940.6111, 1.342754
941.0932, 1.000812
941.5753, 0.5391299
942.0574, 0.3883313
942.5396, 0.3902647
943.0217, 3.0940790E-02
943.5038, -1.030226
943.9859, -1.406562
944.4680, -0.4128674
944.9501, 0.5811475
945.4323, 0.9175076
945.9144, 1.113005
946.3965, 1.956493
946.8786, 3.244599
947.3607, 3.797509
947.8428, 2.954421
948.3250, 1.909437
948.8071, 1.004319
949.2892, 0.4501811
949.7713, 0.7830011
950.2534, 1.524876
950.7355, 1.735000
951.2177, 1.188200
951.6998, 0.3451866
952.1819, -0.7486398
952.6640, -1.557010
953.1461, -0.8962229
953.6282, 0.5068710
954.1104, 0.6850163
954.5925, -0.3271449
955.0746, -0.7569434
955.5567, 0.2856159
956.0388, 1.689713
956.5209, 1.951573
957.0031, 1.262314
957.4852, 0.4295411
957.9673, -0.5462347
958.4494, -0.9367724
958.9315, -0.5183293
959.4136, 3.9996490E-02
959.8958, 0.2929212
960.3779, 0.2456569
960.8600, -0.2394214
961.3421, -1.461767
961.8242, -1.448794
962.3063, 0.4544890
962.7885, 1.997228
963.2706, 2.500858
963.7527, 2.273001
964.2348, 1.325276
964.7169, -0.1687130
965.1990, -0.9376846
965.6812, -0.3744192
966.1633, -7.1449252E-03
966.6454, 5.7697970E-02
967.1275, 4.6027459E-02
967.6096, -5.7214331E-02
968.0917, -0.1191160
968.5739, 1.6352640E-03
969.0560, 0.3186237
969.5381, 0.8203474
970.0202, 1.966433
970.5023, 2.685610
970.9844, 2.299554
971.4666, 1.613907
971.9487, 1.151359
972.4308, 0.9403003
972.9129, 0.9496661
973.3950, 1.163498
973.8771, 1.337821
974.3593, 1.517678
974.8414, 1.405249
975.3235, 0.1982167
975.8056, -1.170436
976.2877, -1.085746
976.7698, 0.2520801
977.2520, 1.440765
977.7341, 1.828594
978.2162, 2.274915
978.6983, 1.921972
979.1804, 1.927273
979.6625, 1.293982
980.1447, 0.2948261
980.6268, -3.0796479E-02
981.1089, 0.4667313
981.5910, 0.9377895
982.0731, 0.7779301
982.5552, 0.3929501
983.0374, 0.5788472
983.5195, 1.240260
984.0016, 1.692643
984.4837, 1.915847
984.9658, 2.095743
985.4479, 2.322835
985.9301, 2.164806
986.4122, 1.097159
986.8943, -0.4769435
987.3764, -1.033043
987.8585, -0.4168815
988.3406, 0.3067257
988.8228, 1.275248
989.3049, 1.628602
989.7870, 0.7348742
990.2691, -0.4266651
990.7512, -0.6921101
991.2333, -0.1261196
991.7155, 0.5268046
992.1976, 1.721217
992.6797, 1.988915
993.1618, 0.3346721
993.6439, -1.011975
994.1260, -0.7626210
994.6082, 0.2591221
995.0903, 0.9882215
995.5724, 1.428383
996.0545, 1.503188
996.5366, 0.6626405
997.0187, 0.2424176
997.5009, 0.9315624
997.9830, 1.615775
998.4651, 1.474313
998.9472, 0.9214476
999.4293, 0.7841244
999.9114, 1.202737
1000.394, 1.276755
1000.876, 0.2346850
1001.358, -0.5319936
1001.840, -0.2136015
1002.322, 0.4399639
1002.804, 0.9637722
1003.286, 1.213179
1003.768, 0.9364434
1004.250, 2.7959149E-02
1004.733, -0.6920779
1005.215, -0.5111049
1005.697, -0.2704514
1006.179, -0.9818138
1006.661, -1.765000
1007.143, -1.235754
1007.625, 0.3387342
1008.107, 1.715967
1008.590, 2.395977
1009.072, 2.505973
1009.554, 1.767756
1010.036, 0.8341352
1010.518, 0.5813968
1011.000, 0.7018934
1011.482, 0.4954909
1011.964, -7.3770620E-02
1012.446, -0.5665421
1012.929, -0.7597970
1013.411, -0.6530292
1013.893, -8.4693551E-02
1014.375, 0.7017681
1014.857, 1.288589
1015.339, 1.646965
1015.821, 1.632221
1016.303, 1.277387
1016.786, 1.100795
1017.268, 1.490030
1017.750, 2.027431
1018.232, 2.013247
1018.714, 1.557708
1019.196, 1.011994
1019.678, 0.4309737
1020.160, 0.2470587
1020.642, 0.5724227
1021.125, 0.7203988
1021.607, 8.7769553E-02
1022.089, -0.9010189
1022.571, -1.315968
1023.053, -1.173236
1023.535, -0.5378358
1024.017, 0.6319402
1024.499, 1.063295
1024.981, 0.2702418
1025.464, -0.7496083
1025.946, -1.133869
1026.428, -0.9701731
1026.910, -0.3731064
1027.392, 0.7777697
1027.874, 1.094886
1028.356, 0.3381644
1028.838, -0.3390338
1029.321, -0.5928715
1029.803, -0.4500948
1030.285, 0.1633184
1030.767, 1.088453
1031.249, 1.651451
1031.731, 1.910865
1032.213, 1.507958
1032.695, 0.1010226
1033.177, -1.134094
1033.660, -1.841848
1034.142, -2.073773
1034.624, -1.801983
1035.106, -1.100825
1035.588, -0.4142814
1036.070, 0.4654436
1036.552, 0.7946042
1037.034, 0.1371908
1037.516, -0.3350424
1037.999, -4.1085910E-02
1038.481, 0.4829899
1038.963, 0.6753113
1039.445, 0.5781623
1039.927, 0.5180149
1040.409, 0.4889973
1040.891, 0.5102001
1041.373, 0.7761538
1041.856, 0.8433501
1042.338, 0.1653072
1042.820, -0.5101344
1043.302, -0.2628109
1043.784, 0.7636105
1044.266, 1.452308
1044.748, 1.759712
1045.230, 1.744845
1045.713, 1.160857
1046.195, 0.5542430
1046.677, -0.1875965
1047.159, -0.6132349
1047.641, 0.1247832
1048.123, 1.765436
1048.605, 2.469465
1049.087, 1.208913
1049.569, 0.5278384
1050.052, 1.453744
1050.534, 2.246805
1051.016, 1.878497
1051.498, 1.129019
1051.980, 0.8863402
1052.462, 1.126400
1052.944, 1.309636
1053.426, 1.340703
1053.908, 1.311205
1054.391, 1.411406
1054.873, 1.259762
1055.355, 9.1436312E-02
1055.837, -1.035917
1056.319, -0.4822126
1056.801, 1.367819
1057.283, 2.048408
1057.765, 0.2848049
1058.248, -1.012074
1058.730, -0.6867601
1059.212, -2.6114291E-02
1059.694, 0.5394534
1060.176, 0.8499593
1060.658, 0.5569695
1061.140, -0.1425184
1061.622, -0.3522511
1062.104, 0.4448869
1062.587, 0.9522815
1063.069, 0.5117400
1063.551, -0.1317456
1064.033, -1.028850
1064.515, -1.551169
1064.997, -0.5557578
1065.479, 1.480470
1065.961, 2.611897
1066.443, 2.114907
1066.926, 1.272288
1067.408, 0.3053438
1067.890, -0.5115794
1068.372, -1.109880
1068.854, -1.403743
1069.336, -1.155247
1069.818, -0.5291386
1070.300, -3.4648102E-02
1070.783, 0.1844800
1071.265, 0.2632220
1071.747, 0.2653318
1072.229, 0.1419384
1072.711, -0.3221664
1073.193, -0.7864478
1073.675, -0.9057441
1074.157, -0.6890727
1074.640, -0.2537923
1075.122, 0.3936247
1075.604, 1.056527
1076.086, 2.075910
1076.568, 2.574659
1077.050, 1.358276
1077.532, -9.5173463E-02
1078.014, -0.1023870
1078.496, 0.9460423
1078.979, 1.686899
1079.461, 1.750021
1079.943, 1.918752
1080.425, 3.046843
1080.907, 3.761114
1081.389, 2.923967
1081.871, 1.640060
1082.353, 0.8377788
1082.835, 0.4845960
1083.318, 0.2770979
1083.800, 0.1465490
1084.282, 0.2354216
1084.764, 0.9741064
1085.246, 1.474978
1085.728, 1.041535
1086.210, 0.4148169
1086.692, 0.2482846
1087.175, 0.3639306
1087.657, 0.3567615
1088.139, 0.1577025
1088.621, -3.1914059E-02
1089.103, -9.9960603E-02
1089.585, -0.1880556
1090.067, -0.6836230
1090.549, -0.8980150
1091.031, 0.2412268
1091.514, 1.728342
1091.996, 1.765662
1092.478, 0.3503181
1092.960, -0.4810472
1093.442, 0.3672185
1093.924, 1.112886
1094.406, 0.9022598
1094.888, 0.5837061
1095.370, 0.8222820
1095.853, 1.211191
1096.335, 1.091973
1096.817, 0.5473389
1097.299, 0.3463987
1097.781, 0.9125043
1098.263, 1.262850
1098.745, 1.209118
1099.228, 0.7178198
1099.710, -0.6898161
1100.192, -2.193425
1100.674, -3.065844
1101.156, -3.259598
1101.638, -2.802685
1102.120, -1.485457
1102.602, -0.3422960
1103.084, 0.5439414
1103.567, 0.9997869
1104.049, 0.5264283
1104.531, -1.7992290E-02
1105.013, 0.3414747
1105.495, 1.146312
1105.977, 1.080454
1106.459, -0.2397050
1106.941, -0.8545970
1107.423, -4.4032209E-02
1107.906, 0.9572380
1108.388, 2.215780
1108.870, 3.161459
1109.352, 3.353882
1109.834, 3.008331
1110.316, 2.430063
1110.798, 1.620680
1111.280, 0.9251900
1111.763, 0.3022167
1112.245, -0.1063566
1112.727, -0.4823988
1113.209, -0.4155508
1113.691, 0.7796103
1114.173, 2.221032
1114.655, 2.719200
1115.137, 2.345731
1115.620, 2.144238
1116.102, 2.486784
1116.584, 2.322588
1117.066, 1.016460
1117.548, 0.1366809
1118.030, 0.4907491
1118.512, 1.206809
1118.994, 1.520177
1119.476, 1.495581
1119.958, 1.390891
1120.441, 1.209671
1120.923, 0.9104224
1121.405, 0.3095059
1121.887, 4.4928580E-03
1122.369, 0.2058024
1122.851, 0.6779890
1123.333, 1.481433
1123.815, 2.182053
1124.298, 1.652491
1124.780, -0.2890932
1125.262, -0.9881235
1125.744, -9.0183336E-03
1126.226, 0.5729721
1126.708, 0.2778228
1127.190, -2.5778100E-02
1127.672, 0.1309479
1128.155, 0.5656861
1128.637, 1.044280
1129.119, 1.551304
1129.601, 2.051397
1130.083, 2.614126
1130.565, 2.226454
1131.047, 0.6360105
1131.529, -0.4344607
1132.011, -0.2429084
1132.494, 0.3898281
1132.976, 0.6949980
1133.458, 0.6794595
1133.940, 0.1077677
1134.422, -0.9050950
1134.904, -0.4476220
1135.386, 1.432443
1135.868, 1.745536
1136.350, -0.2772609
1136.833, -2.020655
1137.315, -1.593625
1137.797, -0.1263589
1138.279, 0.7043475
1138.761, 0.9482014
1139.243, 0.5877997
1139.725, -0.2208660
1140.207, -0.9651034
1140.690, -1.485021
1141.172, -1.338169
1141.654, -0.3275591
1142.136, 0.6424183
1142.618, 0.3050843
1143.100, -0.3495956
1143.582, 0.8693678
1144.064, 2.819947
1144.547, 2.928273
1145.029, 1.506610
1145.511, 0.2008421
1145.993, -0.4533034
1146.475, -0.6318615
1146.957, -0.3714398
1147.439, 9.7916342E-02
1147.921, 0.7059561
1148.403, 1.265145
1148.885, 1.507008
1149.368, 1.544217
1149.850, 1.716568
1150.332, 1.930736
1150.814, 1.480239
1151.296, -0.1223733
1151.778, -1.185351
1152.260, -0.2855965
1152.742, 1.028842
1153.225, 2.200981
1153.707, 2.843204
1154.189, 2.164880
1154.671, 0.7850967
1155.153, 0.1835480
1155.635, 0.6648062
1156.117, 0.9752230
1156.599, 0.5065247
1157.082, 0.1140239
1157.564, -1.1542960E-02
1158.046, 9.9971943E-02
1158.528, 0.6884300
1159.010, 1.338736
1159.492, 1.507169
1159.974, 1.206306
1160.456, 0.8033637
1160.938, 5.0761189E-02
1161.421, -0.2671183
1161.903, -3.6392208E-02
1162.385, 0.5323498
1162.867, 1.987503
1163.349, 3.030923
1163.831, 2.238178
1164.313, 0.5357085
1164.795, 0.2870194
1165.277, 1.741268
1165.760, 2.557643
1166.242, 2.666026
1166.724, 2.243407
1167.206, 1.011506
1167.688, 0.3220193
1168.170, 1.074917
1168.652, 2.115593
1169.134, 1.898436
1169.617, 0.7432855
1170.099, 9.4224758E-02
1170.581, -4.7586638E-02
1171.063, 0.3763503
1171.545, 1.375818
1172.027, 2.062669
1172.509, 2.169449
1172.991, 1.972355
1173.474, 1.656521
1173.956, 1.315062
1174.438, 1.103119
1174.920, 0.9982135
1175.402, 0.9447268
1175.884, 0.9341839
1176.366, 0.9851755
1176.848, 1.062526
1177.330, 0.8991114
1177.813, 0.4059335
1178.295, 0.2021853
1178.777, 1.093916
1179.259, 2.182223
1179.741, 2.376732
1180.223, 2.030436
1180.705, 1.386929
1181.187, 0.7147335
1181.669, 0.6033653
1182.152, 1.009724
1182.634, 1.063160
1183.116, 0.1824028
1183.598, -0.3910778
1184.080, 0.5134139
1184.562, 1.456071
1185.044, 1.310304
1185.526, 0.8463914
1186.009, 0.9905992
1186.491, 1.483331
1186.973, 1.519798
1187.455, 0.9457064
1187.937, 0.3664798
1188.419, -0.4327036
1188.901, -0.7323488
1189.383, -1.8589981E-02
1189.865, 0.7844532
1190.348, 1.072444
1190.830, 1.337521
1191.312, 2.451674
1191.794, 4.022969
1192.276, 3.984530
1192.758, 1.476206
1193.240, 0.3509068
1193.722, 1.073123
1194.204, 1.850525
1194.687, 2.367319
1195.169, 2.553444
1195.651, 2.337260
1196.133, 1.823315
1196.615, 1.083960
1197.097, 0.2358040
1197.579, 6.3129462E-02
1198.061, 0.5281520
1198.544, 0.9837801
1199.026, 1.347635
1199.508, 1.298780
1199.990, 0.7548643
1200.472, 0.3041677
1200.954, 0.4451559
1201.436, 0.7865723
1201.918, 0.8063276
1202.401, 0.5583391
1202.883, -0.1704181
1203.365, -0.9596802
1203.847, -0.6078733
1204.329, 0.6531593
1204.811, 1.453483
1205.293, 1.290718
1205.775, 0.8162569
1206.257, 0.3330261
1206.740, -0.1052195
1207.222, -0.6398003
1207.704, -0.9368385
1208.186, -0.3729149
1208.668, 0.4401089
1209.150, 0.3914878
1209.632, -0.3568262
1210.114, -0.3869143
1210.596, 1.001552
1211.079, 1.821945
1211.561, 1.364318
1212.043, 0.7339565
1212.525, -9.7221553E-02
1213.007, -0.5962898
1213.489, -4.0883910E-02
1213.971, 0.7449681
1214.453, 0.2596341
1214.936, -1.366732
1215.418, -1.621204
1215.900, 3.2285791E-02
1216.382, 1.003884
1216.864, 1.048841
1217.346, 0.8343487
1217.828, 0.5135733
1218.310, 0.3087546
1218.792, 0.4382055
1219.275, 0.5766608
1219.757, -0.1106333
1220.239, 0.3594579
1220.721, -0.9415556
1221.203, 0.4987664
1221.685, 1.003482
1222.167, 0.4991278
1222.649, 0.2290223
1223.131, 0.5838630
1223.614, 0.6546074
1224.096, -0.4380578
1224.578, -1.517711
1225.060, -1.075675
1225.542, -8.4113747E-02
1226.024, 0.6656503
1226.506, 0.9236065
1226.988, -0.2012690
1227.471, -1.993558
1227.953, -2.059855
1228.435, 0.3425434
1228.917, 1.997977
1229.399, 1.002474
1229.881, 2.4748430E-02
1230.363, -0.1258890
1230.845, 5.9964199E-02
1231.328, 0.6106268
1231.810, 1.101464
1232.292, 0.8357802
1232.774, 9.1320641E-02
1233.256, 5.1383309E-02
1233.738, -7.4812897E-02
1234.220, -0.3017326
1234.702, 0.2727924
1235.184, -0.1203886
1235.667, 0.5323669
1236.149, 1.274602
1236.631, 1.642668
1237.113, 1.718335
1237.595, 1.532442
1238.077, 1.248971
1238.559, 1.449492
1239.041, 2.003453
1239.523, 2.310966
1240.006, 2.327838
1240.488, 2.007241
1240.970, 1.345250
1241.452, 0.1782390
1241.934, -1.594346
1242.416, -2.790511
1242.898, -1.883505
1243.380, -0.3889337
1243.863, 0.4358263
1244.345, 0.7902035
1244.827, 0.6233386
1245.309, 0.3126842
1245.791, 0.4535424
1246.273, 1.051991
1246.755, 1.704748
1247.237, 2.400635
1247.719, 2.831112
1248.202, 3.100513
1248.684, 2.854919
1249.166, 1.372669
1249.648, 6.9388658E-02
1250.130, -2.0782240E-02
1250.612, -0.9989579
1251.094, -0.4318360
1251.576, -1.771662
1252.058, -1.583632
1252.541, -1.737617
1253.023, -1.717768
1253.505, -0.4803288
1253.987, -0.7076905
1254.469, 1.096956
1254.951, 2.252106
1255.433, 1.177509
1255.915, -0.5825701
1256.398, -1.291841
1256.880, -1.222707
1257.362, -0.4589415
1257.844, 0.4383555
1258.326, 1.8136671E-02
1258.808, -1.128723
1259.290, -1.385327
1259.772, -0.6136366
1260.255, 0.2577453
1260.737, 0.9011855
1261.219, 1.219862
1261.701, 0.8399266
1262.183, 0.5559881
1262.665, 0.7565294
1263.147, 1.189039
1263.629, 2.135647
1264.111, 2.898250
1264.594, 2.191673
1265.076, 0.3410970
1265.558, -0.6353478
1266.040, -0.5227844
1266.522, -0.3065202
1267.004, -3.1418200E-03
1267.486, 0.4901111
1267.968, 1.237518
1268.450, 2.073493
1268.933, 3.011043
1269.415, 3.285920
1269.897, 1.817825
1270.379, -0.4376886
1270.861, -1.292305
1271.343, -0.9917700
1271.825, 0.2525874
1272.307, 1.869691
1272.790, 2.017355
1273.272, 0.8328225
1273.754, 0.2415448
1274.236, 0.9445363
1274.718, 1.579598
1275.200, 1.084428
1275.682, 0.5289163
1276.164, 0.4164005
1276.646, 0.6152429
1277.129, 1.499695
1277.611, 2.277328
1278.093, 1.703922
1278.575, 0.2925976
1279.057, -8.6573593E-02
1279.539, 0.7663894
1280.021, 1.445142
1280.503, 2.079579
1280.985, 2.107225
1281.468, 1.304971
1281.950, 0.4816892
1282.432, -0.1117075
1282.914, -0.3667836
1283.396, -0.1652377
1283.878, 0.3084464
1284.360, 0.9025301
1284.842, 1.423484
1285.325, 1.327782
1285.807, 0.6180805
##END=



