##NAMES=Theisite
##RRUFFID=R050326
##IDEAL CHEMISTRY=Cu^2+^_5_Zn^2+^_5_As^5+^_2_O_8_(OH)_14_
##LOCALITY=Tucker's Tunnel, Tuckerville, Hinsdale County, Colorado, USA
##OWNER=RRUFF
##SOURCE=Marcus Origlieri
##DESCRIPTION=Pale blue crust, easily burnt by the laser
##STATUS=The identification of this mineral is not yet confirmed.
##URL=rruff.info/R050326
125.094, 26329.881
125.576, 26321.289
126.058, 26293.510
126.540, 26290.350
127.023, 26318.301
127.505, 26361.131
127.987, 26403.279
128.469, 26445.420
128.951, 26491.760
129.433, 26539.061
129.915, 26592.230
130.398, 26666.971
130.880, 26768.750
131.362, 26880.410
131.844, 26973.289
132.326, 27048.930
132.808, 27137.430
133.290, 27261.410
133.772, 27416.039
134.254, 27570.500
134.736, 27723.580
135.219, 27871.461
135.701, 28001.211
136.183, 28112.650
136.665, 28219.039
137.147, 28322.301
137.629, 28421.141
138.111, 28546.311
138.594, 28707.240
139.076, 28885.420
139.558, 29031.779
140.040, 29135.529
140.522, 29241.801
141.004, 29376.150
141.486, 29550.689
141.968, 29704.221
142.450, 29823.750
142.932, 29926.961
143.415, 30055.260
143.897, 30216.500
144.379, 30388.211
144.861, 30563.080
145.343, 30739.980
145.825, 30920.301
146.307, 31110.311
146.789, 31302.340
147.272, 31468.609
147.754, 31574.100
148.236, 31693.449
148.718, 31863.939
149.200, 32154.230
149.682, 32371.930
150.164, 32458.100
150.646, 32469.430
151.128, 32549.211
151.611, 32804.398
152.093, 33037.000
152.575, 33179.379
153.057, 33173.141
153.539, 33169.641
154.021, 33189.809
154.503, 33217.391
154.985, 33217.230
155.467, 33154.660
155.950, 33087.789
156.432, 33041.699
156.914, 33032.609
157.396, 33017.148
157.878, 33006.980
158.360, 32984.570
158.842, 32915.520
159.324, 32745.500
159.807, 32560.711
160.289, 32401.529
160.771, 32281.420
161.253, 32169.150
161.735, 32047.461
162.217, 31927.830
162.699, 31831.850
163.181, 31792.359
163.663, 31761.961
164.146, 31710.471
164.628, 31626.260
165.110, 31542.029
165.592, 31465.881
166.074, 31400.980
166.556, 31353.350
167.038, 31335.119
167.520, 31329.461
168.003, 31323.109
168.485, 31312.131
168.967, 31308.260
169.449, 31315.760
169.931, 31335.971
170.413, 31371.270
170.895, 31436.580
171.377, 31510.840
171.859, 31570.260
172.342, 31609.199
172.824, 31651.119
173.306, 31721.500
173.788, 31809.580
174.270, 31891.119
174.752, 31955.211
175.234, 32005.480
175.716, 32042.270
176.199, 32063.770
176.681, 32083.711
177.163, 32114.529
177.645, 32153.920
178.127, 32196.600
178.609, 32255.859
179.091, 32311.949
179.573, 32324.570
180.055, 32286.570
180.538, 32244.180
181.020, 32247.211
181.502, 32286.600
181.984, 32332.240
182.466, 32358.510
182.948, 32382.770
183.430, 32451.289
183.912, 32568.301
184.395, 32698.090
184.877, 32803.672
185.359, 32887.238
185.841, 32950.891
186.323, 32981.039
186.805, 32992.988
187.287, 33036.789
187.769, 33115.109
188.251, 33203.102
188.734, 33270.641
189.216, 33320.070
189.698, 33368.719
190.180, 33432.660
190.662, 33499.941
191.144, 33513.859
191.626, 33467.910
192.108, 33411.789
192.590, 33402.328
193.073, 33437.090
193.555, 33477.250
194.037, 33517.590
194.519, 33553.730
195.001, 33564.531
195.483, 33547.520
195.965, 33518.281
196.447, 33484.422
196.930, 33446.211
197.412, 33426.680
197.894, 33432.238
198.376, 33460.738
198.858, 33523.660
199.340, 33638.191
199.822, 33713.219
200.304, 33639.289
200.786, 33402.262
201.269, 33211.980
201.751, 33113.949
202.233, 33087.289
202.715, 33049.070
203.197, 32995.441
203.679, 32943.801
204.161, 32904.559
204.643, 32876.859
205.126, 32869.828
205.608, 32890.898
206.090, 32930.219
206.572, 32954.109
207.054, 32959.320
207.536, 32958.879
208.018, 32965.609
208.500, 32985.801
208.982, 32976.320
209.465, 32921.051
209.947, 32841.660
210.429, 32799.371
210.911, 32799.762
211.393, 32823.012
211.875, 32861.891
212.357, 32919.602
212.839, 32980.461
213.322, 33045.289
213.804, 33111.441
214.286, 33176.379
214.768, 33245.070
215.250, 33300.398
215.732, 33329.340
216.214, 33320.281
216.696, 33333.359
217.178, 33371.090
217.661, 33428.660
218.143, 33500.160
218.625, 33589.980
219.107, 33684.551
219.589, 33780.898
220.071, 33879.898
220.553, 33977.789
221.035, 34073.539
221.518, 34169.230
222.000, 34265.379
222.482, 34361.859
222.964, 34461.039
223.446, 34566.109
223.928, 34676.941
224.410, 34781.410
224.892, 34870.949
225.374, 34962.488
225.857, 35079.199
226.339, 35248.859
226.821, 35385.129
227.303, 35459.781
227.785, 35473.840
228.267, 35519.211
228.749, 35605.691
229.231, 35711.449
229.714, 35825.680
230.196, 35964.109
230.678, 36074.781
231.160, 36144.219
231.642, 36176.621
232.124, 36204.711
232.606, 36219.160
233.088, 36240.980
233.570, 36287.430
234.053, 36379.230
234.535, 36449.141
235.017, 36478.980
235.499, 36483.422
235.981, 36522.969
236.463, 36624.020
236.945, 36723.410
237.427, 36786.070
237.910, 36789.859
238.392, 36810.289
238.874, 36863.340
239.356, 36928.828
239.838, 36954.711
240.320, 36921.148
240.802, 36878.770
241.284, 36848.730
241.766, 36838.219
242.249, 36814.809
242.731, 36768.629
243.213, 36715.531
243.695, 36685.172
244.177, 36702.059
244.659, 36699.160
245.141, 36647.461
245.623, 36534.090
246.105, 36458.609
246.588, 36440.711
247.070, 36443.578
247.552, 36419.461
248.034, 36338.141
248.516, 36288.750
248.998, 36307.828
249.480, 36396.238
249.962, 36423.500
250.445, 36348.211
250.927, 36259.512
251.409, 36238.109
251.891, 36317.891
252.373, 36392.711
252.855, 36443.559
253.337, 36475.121
253.819, 36522.730
254.301, 36598.520
254.784, 36673.371
255.266, 36726.191
255.748, 36741.340
256.230, 36773.551
256.712, 36828.270
257.194, 36902.430
257.676, 36988.309
258.158, 37098.430
258.641, 37196.609
259.123, 37264.180
259.605, 37292.391
260.087, 37313.578
260.569, 37325.750
261.051, 37332.180
261.533, 37336.750
262.015, 37332.250
262.497, 37343.488
262.980, 37392.629
263.462, 37494.531
263.944, 37528.148
264.426, 37474.000
264.908, 37373.539
265.390, 37279.820
265.872, 37194.871
266.354, 37114.391
266.836, 37040.859
267.319, 36973.359
267.801, 36895.691
268.283, 36803.852
268.765, 36707.422
269.247, 36612.590
269.729, 36516.531
270.211, 36434.730
270.694, 36372.801
271.176, 36326.969
271.658, 36273.059
272.140, 36204.941
272.622, 36143.270
273.104, 36102.441
273.586, 36084.109
274.068, 36077.879
274.550, 36086.090
275.033, 36103.129
275.515, 36115.922
275.997, 36125.090
276.479, 36127.879
276.961, 36121.840
277.443, 36106.328
277.925, 36088.789
278.407, 36068.859
278.889, 36047.270
279.372, 36022.430
279.854, 35992.930
280.336, 35971.910
280.818, 35967.910
281.300, 35979.270
281.782, 35984.852
282.264, 35985.340
282.746, 35977.648
283.228, 35956.020
283.711, 35920.309
284.193, 35880.801
284.675, 35835.629
285.157, 35789.949
285.639, 35762.520
286.121, 35753.891
286.603, 35761.219
287.085, 35802.891
287.568, 35871.828
288.050, 35882.449
288.532, 35801.078
289.014, 35678.871
289.496, 35628.641
289.978, 35650.422
290.460, 35687.660
290.942, 35706.559
291.424, 35710.891
291.907, 35718.461
292.389, 35732.469
292.871, 35744.531
293.353, 35730.559
293.835, 35696.461
294.317, 35684.750
294.799, 35733.820
295.281, 35819.250
295.763, 35876.941
296.246, 35904.949
296.728, 35919.191
297.210, 35933.512
297.692, 35947.520
298.174, 35958.602
298.656, 35960.422
299.138, 35962.988
299.621, 35988.988
300.103, 36036.480
300.585, 36080.551
301.067, 36084.000
301.549, 36071.289
302.031, 36096.090
302.513, 36184.250
302.995, 36286.672
303.477, 36347.809
303.960, 36374.590
304.442, 36395.750
304.924, 36418.559
305.406, 36449.590
305.888, 36499.441
306.370, 36572.570
306.852, 36650.879
307.334, 36731.109
307.816, 36805.289
308.299, 36855.801
308.781, 36846.309
309.263, 36828.039
309.745, 36851.301
310.227, 36917.219
310.709, 36988.719
311.191, 37056.281
311.673, 37111.172
312.155, 37140.730
312.638, 37114.000
313.120, 37087.762
313.602, 37092.840
314.084, 37127.371
314.566, 37182.789
315.048, 37299.609
315.530, 37410.680
316.012, 37454.379
316.495, 37380.250
316.977, 37319.801
317.459, 37346.289
317.941, 37425.461
318.423, 37491.660
318.905, 37499.988
319.387, 37507.309
319.869, 37548.691
320.352, 37636.148
320.834, 37704.551
321.316, 37726.352
321.798, 37722.691
322.280, 37716.129
322.762, 37702.891
323.244, 37696.121
323.726, 37699.398
324.208, 37712.641
324.690, 37732.371
325.173, 37765.000
325.655, 37799.539
326.137, 37829.129
326.619, 37864.320
327.101, 37881.371
327.583, 37855.879
328.065, 37808.551
328.547, 37800.000
329.030, 37892.320
329.512, 37967.930
329.994, 37978.191
330.476, 37880.180
330.958, 37840.090
331.440, 37907.141
331.922, 38006.922
332.404, 38041.238
332.887, 37951.629
333.369, 37887.059
333.851, 37892.941
334.333, 37969.059
334.815, 37998.539
335.297, 37952.590
335.779, 37897.000
336.261, 37884.719
336.743, 37936.961
337.226, 37973.949
337.708, 37987.121
338.190, 37980.160
338.672, 37956.309
339.154, 37899.859
339.636, 37870.828
340.118, 37913.070
340.600, 38040.809
341.082, 38127.238
341.565, 38164.520
342.047, 38175.730
342.529, 38193.039
343.011, 38216.801
343.493, 38241.352
343.975, 38266.930
344.457, 38291.840
344.940, 38301.051
345.422, 38291.629
345.904, 38287.840
346.386, 38324.320
346.868, 38392.801
347.350, 38428.898
347.832, 38409.250
348.314, 38370.121
348.796, 38383.680
349.279, 38445.090
349.761, 38506.180
350.243, 38529.660
350.725, 38532.000
351.207, 38554.500
351.689, 38602.910
352.171, 38653.660
352.653, 38667.109
353.135, 38662.262
353.618, 38688.570
354.100, 38801.789
354.582, 38935.270
355.064, 38999.691
355.546, 39001.770
356.028, 39006.531
356.510, 39073.750
356.992, 39163.961
357.474, 39230.371
357.957, 39255.250
358.439, 39262.199
358.921, 39251.762
359.403, 39234.621
359.885, 39236.488
360.367, 39287.078
360.849, 39348.160
361.331, 39394.629
361.814, 39422.250
362.296, 39446.820
362.778, 39461.512
363.260, 39481.809
363.742, 39524.711
364.224, 39617.422
364.706, 39710.809
365.188, 39790.590
365.671, 39857.750
366.153, 39920.602
366.635, 39989.551
367.117, 40048.949
367.599, 40091.840
368.081, 40127.289
368.563, 40131.172
369.045, 40053.660
369.527, 39948.762
370.009, 39925.262
370.492, 40064.359
370.974, 40191.680
371.456, 40258.410
371.938, 40255.301
372.420, 40253.199
372.902, 40249.930
373.384, 40249.719
373.866, 40258.570
374.349, 40284.629
374.831, 40298.891
375.313, 40293.410
375.795, 40273.859
376.277, 40261.230
376.759, 40254.480
377.241, 40257.410
377.723, 40280.988
378.206, 40329.609
378.688, 40340.891
379.170, 40303.238
379.652, 40250.379
380.134, 40234.391
380.616, 40256.238
381.098, 40278.141
381.580, 40293.730
382.062, 40298.078
382.545, 40260.680
383.027, 40179.090
383.509, 40107.602
383.991, 40113.211
384.473, 40168.910
384.955, 40177.840
385.437, 40108.809
385.919, 40023.512
386.401, 40002.512
386.884, 40034.211
387.366, 40075.191
387.848, 40115.660
388.330, 40146.719
388.812, 40153.500
389.294, 40135.121
389.776, 40110.281
390.258, 40085.699
390.741, 40065.859
391.223, 40056.199
391.705, 40056.148
392.187, 40069.879
392.669, 40123.441
393.151, 40198.500
393.633, 40233.012
394.115, 40145.328
394.598, 40046.871
395.080, 40011.660
395.562, 40067.699
396.044, 40119.281
396.526, 40138.109
397.008, 40137.410
397.490, 40133.020
397.972, 40128.770
398.454, 40120.238
398.936, 40098.941
399.419, 40066.449
399.901, 40054.461
400.383, 40069.012
400.865, 40099.969
401.347, 40146.020
401.829, 40242.379
402.311, 40288.000
402.793, 40258.250
403.276, 40190.531
403.758, 40150.980
404.240, 40143.578
404.722, 40156.660
405.204, 40192.781
405.686, 40251.840
406.168, 40296.789
406.650, 40323.930
407.133, 40348.148
407.615, 40390.730
408.097, 40454.578
408.579, 40479.160
409.061, 40441.051
409.543, 40380.809
410.025, 40390.371
410.507, 40468.520
410.989, 40548.391
411.472, 40591.820
411.954, 40610.379
412.436, 40639.000
412.918, 40678.121
413.400, 40724.531
413.882, 40789.840
414.364, 40859.031
414.846, 40895.691
415.328, 40870.809
415.811, 40834.570
416.293, 40849.949
416.775, 40902.301
417.257, 40941.512
417.739, 40910.609
418.221, 40870.859
418.703, 40884.141
419.185, 40965.340
419.668, 41038.879
420.150, 41068.711
420.632, 41067.230
421.114, 41048.180
421.596, 40991.930
422.078, 40943.000
422.560, 40918.191
423.042, 40913.891
423.525, 40909.262
424.007, 40909.871
424.489, 40901.609
424.971, 40875.980
425.453, 40820.359
425.935, 40773.059
426.417, 40720.762
426.899, 40683.039
427.381, 40688.879
427.863, 40783.551
428.346, 40844.520
428.828, 40841.910
429.310, 40782.961
429.792, 40724.910
430.274, 40666.789
430.756, 40613.789
431.238, 40564.930
431.720, 40517.109
432.203, 40505.398
432.685, 40544.391
433.167, 40592.691
433.649, 40577.859
434.131, 40502.129
434.613, 40433.781
435.095, 40390.551
435.577, 40373.211
436.060, 40399.660
436.542, 40467.949
437.024, 40520.629
437.506, 40500.672
437.988, 40435.641
438.470, 40377.520
438.952, 40334.328
439.434, 40299.391
439.916, 40252.898
440.399, 40210.648
440.881, 40204.051
441.363, 40297.012
441.845, 40391.559
442.327, 40407.512
442.809, 40352.281
443.291, 40308.059
443.773, 40325.609
444.255, 40359.891
444.738, 40380.480
445.220, 40385.680
445.702, 40369.340
446.184, 40297.012
446.666, 40209.000
447.148, 40170.359
447.630, 40230.121
448.112, 40295.020
448.595, 40352.379
449.077, 40401.680
449.559, 40427.262
450.041, 40417.809
450.523, 40397.988
451.005, 40380.488
451.487, 40361.559
451.969, 40357.020
452.452, 40370.270
452.934, 40394.898
453.416, 40421.691
453.898, 40450.719
454.380, 40478.371
454.862, 40505.340
455.344, 40529.520
455.826, 40530.160
456.308, 40504.699
456.790, 40500.770
457.273, 40575.551
457.755, 40704.891
458.237, 40813.320
458.719, 40895.191
459.201, 40944.629
459.683, 40933.801
460.165, 40885.520
460.647, 40853.219
461.130, 40871.320
461.612, 40908.488
462.094, 40945.020
462.576, 40979.148
463.058, 41002.480
463.540, 40989.691
464.022, 40977.078
464.504, 40992.379
464.987, 41046.980
465.469, 41112.930
465.951, 41196.488
466.433, 41283.219
466.915, 41353.801
467.397, 41392.340
467.879, 41429.488
468.361, 41470.770
468.843, 41515.680
469.326, 41561.910
469.808, 41607.660
470.290, 41655.961
470.772, 41712.449
471.254, 41787.910
471.736, 41827.449
472.218, 41812.539
472.700, 41788.270
473.182, 41817.238
473.665, 41902.672
474.147, 42012.301
474.629, 42155.711
475.111, 42305.230
475.593, 42367.520
476.075, 42344.281
476.557, 42321.641
477.039, 42353.309
477.522, 42427.422
478.004, 42524.801
478.486, 42647.531
478.968, 42759.801
479.450, 42815.449
479.932, 42840.441
480.414, 42878.980
480.896, 42956.520
481.379, 43038.461
481.861, 43093.660
482.343, 43133.691
482.825, 43191.230
483.307, 43306.449
483.789, 43421.289
484.271, 43500.270
484.753, 43534.219
485.235, 43579.000
485.717, 43668.480
486.200, 43759.738
486.682, 43816.840
487.164, 43795.648
487.646, 43803.859
488.128, 43863.711
488.610, 43951.430
489.092, 44008.359
489.574, 44019.852
490.057, 44031.480
490.539, 44053.941
491.021, 44087.699
491.503, 44161.539
491.985, 44289.840
492.467, 44396.398
492.949, 44390.719
493.431, 44290.488
493.914, 44238.770
494.396, 44260.340
494.878, 44316.031
495.360, 44362.410
495.842, 44399.699
496.324, 44427.898
496.806, 44451.000
497.288, 44461.840
497.770, 44444.020
498.253, 44402.781
498.735, 44368.250
499.217, 44344.270
499.699, 44343.289
500.181, 44387.230
500.663, 44498.691
501.145, 44582.250
501.627, 44594.551
502.109, 44565.379
502.592, 44527.730
503.074, 44489.070
503.556, 44440.129
504.038, 44369.449
504.520, 44285.359
505.002, 44221.430
505.484, 44181.172
505.966, 44154.449
506.449, 44141.629
506.931, 44145.391
507.413, 44133.770
507.895, 44102.801
508.377, 44065.531
508.859, 44036.820
509.341, 44016.781
509.823, 43981.219
510.306, 43916.090
510.788, 43855.199
511.270, 43880.730
511.752, 43972.891
512.234, 44028.820
512.716, 43957.379
513.198, 43841.648
513.680, 43808.012
514.162, 43846.629
514.644, 43866.539
515.127, 43787.719
515.609, 43674.078
516.091, 43581.660
516.573, 43519.531
517.055, 43481.211
517.537, 43467.230
518.019, 43473.840
518.502, 43496.461
518.984, 43575.719
519.466, 43624.910
519.948, 43621.078
520.430, 43571.090
520.912, 43502.809
521.394, 43377.551
521.876, 43289.871
522.358, 43291.789
522.841, 43397.340
523.323, 43456.129
523.805, 43457.871
524.287, 43435.980
524.769, 43418.820
525.251, 43406.469
525.733, 43396.871
526.215, 43388.121
526.697, 43385.359
527.180, 43409.172
527.662, 43450.520
528.144, 43470.000
528.626, 43421.359
529.108, 43356.430
529.590, 43342.398
530.072, 43373.379
530.554, 43407.281
531.036, 43443.660
531.519, 43456.969
532.001, 43414.980
532.483, 43294.000
532.965, 43193.352
533.447, 43151.922
533.929, 43145.172
534.411, 43147.590
534.893, 43194.219
535.375, 43201.820
535.858, 43133.719
536.340, 43021.422
536.822, 42967.949
537.304, 43005.809
537.786, 43036.891
538.268, 43026.141
538.750, 42974.730
539.232, 42904.750
539.715, 42808.191
540.197, 42728.309
540.679, 42721.191
541.161, 42770.500
541.643, 42781.230
542.125, 42738.039
542.607, 42670.148
543.089, 42595.391
543.571, 42523.699
544.054, 42478.211
544.536, 42487.070
545.018, 42508.102
545.500, 42505.051
545.982, 42485.020
546.464, 42472.281
546.946, 42495.480
547.429, 42514.629
547.911, 42503.230
548.393, 42453.641
548.875, 42412.449
549.357, 42380.672
549.839, 42363.730
550.321, 42371.660
550.803, 42462.820
551.285, 42457.410
551.768, 42288.789
552.250, 42070.230
552.732, 42013.719
553.214, 42153.070
553.696, 42266.551
554.178, 42284.699
554.660, 42235.211
555.142, 42193.379
555.625, 42159.398
556.107, 42145.141
556.589, 42183.441
557.071, 42239.031
557.553, 42234.320
558.035, 42163.059
558.517, 42101.129
558.999, 42121.398
559.481, 42178.070
559.964, 42216.910
560.446, 42223.941
560.928, 42214.840
561.410, 42181.602
561.892, 42138.891
562.374, 42111.570
562.856, 42114.020
563.338, 42121.262
563.820, 42125.039
564.303, 42127.719
564.785, 42147.469
565.267, 42197.980
565.749, 42241.801
566.231, 42262.230
566.713, 42258.461
567.195, 42239.789
567.677, 42202.590
568.159, 42163.059
568.642, 42124.781
569.124, 42093.551
569.606, 42109.172
570.088, 42192.480
570.570, 42282.031
571.052, 42301.730
571.534, 42270.559
572.016, 42233.250
572.498, 42191.539
572.981, 42165.719
573.463, 42182.020
573.945, 42230.020
574.427, 42266.910
574.909, 42267.480
575.391, 42261.410
575.873, 42259.441
576.356, 42260.051
576.838, 42278.711
577.320, 42330.621
577.802, 42386.281
578.284, 42428.738
578.766, 42466.570
579.248, 42453.809
579.730, 42362.578
580.212, 42259.141
580.695, 42273.039
581.177, 42402.270
581.659, 42474.031
582.141, 42410.051
582.623, 42290.629
583.105, 42267.129
583.587, 42325.359
584.069, 42391.000
584.552, 42416.910
585.034, 42432.180
585.516, 42479.699
585.998, 42558.730
586.480, 42599.539
586.962, 42520.762
587.444, 42421.090
587.926, 42375.488
588.408, 42427.020
588.891, 42460.340
589.373, 42440.930
589.855, 42408.070
590.337, 42404.371
590.819, 42449.320
591.301, 42479.898
591.783, 42481.930
592.265, 42469.078
592.747, 42482.250
593.230, 42525.172
593.712, 42552.379
594.194, 42538.262
594.676, 42496.609
595.158, 42464.000
595.640, 42440.359
596.122, 42423.840
596.604, 42406.602
597.086, 42398.910
597.569, 42422.551
598.051, 42483.910
598.533, 42531.949
599.015, 42522.520
599.497, 42493.379
599.979, 42480.191
600.461, 42508.441
600.943, 42526.691
601.426, 42519.941
601.908, 42501.148
602.390, 42489.578
602.872, 42486.398
603.354, 42488.621
603.836, 42497.051
604.318, 42510.109
604.800, 42520.180
605.282, 42526.512
605.765, 42536.148
606.247, 42545.051
606.729, 42560.109
607.211, 42629.512
607.693, 42751.949
608.175, 42831.672
608.657, 42739.648
609.140, 42583.781
609.622, 42511.230
610.104, 42562.930
610.586, 42618.301
611.068, 42607.000
611.550, 42564.961
612.032, 42530.410
612.514, 42499.309
612.996, 42491.559
613.479, 42524.660
613.961, 42580.039
614.443, 42621.219
614.925, 42642.828
615.407, 42661.410
615.889, 42682.820
616.371, 42704.172
616.853, 42708.070
617.335, 42692.371
617.818, 42681.469
618.300, 42696.871
618.782, 42727.578
619.264, 42734.578
619.746, 42717.488
620.228, 42717.059
620.710, 42808.559
621.192, 42915.160
621.674, 42934.320
622.157, 42819.219
622.639, 42709.820
623.121, 42663.859
623.603, 42657.449
624.085, 42663.660
624.567, 42676.289
625.049, 42705.352
625.531, 42767.590
626.013, 42841.602
626.496, 42875.352
626.978, 42853.059
627.460, 42841.711
627.942, 42869.828
628.424, 42920.750
628.906, 42918.070
629.388, 42861.930
629.870, 42820.172
630.353, 42848.238
630.835, 42915.031
631.317, 42975.730
631.799, 43027.820
632.281, 43053.570
632.763, 43013.559
633.245, 42957.129
633.727, 42931.398
634.209, 42955.191
634.692, 42978.590
635.174, 42999.211
635.656, 43007.730
636.138, 42992.102
636.620, 42922.828
637.102, 42882.219
637.584, 42881.711
638.067, 42908.852
638.549, 42943.641
639.031, 42988.031
639.513, 43023.750
639.995, 43040.301
640.477, 43048.398
640.959, 43068.641
641.441, 43101.590
641.923, 43150.930
642.406, 43245.961
642.888, 43341.828
643.370, 43391.660
643.852, 43395.051
644.334, 43375.930
644.816, 43332.828
645.298, 43280.301
645.780, 43224.379
646.263, 43156.250
646.745, 43115.199
647.227, 43109.391
647.709, 43124.309
648.191, 43154.648
648.673, 43212.801
649.155, 43239.000
649.637, 43224.820
650.119, 43184.559
650.602, 43115.621
651.084, 43027.648
651.566, 43000.852
652.048, 43082.879
652.530, 43196.961
653.012, 43251.199
653.494, 43255.250
653.976, 43238.430
654.458, 43179.000
654.941, 43134.570
655.423, 43155.238
655.905, 43229.121
656.387, 43278.430
656.869, 43267.660
657.351, 43246.840
657.833, 43228.570
658.315, 43210.910
658.797, 43229.961
659.280, 43304.840
659.762, 43375.539
660.244, 43399.359
660.726, 43377.648
661.208, 43324.309
661.690, 43232.230
662.172, 43164.430
662.654, 43209.352
663.136, 43322.660
663.619, 43420.379
664.101, 43485.672
664.583, 43525.480
665.065, 43535.641
665.547, 43525.609
666.029, 43508.398
666.511, 43475.551
666.994, 43449.660
667.476, 43433.211
667.958, 43427.051
668.440, 43433.609
668.922, 43451.449
669.404, 43486.602
669.886, 43545.590
670.368, 43621.840
670.850, 43689.859
671.333, 43749.699
671.815, 43798.422
672.297, 43829.090
672.779, 43849.051
673.261, 43863.859
673.743, 43876.051
674.225, 43912.738
674.707, 44002.469
675.190, 44116.410
675.672, 44241.570
676.154, 44384.270
676.636, 44490.230
677.118, 44496.270
677.600, 44494.789
678.082, 44554.941
678.564, 44712.609
679.046, 44844.000
679.529, 44932.570
680.011, 45019.629
680.493, 45172.781
680.975, 45388.102
681.457, 45568.238
681.939, 45686.109
682.421, 45783.379
682.903, 45933.012
683.385, 46108.820
683.868, 46251.129
684.350, 46269.020
684.832, 46307.328
685.314, 46492.328
685.796, 46768.672
686.278, 46973.910
686.760, 46997.648
687.242, 47020.109
687.724, 47092.211
688.207, 47208.301
688.689, 47323.262
689.171, 47440.340
689.653, 47547.039
690.135, 47645.141
690.617, 47730.051
691.099, 47764.590
691.581, 47748.309
692.063, 47722.930
692.546, 47729.289
693.028, 47743.141
693.510, 47724.969
693.992, 47667.738
694.474, 47612.680
694.956, 47592.160
695.438, 47578.230
695.920, 47547.172
696.403, 47488.211
696.885, 47425.539
697.367, 47363.270
697.849, 47295.801
698.331, 47218.398
698.813, 47132.160
699.295, 47028.059
699.777, 46899.270
700.260, 46763.621
700.742, 46642.109
701.224, 46535.289
701.706, 46449.148
702.188, 46403.809
702.670, 46352.211
703.152, 46244.801
703.634, 46095.211
704.117, 45931.719
704.599, 45714.191
705.081, 45537.609
705.563, 45471.711
706.045, 45489.551
706.527, 45436.730
707.009, 45271.199
707.491, 45104.211
707.973, 44972.000
708.456, 44870.859
708.938, 44786.469
709.420, 44721.531
709.902, 44645.570
710.384, 44516.090
710.866, 44367.109
711.348, 44286.672
711.830, 44272.000
712.312, 44252.609
712.795, 44161.891
713.277, 44060.398
713.759, 44000.941
714.241, 44000.250
714.723, 43991.090
715.205, 43956.391
715.687, 43911.789
716.169, 43862.539
716.651, 43797.910
717.134, 43768.000
717.616, 43785.160
718.098, 43809.340
718.580, 43792.969
719.062, 43741.449
719.544, 43680.840
720.026, 43609.660
720.508, 43554.430
720.990, 43557.461
721.473, 43592.250
721.955, 43617.238
722.437, 43619.840
722.919, 43609.781
723.401, 43583.539
723.883, 43548.250
724.365, 43517.488
724.847, 43490.281
725.330, 43469.180
725.812, 43452.770
726.294, 43443.750
726.776, 43454.551
727.258, 43485.801
727.740, 43511.852
728.222, 43526.949
728.704, 43527.672
729.187, 43499.770
729.669, 43450.379
730.151, 43405.031
730.633, 43378.270
731.115, 43360.359
731.597, 43337.398
732.079, 43313.328
732.561, 43321.180
733.044, 43406.410
733.526, 43484.930
734.008, 43531.359
734.490, 43545.840
734.972, 43534.520
735.454, 43490.910
735.936, 43450.789
736.418, 43441.441
736.900, 43454.602
737.383, 43466.148
737.865, 43475.230
738.347, 43475.570
738.829, 43460.039
739.311, 43435.141
739.793, 43403.602
740.275, 43363.051
740.757, 43333.352
741.239, 43300.391
741.722, 43296.090
742.204, 43351.691
742.686, 43516.891
743.168, 43587.949
743.650, 43537.820
744.132, 43453.539
744.614, 43424.629
745.096, 43445.129
745.578, 43480.211
746.061, 43529.129
746.543, 43567.262
747.025, 43564.039
747.507, 43535.359
747.989, 43500.852
748.471, 43443.102
748.953, 43422.559
749.435, 43493.371
749.917, 43601.891
750.400, 43675.828
750.882, 43711.129
751.364, 43711.090
751.846, 43657.172
752.328, 43589.230
752.810, 43498.484
753.292, 43516.637
753.774, 43531.289
754.257, 43602.570
754.739, 43577.547
755.221, 43602.711
755.703, 43624.910
756.185, 43546.770
756.667, 43603.148
757.149, 43666.129
757.631, 43682.840
758.114, 43704.730
758.596, 43780.871
759.078, 43793.547
759.560, 43799.176
760.042, 43807.754
760.524, 43823.590
761.006, 43839.215
761.488, 43861.953
761.971, 43887.609
762.453, 43912.770
762.935, 43933.160
763.417, 43911.211
763.899, 43955.020
764.381, 44000.129
764.863, 43998.461
765.345, 44001.859
765.827, 44054.559
766.310, 44151.871
766.792, 44200.469
767.274, 44160.781
767.756, 44124.648
768.238, 44129.059
768.720, 44170.301
769.202, 44202.801
769.684, 44226.090
770.166, 44250.230
770.649, 44285.230
771.131, 44324.320
771.613, 44352.602
772.095, 44370.750
772.577, 44391.980
773.059, 44439.609
773.541, 44480.270
774.023, 44478.180
774.505, 44417.969
774.988, 44419.441
775.470, 44524.922
775.952, 44640.012
776.434, 44709.762
776.916, 44732.039
777.398, 44763.340
777.880, 44804.020
778.362, 44847.609
778.844, 44888.000
779.327, 44927.691
779.809, 44972.020
780.291, 45021.910
780.773, 45070.930
781.255, 45106.789
781.737, 45146.148
782.219, 45206.281
782.701, 45307.801
783.184, 45370.879
783.666, 45368.422
784.148, 45364.801
784.630, 45425.730
785.112, 45551.621
785.594, 45619.988
786.076, 45618.961
786.558, 45600.191
787.041, 45609.070
787.523, 45637.301
788.005, 45671.020
788.487, 45708.129
788.969, 45751.320
789.451, 45810.660
789.933, 45872.172
790.415, 45921.391
790.898, 45947.531
791.380, 45984.949
791.862, 46042.699
792.344, 46098.762
792.826, 46129.789
793.308, 46136.949
793.790, 46138.680
794.272, 46134.961
794.754, 46138.301
795.237, 46156.531
795.719, 46192.270
796.201, 46256.570
796.683, 46372.578
797.165, 46462.891
797.647, 46479.078
798.129, 46464.699
798.611, 46464.461
799.093, 46473.070
799.576, 46515.988
800.058, 46608.430
800.540, 46707.461
801.022, 46742.941
801.504, 46728.680
801.986, 46748.070
802.468, 46824.801
802.950, 46907.289
803.432, 46940.148
803.915, 46949.039
804.397, 46966.211
804.879, 46991.000
805.361, 47040.121
805.843, 47141.270
806.325, 47255.648
806.807, 47340.590
807.289, 47387.539
807.771, 47435.820
808.254, 47489.289
808.736, 47546.109
809.218, 47592.461
809.700, 47639.262
810.182, 47723.039
810.664, 47861.020
811.146, 48016.270
811.628, 48183.379
812.111, 48344.590
812.593, 48477.219
813.075, 48514.699
813.557, 48601.129
814.039, 48687.250
814.521, 48873.109
815.003, 49404.441
815.485, 50341.238
815.968, 50818.621
816.450, 50614.969
816.932, 50199.609
817.414, 50125.422
817.896, 50309.500
818.378, 50598.180
818.860, 51009.090
819.342, 51384.180
819.825, 51654.469
820.307, 51842.012
820.789, 51972.148
821.271, 51979.711
821.753, 52068.469
822.235, 52267.500
822.717, 52527.578
823.199, 52792.180
823.681, 53058.270
824.164, 53323.551
824.646, 53589.340
825.128, 53837.879
825.610, 54038.180
826.092, 54211.309
826.574, 54394.172
827.056, 54591.430
827.538, 54804.859
828.020, 55062.539
828.503, 55319.840
828.985, 55519.520
829.467, 55646.141
829.949, 55788.480
830.431, 55962.840
830.913, 56135.262
831.395, 56262.051
831.877, 56350.461
832.359, 56413.738
832.842, 56450.660
833.324, 56479.520
833.806, 56512.289
834.288, 56544.051
834.770, 56568.980
835.252, 56607.320
835.734, 56604.371
836.216, 56550.230
836.698, 56466.141
837.181, 56366.590
837.663, 56251.078
838.145, 56171.078
838.627, 56142.262
839.109, 56097.801
839.591, 55941.070
840.073, 55731.871
840.555, 55562.660
841.038, 55471.859
841.520, 55371.469
842.002, 55224.672
842.484, 55059.270
842.966, 54902.301
843.448, 54763.250
843.930, 54604.891
844.412, 54429.199
844.894, 54228.090
845.377, 53966.699
845.859, 53674.301
846.341, 53436.180
846.823, 53269.301
847.305, 53114.570
847.787, 52940.379
848.269, 52752.328
848.752, 52554.039
849.234, 52352.480
849.716, 52122.070
850.198, 51832.828
850.680, 51556.461
851.162, 51360.930
851.644, 51244.039
852.126, 51082.680
852.608, 50866.898
853.091, 50681.078
853.573, 50661.961
854.055, 50681.281
854.537, 50569.648
855.019, 50295.191
855.501, 50013.211
855.983, 49726.238
856.465, 49491.930
856.947, 49359.629
857.430, 49346.949
857.912, 49246.539
858.394, 49041.930
858.876, 48830.309
859.358, 48690.512
859.840, 48597.551
860.322, 48505.828
860.804, 48412.480
861.286, 48303.219
861.769, 48147.980
862.251, 47993.551
862.733, 47870.859
863.215, 47786.000
863.697, 47703.379
864.179, 47628.031
864.661, 47545.719
865.143, 47447.340
865.625, 47335.871
866.108, 47232.891
866.590, 47137.578
867.072, 47035.930
867.554, 46910.172
868.036, 46782.359
868.518, 46666.000
869.000, 46563.629
869.482, 46482.719
869.965, 46433.680
870.447, 46400.859
870.929, 46393.969
871.411, 46399.180
871.893, 46349.449
872.375, 46244.520
872.857, 46112.480
873.339, 45930.578
873.821, 45763.340
874.304, 45730.910
874.786, 45790.250
875.268, 45822.039
875.750, 45760.430
876.232, 45681.262
876.714, 45588.180
877.196, 45499.148
877.679, 45463.988
878.161, 45504.980
878.643, 45499.762
879.125, 45402.109
879.607, 45272.281
880.089, 45209.281
880.571, 45198.391
881.053, 45202.430
881.535, 45226.059
882.018, 45233.422
882.500, 45183.871
882.982, 45113.680
883.464, 45085.828
883.946, 45145.891
884.428, 45144.949
884.910, 45051.730
885.392, 44927.031
885.875, 44852.270
886.357, 44820.609
886.839, 44801.160
887.321, 44787.730
887.803, 44785.828
888.285, 44813.520
888.767, 44848.039
889.249, 44866.770
889.731, 44875.039
890.214, 44838.590
890.696, 44718.000
891.178, 44608.289
891.660, 44612.840
892.142, 44721.238
892.624, 44759.512
893.106, 44714.320
893.588, 44657.059
894.070, 44656.141
894.553, 44671.410
895.035, 44653.488
895.517, 44591.820
895.999, 44553.289
896.481, 44559.441
896.963, 44585.941
897.445, 44637.180
897.927, 44710.930
898.409, 44695.500
898.892, 44586.398
899.374, 44505.020
899.856, 44582.871
900.338, 44706.430
900.820, 44719.641
901.302, 44634.969
901.784, 44547.289
902.266, 44466.699
902.748, 44420.340
903.231, 44432.801
903.713, 44485.609
904.195, 44486.879
904.677, 44427.250
905.159, 44395.090
905.641, 44443.809
906.123, 44514.719
906.606, 44498.531
907.088, 44426.461
907.570, 44377.641
908.052, 44390.230
908.534, 44424.359
909.016, 44494.859
909.498, 44568.309
909.980, 44585.020
910.462, 44529.219
910.945, 44484.371
911.427, 44467.578
911.909, 44457.461
912.391, 44415.781
912.873, 44357.660
913.355, 44318.039
913.837, 44305.730
914.319, 44311.988
914.802, 44351.059
915.284, 44395.750
915.766, 44420.020
916.248, 44421.512
916.730, 44402.828
917.212, 44355.359
917.694, 44315.961
918.176, 44332.180
918.658, 44381.859
919.141, 44409.539
919.623, 44410.078
920.105, 44405.602
920.587, 44397.430
921.069, 44398.359
921.551, 44431.000
922.033, 44499.570
922.515, 44503.191
922.997, 44416.750
923.480, 44340.320
923.962, 44343.078
924.444, 44393.398
924.926, 44387.629
925.408, 44336.379
925.890, 44293.371
926.372, 44283.570
926.854, 44295.148
927.336, 44339.711
927.819, 44403.109
928.301, 44425.000
928.783, 44384.488
929.265, 44358.340
929.747, 44370.340
930.229, 44400.039
930.711, 44403.469
931.193, 44389.059
931.676, 44388.012
932.158, 44432.262
932.640, 44454.090
933.122, 44388.789
933.604, 44288.359
934.086, 44224.559
934.568, 44202.852
935.050, 44222.641
935.532, 44307.988
936.015, 44379.109
936.497, 44306.789
936.979, 44145.840
937.461, 44070.711
937.943, 44108.461
938.425, 44174.129
938.907, 44243.371
939.390, 44296.520
939.872, 44310.371
940.354, 44278.340
940.836, 44254.961
941.318, 44238.891
941.800, 44235.809
942.282, 44252.270
942.764, 44284.230
943.246, 44329.012
943.729, 44381.250
944.211, 44409.379
944.693, 44371.980
945.175, 44327.551
945.657, 44306.660
946.139, 44306.738
946.621, 44309.789
947.103, 44319.762
947.585, 44321.199
948.068, 44310.699
948.550, 44288.461
949.032, 44236.211
949.514, 44172.219
949.996, 44148.871
950.478, 44202.602
950.960, 44269.391
951.442, 44348.328
951.924, 44409.602
952.407, 44413.578
952.889, 44338.750
953.371, 44273.238
953.853, 44221.621
954.335, 44181.148
954.817, 44147.180
955.299, 44123.328
955.781, 44120.551
956.263, 44141.090
956.746, 44164.801
957.228, 44191.680
957.710, 44209.680
958.192, 44209.840
958.674, 44192.398
959.156, 44168.430
959.638, 44133.520
960.120, 44119.109
960.603, 44161.328
961.085, 44225.621
961.567, 44256.879
962.049, 44257.551
962.531, 44237.441
963.013, 44170.359
963.495, 44118.520
963.977, 44114.949
964.459, 44134.559
964.942, 44119.730
965.424, 44065.172
965.906, 44026.160
966.388, 44011.609
966.870, 44026.680
967.352, 44119.730
967.834, 44232.250
968.317, 44267.211
968.799, 44148.480
969.281, 44073.109
969.763, 44107.922
970.245, 44173.789
970.727, 44223.051
971.209, 44256.070
971.691, 44238.941
972.173, 44168.660
972.656, 44096.641
973.138, 44042.270
973.620, 44021.891
974.102, 44077.859
974.584, 44204.500
975.066, 44275.520
975.548, 44232.238
976.030, 44184.770
976.513, 44168.719
976.995, 44171.711
977.477, 44134.500
977.959, 44068.102
978.441, 44056.090
978.923, 44194.539
979.405, 44313.500
979.887, 44235.070
980.369, 44060.051
980.852, 43963.980
981.334, 44008.039
981.816, 44056.891
982.298, 44113.691
982.780, 44152.789
983.262, 44118.852
983.744, 44041.789
984.226, 44034.020
984.708, 44116.859
985.191, 44174.859
985.673, 44092.871
986.155, 43992.230
986.637, 43967.391
987.119, 44022.801
987.601, 44066.879
988.083, 44097.699
988.565, 44125.941
989.047, 44167.141
989.530, 44203.840
990.012, 44190.320
990.494, 44139.711
990.976, 44097.891
991.458, 44100.629
991.940, 44095.930
992.422, 44046.762
992.904, 43989.609
993.386, 43997.680
993.869, 44078.949
994.351, 44128.340
994.833, 44122.551
995.315, 44103.980
995.797, 44129.590
996.279, 44168.102
996.761, 44177.141
997.244, 44141.121
997.726, 44104.512
998.208, 44070.980
998.690, 44043.121
999.172, 44019.840
999.654, 44002.750
1000.136, 44005.961
1000.618, 44029.090
1001.100, 44064.430
1001.583, 44141.199
1002.065, 44198.172
1002.547, 44164.859
1003.029, 44067.141
1003.511, 44028.961
1003.993, 44096.301
1004.475, 44126.551
1004.957, 44080.660
1005.439, 44002.309
1005.922, 43957.539
1006.404, 43943.129
1006.886, 43955.422
1007.368, 44007.871
1007.850, 44041.801
1008.332, 44013.391
1008.814, 43964.211
1009.296, 43928.129
1009.779, 43904.609
1010.261, 43904.051
1010.743, 43929.879
1011.225, 43955.949
1011.707, 43950.352
1012.189, 43940.328
1012.671, 43984.180
1013.153, 44068.469
1013.635, 44104.801
1014.118, 44011.230
1014.600, 43928.648
1015.082, 43884.301
1015.564, 43877.828
1016.046, 43937.000
1016.528, 44050.090
1017.010, 44083.270
1017.492, 43965.461
1017.974, 43847.289
1018.457, 43874.121
1018.939, 43963.238
1019.421, 44016.359
1019.903, 44001.871
1020.385, 43999.340
1020.867, 44009.039
1021.349, 44029.859
1021.831, 44083.500
1022.314, 44143.031
1022.796, 44113.070
1023.278, 44003.910
1023.760, 43927.500
1024.242, 43972.641
1024.724, 44030.602
1025.206, 44067.738
1025.688, 44077.469
1026.170, 44020.469
1026.653, 43887.449
1027.135, 43810.500
1027.617, 43839.898
1028.099, 43904.469
1028.581, 43918.949
1029.063, 43910.879
1029.545, 43920.969
1030.027, 43973.039
1030.510, 44011.422
1030.992, 44036.750
1031.474, 44041.461
1031.956, 43997.961
1032.438, 43922.770
1032.920, 43933.879
1033.402, 44026.289
1033.884, 44106.770
1034.366, 44123.051
1034.849, 44104.461
1035.331, 44046.859
1035.813, 43966.809
1036.295, 43930.898
1036.777, 43951.219
1037.259, 43965.172
1037.741, 43956.520
1038.223, 43938.262
1038.705, 43930.930
1039.188, 43926.980
1039.670, 43912.039
1040.152, 43876.289
1040.634, 43845.520
1041.116, 43803.840
1041.598, 43791.988
1042.080, 43861.309
1042.562, 44004.230
1043.045, 44044.691
1043.527, 43986.309
1044.009, 43922.789
1044.491, 43900.430
1044.973, 43907.320
1045.455, 43958.789
1045.937, 44034.840
1046.419, 44055.711
1046.901, 43993.949
1047.384, 43954.250
1047.866, 43960.430
1048.348, 43988.859
1048.830, 44021.031
1049.312, 44045.930
1049.794, 44031.570
1050.276, 43953.590
1050.758, 43909.891
1051.240, 43987.480
1051.723, 44057.289
1052.205, 44035.641
1052.687, 43930.289
1053.169, 43894.738
1053.651, 43925.922
1054.133, 43958.621
1054.615, 43942.230
1055.097, 43922.160
1055.580, 43939.840
1056.062, 43980.941
1056.544, 44008.410
1057.026, 44029.820
1057.508, 44007.148
1057.990, 43921.641
1058.472, 43826.980
1058.954, 43785.039
1059.437, 43789.012
1059.919, 43835.648
1060.401, 43930.531
1060.883, 44010.172
1061.365, 44053.039
1061.847, 44069.391
1062.329, 44058.129
1062.811, 44024.180
1063.293, 44003.289
1063.776, 43993.891
1064.258, 43973.531
1064.740, 43913.988
1065.222, 43860.109
1065.704, 43856.480
1066.186, 43879.891
1066.668, 43886.129
1067.150, 43858.949
1067.632, 43852.430
1068.115, 43873.352
1068.597, 43903.148
1069.079, 43929.430
1069.561, 43948.289
1070.043, 43954.090
1070.525, 43946.281
1071.007, 43923.051
1071.489, 43886.039
1071.972, 43824.879
1072.454, 43704.980
1072.936, 43572.180
1073.418, 43611.129
1073.900, 43797.359
1074.382, 43942.602
1074.864, 43972.320
1075.346, 43964.488
1075.828, 43954.199
1076.311, 43947.379
1076.793, 43954.270
1077.275, 43986.820
1077.757, 43987.590
1078.239, 43951.680
1078.721, 43911.891
1079.203, 43880.000
1079.685, 43868.711
1080.168, 43921.719
1080.650, 44021.359
1081.132, 44074.672
1081.614, 44000.270
1082.096, 43950.941
1082.578, 43960.301
1083.060, 43999.039
1083.542, 44011.500
1084.025, 44005.590
1084.507, 44021.191
1084.989, 44076.371
1085.471, 44100.180
1085.953, 44003.629
1086.435, 43899.070
1086.917, 43876.301
1087.399, 43935.820
1087.881, 43947.699
1088.364, 43909.191
1088.846, 43876.488
1089.328, 43892.191
1089.810, 43915.922
1090.292, 43903.270
1090.774, 43867.039
1091.256, 43832.121
1091.738, 43762.699
1092.220, 43787.449
1092.703, 43954.461
1093.185, 44118.801
1093.667, 44097.281
1094.149, 43962.590
1094.631, 43869.262
1095.113, 43830.211
1095.595, 43794.090
1096.077, 43704.621
1096.560, 43657.910
1097.042, 43704.512
1097.524, 43810.480
1098.006, 43870.441
1098.488, 43887.531
1098.970, 43887.121
1099.452, 43877.250
1099.934, 43851.969
1100.417, 43792.609
1100.899, 43723.949
1101.381, 43673.621
1101.863, 43644.680
1102.345, 43620.539
1102.827, 43601.660
1103.309, 43583.852
1103.791, 43551.961
1104.273, 43528.109
1104.755, 43552.141
1105.238, 43609.172
1105.720, 43645.762
1106.202, 43625.289
1106.684, 43628.172
1107.166, 43672.930
1107.648, 43728.379
1108.130, 43748.969
1108.612, 43746.461
1109.095, 43753.711
1109.577, 43776.762
1110.059, 43788.461
1110.541, 43762.430
1111.023, 43736.480
1111.505, 43728.871
1111.987, 43735.750
1112.469, 43743.262
1112.952, 43749.770
1113.434, 43737.840
1113.916, 43686.289
1114.398, 43640.051
1114.880, 43630.621
1115.362, 43643.762
1115.844, 43662.789
1116.326, 43690.891
1116.808, 43711.398
1117.291, 43725.109
1117.773, 43725.320
1118.255, 43688.059
1118.737, 43648.012
1119.219, 43655.781
1119.701, 43700.020
1120.183, 43724.879
1120.665, 43721.488
1121.147, 43696.711
1121.630, 43642.590
1122.112, 43585.629
1122.594, 43556.621
1123.076, 43555.398
1123.558, 43591.148
1124.040, 43671.051
1124.522, 43733.969
1125.004, 43756.020
1125.487, 43755.602
1125.969, 43733.629
1126.451, 43696.699
1126.933, 43666.160
1127.415, 43644.238
1127.897, 43645.422
1128.379, 43698.230
1128.861, 43738.230
1129.344, 43707.199
1129.826, 43659.449
1130.308, 43661.281
1130.790, 43726.121
1131.272, 43718.320
1131.754, 43632.320
1132.236, 43564.141
1132.718, 43612.809
1133.200, 43688.078
1133.682, 43719.359
1134.165, 43711.660
1134.647, 43693.629
1135.129, 43654.289
1135.611, 43655.961
1136.093, 43724.352
1136.575, 43785.539
1137.057, 43715.828
1137.539, 43599.578
1138.022, 43573.070
1138.504, 43666.461
1138.986, 43699.410
1139.468, 43616.910
1139.950, 43537.930
1140.432, 43507.578
1140.914, 43514.770
1141.396, 43544.570
1141.879, 43590.672
1142.361, 43637.672
1142.843, 43700.078
1143.325, 43723.910
1143.807, 43657.988
1144.289, 43589.441
1144.771, 43598.211
1145.253, 43671.379
1145.735, 43666.250
1146.218, 43591.039
1146.700, 43535.281
1147.182, 43561.621
1147.664, 43608.719
1148.146, 43670.461
1148.628, 43722.488
1149.110, 43708.500
1149.592, 43625.480
1150.074, 43769.203
1150.557, 43768.902
1151.039, 43714.270
1151.521, 43762.734
1152.003, 43767.145
1152.485, 43771.246
1152.967, 43711.738
1153.449, 43768.051
1153.931, 43767.520
1154.414, 43752.289
1154.896, 43726.988
1155.378, 43712.578
1155.860, 43767.852
1156.342, 43834.910
1156.824, 43825.891
1157.306, 43759.344
1157.788, 43758.879
1158.271, 43770.344
1158.753, 43802.996
1159.235, 43809.625
1159.717, 43767.012
1160.199, 43736.559
1160.681, 43736.156
1161.163, 43741.879
1161.645, 43748.906
1162.127, 43696.039
1162.609, 43761.559
1163.092, 43762.211
1163.574, 43687.879
1164.056, 43734.809
1164.538, 43721.840
1165.020, 43756.137
1165.502, 43761.070
1165.984, 43675.980
1166.466, 43714.398
1166.949, 43751.941
1167.431, 43755.844
1167.913, 43758.641
1168.395, 43756.508
1168.877, 43700.031
1169.359, 43688.031
1169.841, 43659.879
1170.323, 43608.180
1170.806, 43576.512
1171.288, 43600.609
1171.770, 43667.648
1172.252, 43677.531
1172.734, 43635.172
1173.216, 43590.762
1173.698, 43562.379
1174.180, 43542.602
1174.662, 43518.340
1175.145, 43506.840
1175.627, 43525.711
1176.109, 43577.660
1176.591, 43655.102
1177.073, 43759.480
1177.555, 43829.328
1178.037, 43785.129
1178.519, 43726.262
1179.001, 43750.648
1179.484, 43703.453
1179.966, 43810.461
1180.448, 43697.738
1180.930, 43661.430
1181.412, 43729.828
1181.894, 43811.699
1182.376, 43841.730
1182.858, 43823.551
1183.341, 43728.250
1183.823, 43567.789
1184.305, 43499.949
1184.787, 43556.828
1185.269, 43599.012
1185.751, 43583.891
1186.233, 43559.852
1186.715, 43602.109
1187.198, 43671.398
1187.680, 43709.520
1188.162, 43698.910
1188.644, 43702.262
1189.126, 43730.250
1189.608, 43747.070
1190.090, 43714.352
1190.572, 43683.301
1191.054, 43767.031
1191.536, 43922.750
1192.019, 44067.781
1192.501, 44249.578
1192.983, 44263.840
1193.465, 44038.441
1193.947, 43788.520
1194.429, 43685.559
1194.911, 43683.512
1195.393, 43683.090
1195.876, 43683.602
1196.358, 43689.551
1196.840, 43688.461
1197.322, 43720.398
1197.804, 43814.680
1198.286, 43903.449
1198.768, 43886.570
1199.250, 43799.090
1199.733, 43718.539
1200.215, 43655.020
1200.697, 43641.980
1201.179, 43769.391
1201.661, 43850.531
1202.143, 43812.691
1202.625, 43720.699
1203.107, 43692.270
1203.589, 43719.879
1204.072, 43799.238
1204.554, 43948.910
1205.036, 44028.621
1205.518, 43895.531
1206.000, 43764.180
1206.482, 43740.449
1206.964, 43788.730
1207.446, 43767.191
1207.928, 43694.199
1208.411, 43642.680
1208.893, 43635.250
1209.375, 43661.730
1209.857, 43756.828
1210.339, 43849.141
1210.821, 43881.789
1211.303, 43863.352
1211.785, 43883.340
1212.268, 43934.379
1212.750, 43967.711
1213.232, 43962.020
1213.714, 43927.461
1214.196, 43826.070
1214.678, 43730.121
1215.160, 43733.820
1215.642, 43827.129
1216.125, 43880.602
1216.607, 43887.648
1217.089, 43864.090
1217.571, 43752.840
1218.053, 43688.840
1218.535, 43779.711
1219.017, 43934.520
1219.499, 43976.859
1219.981, 43917.250
1220.464, 43870.879
1220.946, 43855.051
1221.428, 43850.148
1221.910, 43842.852
1222.392, 43844.020
1222.874, 43866.211
1223.356, 43899.988
1223.838, 43910.410
1224.320, 43899.422
1224.803, 43886.801
1225.285, 43879.211
1225.767, 43865.711
1226.249, 43798.328
1226.731, 43762.840
1227.213, 43847.102
1227.695, 44028.328
1228.177, 44049.930
1228.660, 43928.359
1229.142, 43814.988
1229.624, 43770.430
1230.106, 43757.871
1230.588, 43763.301
1231.070, 43786.590
1231.552, 43832.340
1232.034, 43901.859
1232.516, 43939.961
1232.999, 43948.219
1233.481, 43951.922
1233.963, 43982.250
1234.445, 43993.680
1234.927, 43932.422
1235.409, 43855.660
1235.891, 43842.520
1236.373, 43892.309
1236.855, 43906.129
1237.338, 43879.602
1237.820, 43853.430
1238.302, 43850.020
1238.784, 43860.551
1239.266, 43891.160
1239.748, 43927.238
1240.230, 43942.230
1240.712, 43937.379
1241.195, 43929.551
1241.677, 43920.191
1242.159, 43921.340
1242.641, 43963.531
1243.123, 43994.738
1243.605, 43984.430
1244.087, 43942.828
1244.569, 43887.762
1245.052, 43824.160
1245.534, 43794.359
1246.016, 43817.012
1246.498, 43835.531
1246.980, 43790.660
1247.462, 43755.930
1247.944, 43784.551
1248.426, 43859.238
1248.908, 43888.301
1249.391, 43878.801
1249.873, 43878.801
1250.355, 43917.340
1250.837, 43939.051
1251.319, 43887.441
1251.801, 43835.551
1252.283, 43840.910
1252.765, 43893.441
1253.247, 43912.910
1253.730, 43901.512
1254.212, 43871.238
1254.694, 43785.211
1255.176, 43739.102
1255.658, 43792.500
1256.140, 43873.609
1256.622, 43928.488
1257.104, 43958.898
1257.587, 43973.031
1258.069, 43973.691
1258.551, 43976.711
1259.033, 44002.660
1259.515, 44014.691
1259.997, 44001.852
1260.479, 43973.871
1260.961, 43929.488
1261.443, 43879.750
1261.926, 43871.680
1262.408, 43904.891
1262.890, 43938.621
1263.372, 43982.039
1263.854, 43979.711
1264.336, 43896.441
1264.818, 43797.730
##END=



