##NAMES=Tolovkite
##RRUFFID=R070110
##IDEAL CHEMISTRY=IrSbS
##LOCALITY=placer from Ust-Belsky Massif, Korjak Highand, Russia
##OWNER=RRUFF
##SOURCE=Michael Scott
##DESCRIPTION=Dark gray metallic crystal embedded in epoxy
##STATUS=The identification of this mineral is not yet confirmed.
##URL=rruff.info/R070110
160.3063, 948.5809
160.7885, 963.7242
161.2706, 979.6966
161.7527, 988.9117
162.2348, 983.8308
162.7169, 980.1547
163.1990, 988.6412
163.6811, 1005.791
164.1633, 1016.848
164.6454, 1006.480
165.1275, 990.0959
165.6096, 981.6782
166.0917, 991.9199
166.5738, 1006.300
167.0560, 1017.806
167.5381, 1026.397
168.0202, 1031.426
168.5023, 1026.797
168.9844, 1019.409
169.4665, 1018.779
169.9487, 1035.340
170.4308, 1056.427
170.9129, 1072.239
171.3950, 1082.398
171.8771, 1087.466
172.3592, 1085.424
172.8414, 1078.480
173.3235, 1071.332
173.8056, 1065.573
174.2877, 1061.139
174.7698, 1058.469
175.2519, 1058.007
175.7341, 1057.640
176.2162, 1053.330
176.6983, 1046.679
177.1804, 1043.167
177.6625, 1048.840
178.1446, 1059.457
178.6267, 1068.252
179.1089, 1075.461
179.5910, 1078.047
180.0731, 1068.039
180.5552, 1047.188
181.0373, 1028.146
181.5194, 1021.401
182.0016, 1023.877
182.4837, 1027.362
182.9658, 1029.869
183.4479, 1032.544
183.9300, 1038.413
184.4121, 1047.567
184.8943, 1056.082
185.3764, 1058.704
185.8585, 1056.936
186.3406, 1058.452
186.8227, 1068.365
187.3048, 1082.316
187.7870, 1087.140
188.2691, 1081.934
188.7512, 1073.714
189.2333, 1070.788
189.7154, 1072.592
190.1975, 1073.055
190.6796, 1069.316
191.1618, 1062.215
191.6439, 1055.658
192.1260, 1049.487
192.6081, 1044.529
193.0902, 1040.647
193.5723, 1037.793
194.0545, 1040.026
194.5366, 1053.425
195.0187, 1077.166
195.5008, 1089.061
195.9829, 1085.912
196.4650, 1075.994
196.9472, 1073.933
197.4293, 1080.439
197.9114, 1088.823
198.3935, 1096.802
198.8756, 1104.506
199.3577, 1107.504
199.8399, 1103.573
200.3220, 1096.774
200.8041, 1097.938
201.2862, 1108.980
201.7683, 1120.145
202.2504, 1125.817
202.7325, 1125.514
203.2147, 1122.589
203.6968, 1116.031
204.1789, 1107.584
204.6610, 1103.500
205.1431, 1104.277
205.6252, 1108.133
206.1074, 1114.645
206.5895, 1124.678
207.0716, 1133.273
207.5537, 1140.419
208.0358, 1145.658
208.5179, 1144.959
209.0001, 1135.666
209.4822, 1125.630
209.9643, 1121.617
210.4464, 1124.904
210.9285, 1130.223
211.4106, 1138.503
211.8928, 1149.247
212.3749, 1150.963
212.8570, 1139.175
213.3391, 1124.828
213.8212, 1119.895
214.3033, 1127.898
214.7855, 1135.416
215.2676, 1139.328
215.7497, 1139.534
216.2318, 1138.614
216.7139, 1135.884
217.1960, 1132.800
217.6781, 1130.667
218.1603, 1128.239
218.6424, 1129.887
219.1245, 1139.267
219.6066, 1158.786
220.0887, 1167.397
220.5708, 1159.803
221.0530, 1145.685
221.5351, 1139.247
222.0172, 1141.994
222.4993, 1149.860
222.9814, 1164.257
223.4635, 1190.271
223.9457, 1201.518
224.4278, 1192.069
224.9099, 1171.495
225.3920, 1156.526
225.8741, 1148.130
226.3562, 1144.163
226.8384, 1144.283
227.3205, 1149.598
227.8026, 1155.988
228.2847, 1164.475
228.7668, 1173.625
229.2489, 1180.169
229.7310, 1184.170
230.2132, 1185.384
230.6953, 1182.884
231.1774, 1173.188
231.6595, 1167.978
232.1416, 1168.689
232.6237, 1173.638
233.1059, 1178.686
233.5880, 1185.960
234.0701, 1190.404
234.5522, 1188.397
235.0343, 1173.059
235.5164, 1167.032
235.9986, 1176.151
236.4807, 1194.933
236.9628, 1203.237
237.4449, 1194.138
237.9270, 1183.871
238.4091, 1181.100
238.8913, 1189.684
239.3734, 1197.915
239.8555, 1205.407
240.3376, 1212.113
240.8197, 1218.199
241.3018, 1225.718
241.7840, 1229.982
242.2661, 1226.919
242.7482, 1209.653
243.2303, 1200.147
243.7124, 1204.287
244.1945, 1218.565
244.6767, 1222.107
245.1588, 1208.013
245.6409, 1191.836
246.1230, 1184.402
246.6051, 1191.521
247.0872, 1194.523
247.5694, 1188.743
248.0515, 1176.133
248.5336, 1172.112
249.0157, 1179.232
249.4978, 1191.713
249.9799, 1207.086
250.4621, 1230.501
250.9442, 1244.781
251.4263, 1244.850
251.9084, 1232.542
252.3905, 1224.965
252.8726, 1223.898
253.3548, 1225.281
253.8369, 1225.920
254.3190, 1224.863
254.8011, 1225.471
255.2832, 1229.285
255.7653, 1235.703
256.2474, 1238.308
256.7296, 1234.942
257.2117, 1230.682
257.6938, 1229.771
258.1759, 1233.680
258.6580, 1237.379
259.1401, 1240.648
259.6223, 1243.305
260.1044, 1243.085
260.5865, 1238.608
261.0686, 1233.267
261.5507, 1230.111
262.0328, 1230.295
262.5150, 1229.312
262.9971, 1225.583
263.4792, 1219.568
263.9613, 1216.895
264.4434, 1218.211
264.9255, 1221.741
265.4077, 1225.725
265.8898, 1229.446
266.3719, 1236.304
266.8540, 1248.686
267.3361, 1265.450
267.8182, 1276.142
268.3004, 1279.926
268.7825, 1279.061
269.2646, 1273.998
269.7467, 1262.899
270.2288, 1255.555
270.7109, 1254.813
271.1931, 1259.803
271.6752, 1264.468
272.1573, 1269.354
272.6394, 1272.732
273.1215, 1271.964
273.6036, 1265.860
274.0857, 1262.654
274.5678, 1265.798
275.0500, 1273.454
275.5321, 1272.355
276.0142, 1259.254
276.4963, 1246.886
276.9784, 1249.060
277.4605, 1267.505
277.9427, 1283.455
278.4248, 1292.802
278.9069, 1296.562
279.3890, 1299.710
279.8711, 1302.399
280.3532, 1303.968
280.8354, 1302.516
281.3175, 1297.861
281.7996, 1297.112
282.2817, 1304.545
282.7638, 1316.142
283.2459, 1315.222
283.7281, 1299.965
284.2102, 1283.444
284.6923, 1277.511
285.1744, 1281.735
285.6565, 1287.696
286.1386, 1294.231
286.6208, 1300.933
287.1029, 1307.325
287.5850, 1313.470
288.0671, 1318.509
288.5492, 1320.864
289.0313, 1321.017
289.5135, 1322.264
289.9956, 1325.174
290.4777, 1329.715
290.9598, 1337.064
291.4419, 1347.248
291.9240, 1355.808
292.4062, 1358.119
292.8883, 1355.517
293.3704, 1352.963
293.8525, 1351.669
294.3346, 1350.711
294.8167, 1346.698
295.2989, 1340.051
295.7810, 1336.895
296.2631, 1345.010
296.7452, 1360.221
297.2273, 1371.791
297.7094, 1377.912
298.1916, 1379.209
298.6737, 1374.384
299.1558, 1364.311
299.6379, 1354.738
300.1200, 1347.412
300.6021, 1343.483
301.0842, 1345.608
301.5663, 1355.605
302.0485, 1369.268
302.5306, 1385.512
303.0127, 1402.555
303.4948, 1413.620
303.9769, 1407.458
304.4590, 1394.983
304.9412, 1391.729
305.4233, 1403.266
305.9054, 1417.192
306.3875, 1423.999
306.8696, 1424.448
307.3517, 1420.788
307.8339, 1405.959
308.3160, 1391.655
308.7981, 1391.428
309.2802, 1411.373
309.7623, 1433.423
310.2444, 1447.451
310.7266, 1454.137
311.2087, 1455.453
311.6908, 1447.082
312.1729, 1436.887
312.6550, 1430.406
313.1371, 1428.551
313.6193, 1429.349
314.1014, 1434.083
314.5835, 1440.509
315.0656, 1444.873
315.5477, 1443.915
316.0298, 1441.943
316.5120, 1441.674
316.9941, 1444.002
317.4762, 1444.949
317.9583, 1440.459
318.4404, 1434.372
318.9225, 1431.918
319.4047, 1436.992
319.8868, 1443.704
320.3689, 1450.554
320.8510, 1457.716
321.3331, 1462.806
321.8152, 1463.368
322.2974, 1462.314
322.7795, 1462.769
323.2616, 1465.700
323.7437, 1469.740
324.2258, 1475.674
324.7079, 1483.882
325.1901, 1488.980
325.6721, 1487.720
326.1543, 1484.583
326.6364, 1483.290
327.1185, 1482.508
327.6006, 1485.314
328.0827, 1496.286
328.5648, 1515.312
329.0470, 1521.953
329.5291, 1504.784
330.0112, 1484.317
330.4933, 1474.957
330.9754, 1483.985
331.4576, 1492.887
331.9397, 1502.214
332.4218, 1510.832
332.9039, 1509.304
333.3860, 1489.786
333.8681, 1470.625
334.3503, 1464.321
334.8324, 1477.280
335.3145, 1485.895
335.7966, 1485.941
336.2787, 1481.245
336.7608, 1485.996
337.2430, 1505.053
337.7251, 1521.964
338.2072, 1526.063
338.6893, 1514.478
339.1714, 1508.011
339.6535, 1509.443
340.1357, 1514.388
340.6178, 1511.462
341.0999, 1498.609
341.5820, 1490.918
342.0641, 1500.428
342.5462, 1526.177
343.0284, 1538.765
343.5105, 1534.697
343.9926, 1524.906
344.4747, 1527.602
344.9568, 1542.116
345.4389, 1552.362
345.9211, 1547.441
346.4032, 1531.964
346.8853, 1524.170
347.3674, 1524.672
347.8495, 1528.793
348.3316, 1533.518
348.8138, 1538.099
349.2959, 1539.296
349.7780, 1531.173
350.2601, 1521.044
350.7422, 1524.300
351.2243, 1540.691
351.7064, 1556.287
352.1885, 1557.685
352.6707, 1550.344
353.1528, 1544.434
353.6349, 1545.232
354.1170, 1546.691
354.5991, 1539.862
355.0812, 1526.594
355.5634, 1518.241
356.0455, 1524.396
356.5276, 1538.319
357.0097, 1553.890
357.4918, 1574.432
357.9739, 1588.476
358.4561, 1582.699
358.9382, 1563.679
359.4203, 1550.521
359.9024, 1557.468
360.3845, 1569.410
360.8666, 1576.698
361.3488, 1577.086
361.8309, 1574.336
362.3130, 1564.183
362.7951, 1552.239
363.2772, 1548.873
363.7593, 1563.080
364.2415, 1580.841
364.7236, 1598.814
365.2057, 1619.139
365.6878, 1630.185
366.1699, 1621.414
366.6520, 1605.394
367.1342, 1597.643
367.6163, 1611.393
368.0984, 1620.517
368.5805, 1617.344
369.0626, 1600.018
369.5447, 1590.783
370.0269, 1595.121
370.5090, 1603.236
370.9911, 1606.621
371.4732, 1601.307
371.9553, 1598.710
372.4374, 1601.005
372.9196, 1607.548
373.4017, 1614.092
373.8838, 1622.097
374.3659, 1627.614
374.8480, 1627.233
375.3301, 1619.536
375.8123, 1612.224
376.2944, 1605.194
376.7765, 1599.447
377.2586, 1598.842
377.7407, 1604.507
378.2228, 1608.907
378.7049, 1606.247
379.1870, 1597.193
379.6692, 1593.311
380.1513, 1596.177
380.6334, 1601.285
381.1155, 1601.354
381.5976, 1596.944
382.0797, 1593.809
382.5619, 1597.861
383.0440, 1604.853
383.5261, 1601.022
384.0082, 1585.615
384.4903, 1570.422
384.9724, 1569.138
385.4546, 1576.724
385.9367, 1580.902
386.4188, 1573.975
386.9009, 1564.437
387.3830, 1562.128
387.8651, 1566.348
388.3473, 1571.453
388.8294, 1573.962
389.3115, 1575.228
389.7936, 1576.774
390.2757, 1579.349
390.7578, 1581.663
391.2400, 1582.847
391.7221, 1583.140
392.2042, 1583.196
392.6863, 1585.949
393.1684, 1586.670
393.6505, 1580.857
394.1327, 1563.745
394.6148, 1552.303
395.0969, 1557.289
395.5790, 1569.692
396.0611, 1576.341
396.5432, 1566.427
397.0254, 1558.416
397.5075, 1559.909
397.9896, 1573.892
398.4717, 1579.976
398.9538, 1567.732
399.4359, 1553.398
399.9181, 1550.602
400.4002, 1567.041
400.8823, 1583.586
401.3644, 1600.965
401.8465, 1617.667
402.3286, 1620.913
402.8108, 1604.135
403.2928, 1584.396
403.7750, 1570.837
404.2571, 1563.065
404.7392, 1564.311
405.2213, 1578.185
405.7034, 1597.963
406.1855, 1609.501
406.6677, 1612.188
407.1498, 1610.627
407.6319, 1605.449
408.1140, 1597.171
408.5961, 1590.443
409.0782, 1585.185
409.5604, 1581.938
410.0425, 1583.867
410.5246, 1589.499
411.0067, 1590.630
411.4888, 1580.776
411.9709, 1566.518
412.4531, 1560.358
412.9352, 1561.953
413.4173, 1564.156
413.8994, 1557.675
414.3815, 1548.929
414.8636, 1549.463
415.3458, 1568.147
415.8279, 1586.691
416.3100, 1587.961
416.7921, 1576.505
417.2742, 1566.167
417.7563, 1564.756
418.2385, 1566.670
418.7206, 1568.390
419.2027, 1569.710
419.6848, 1569.745
420.1669, 1567.686
420.6490, 1564.278
421.1312, 1560.501
421.6133, 1550.154
422.0954, 1545.705
422.5775, 1555.734
423.0596, 1582.005
423.5417, 1597.145
424.0239, 1587.790
424.5060, 1573.448
424.9881, 1567.698
425.4702, 1577.161
425.9523, 1585.201
426.4344, 1590.898
426.9166, 1594.193
427.3987, 1594.588
427.8808, 1590.409
428.3629, 1586.398
428.8450, 1585.215
429.3271, 1587.620
429.8092, 1588.586
430.2914, 1587.379
430.7735, 1585.785
431.2556, 1588.495
431.7377, 1596.014
432.2198, 1597.870
432.7019, 1586.296
433.1841, 1566.034
433.6662, 1556.874
434.1483, 1559.308
434.6304, 1566.110
435.1125, 1572.790
435.5946, 1578.673
436.0768, 1581.049
436.5589, 1576.976
437.0410, 1572.748
437.5231, 1578.929
438.0052, 1592.648
438.4873, 1602.572
438.9695, 1597.503
439.4516, 1587.628
439.9337, 1583.962
440.4158, 1589.761
440.8979, 1593.200
441.3800, 1584.377
441.8622, 1569.728
442.3443, 1558.376
442.8264, 1552.884
443.3085, 1551.931
443.7906, 1558.199
444.2727, 1571.532
444.7549, 1579.001
445.2370, 1572.386
445.7191, 1562.638
446.2012, 1557.166
446.6833, 1562.912
447.1654, 1564.287
447.6476, 1556.036
448.1297, 1543.409
448.6118, 1542.470
449.0939, 1562.305
449.5760, 1579.023
450.0581, 1581.945
450.5403, 1568.395
451.0224, 1559.282
451.5045, 1555.844
451.9866, 1554.626
452.4687, 1550.121
452.9508, 1541.747
453.4330, 1538.751
453.9151, 1545.072
454.3972, 1557.844
454.8793, 1570.076
455.3614, 1581.922
455.8435, 1588.119
456.3256, 1581.220
456.8077, 1565.546
457.2899, 1551.451
457.7720, 1539.325
458.2541, 1532.308
458.7362, 1538.208
459.2183, 1552.227
459.7004, 1562.415
460.1826, 1560.327
460.6647, 1553.975
461.1468, 1550.328
461.6289, 1549.797
462.1110, 1546.872
462.5931, 1532.093
463.0753, 1516.816
463.5574, 1511.370
464.0395, 1530.776
464.5216, 1546.566
465.0037, 1551.797
465.4858, 1548.186
465.9680, 1541.464
466.4501, 1520.829
466.9322, 1507.640
467.4143, 1512.155
467.8964, 1544.202
468.3785, 1563.134
468.8607, 1564.012
469.3428, 1555.903
469.8249, 1549.151
470.3070, 1543.959
470.7891, 1539.356
471.2712, 1533.789
471.7534, 1528.625
472.2355, 1534.708
472.7176, 1555.108
473.1997, 1569.800
473.6818, 1557.425
474.1639, 1522.693
474.6461, 1503.304
475.1282, 1505.081
475.6103, 1516.596
476.0924, 1524.449
476.5745, 1529.156
477.0566, 1532.637
477.5388, 1534.418
478.0209, 1536.202
478.5030, 1541.489
478.9851, 1550.029
479.4672, 1555.890
479.9493, 1554.545
480.4315, 1548.856
480.9136, 1541.413
481.3957, 1530.618
481.8778, 1521.510
482.3599, 1514.690
482.8420, 1511.088
483.3241, 1513.141
483.8062, 1530.730
484.2884, 1545.759
484.7705, 1550.934
485.2526, 1543.845
485.7347, 1535.611
486.2168, 1522.932
486.6989, 1511.615
487.1811, 1507.472
487.6632, 1515.616
488.1453, 1518.519
488.6274, 1510.544
489.1095, 1496.692
489.5916, 1496.803
490.0738, 1514.565
490.5559, 1530.261
491.0380, 1530.716
491.5201, 1517.733
492.0022, 1510.214
492.4843, 1509.425
492.9665, 1510.895
493.4486, 1508.819
493.9307, 1504.442
494.4128, 1502.550
494.8949, 1507.088
495.3770, 1512.469
495.8592, 1511.820
496.3413, 1505.885
496.8234, 1498.274
497.3055, 1488.248
497.7876, 1479.202
498.2697, 1474.329
498.7519, 1474.305
499.2340, 1477.477
499.7161, 1486.512
500.1982, 1497.385
500.6803, 1504.743
501.1624, 1504.764
501.6446, 1503.926
502.1267, 1503.722
502.6088, 1504.104
503.0909, 1503.846
503.5730, 1502.398
504.0551, 1500.912
504.5373, 1500.004
505.0194, 1499.840
505.5015, 1499.925
505.9836, 1500.769
506.4657, 1501.226
506.9478, 1498.870
507.4299, 1493.310
507.9120, 1488.927
508.3942, 1488.018
508.8763, 1489.075
509.3584, 1485.870
509.8405, 1478.382
510.3226, 1472.906
510.8047, 1475.781
511.2869, 1483.756
511.7690, 1490.874
512.2511, 1496.181
512.7332, 1500.272
513.2153, 1503.763
513.6974, 1506.417
514.1796, 1507.754
514.6617, 1509.680
515.1438, 1508.441
515.6259, 1499.667
516.1080, 1483.881
516.5901, 1471.591
517.0723, 1462.055
517.5544, 1459.331
518.0365, 1466.881
518.5186, 1501.641
519.0007, 1519.964
519.4828, 1514.193
519.9650, 1495.168
520.4471, 1479.894
520.9292, 1466.637
521.4113, 1461.423
521.8934, 1469.631
522.3755, 1488.631
522.8577, 1494.532
523.3398, 1485.541
523.8219, 1472.752
524.3040, 1463.650
524.7861, 1458.006
525.2682, 1453.597
525.7504, 1449.697
526.2325, 1448.566
526.7146, 1455.280
527.1967, 1467.274
527.6788, 1477.224
528.1609, 1479.122
528.6431, 1479.621
529.1252, 1486.436
529.6073, 1498.486
530.0894, 1507.174
530.5715, 1504.364
531.0536, 1499.173
531.5358, 1498.848
532.0179, 1508.437
532.5000, 1514.143
532.9821, 1510.558
533.4642, 1502.304
533.9464, 1496.244
534.4285, 1494.116
534.9106, 1491.907
535.3927, 1488.064
535.8748, 1483.190
536.3569, 1483.333
536.8391, 1491.824
537.3212, 1497.225
537.8033, 1488.445
538.2854, 1465.427
538.7675, 1455.859
539.2496, 1463.128
539.7318, 1476.926
540.2139, 1485.846
540.6960, 1490.304
541.1781, 1492.325
541.6602, 1492.227
542.1423, 1490.389
542.6245, 1486.281
543.1066, 1480.473
543.5887, 1475.501
544.0708, 1470.505
544.5529, 1468.388
545.0350, 1473.765
545.5172, 1489.561
545.9993, 1499.575
546.4813, 1490.626
546.9634, 1476.659
547.4456, 1471.774
547.9277, 1491.582
548.4098, 1504.116
548.8919, 1503.006
549.3740, 1492.134
549.8561, 1484.587
550.3383, 1480.370
550.8204, 1479.368
551.3025, 1482.068
551.7846, 1488.518
552.2667, 1496.623
552.7488, 1507.587
553.2310, 1515.473
553.7131, 1510.323
554.1952, 1495.444
554.6773, 1488.870
555.1594, 1497.188
555.6415, 1508.562
556.1237, 1505.212
556.6058, 1491.812
557.0879, 1481.807
557.5700, 1485.124
558.0521, 1491.827
558.5342, 1495.319
559.0164, 1495.345
559.4985, 1492.781
559.9806, 1483.792
560.4627, 1475.073
560.9448, 1471.626
561.4269, 1480.301
561.9091, 1483.851
562.3912, 1475.053
562.8733, 1463.395
563.3554, 1464.486
563.8375, 1487.813
564.3196, 1502.810
564.8018, 1499.481
565.2839, 1482.188
565.7660, 1472.514
566.2481, 1470.556
566.7302, 1474.984
567.2123, 1491.369
567.6945, 1514.676
568.1766, 1520.653
568.6587, 1506.181
569.1408, 1487.828
569.6229, 1482.275
570.1050, 1484.224
570.5872, 1483.598
571.0693, 1473.255
571.5514, 1464.570
572.0335, 1466.898
572.5156, 1477.045
572.9977, 1486.242
573.4799, 1493.683
573.9620, 1497.761
574.4441, 1496.781
574.9262, 1489.760
575.4083, 1484.320
575.8904, 1480.472
576.3726, 1478.382
576.8547, 1478.143
577.3368, 1479.753
577.8189, 1483.661
578.3010, 1491.046
578.7831, 1499.128
579.2653, 1502.665
579.7474, 1501.602
580.2295, 1500.892
580.7116, 1502.775
581.1937, 1505.778
581.6758, 1507.602
582.1580, 1508.070
582.6401, 1505.783
583.1222, 1496.647
583.6043, 1485.872
584.0864, 1479.661
584.5685, 1479.315
585.0507, 1479.839
585.5328, 1478.967
586.0149, 1477.601
586.4970, 1476.664
586.9791, 1475.768
587.4612, 1476.004
587.9434, 1477.098
588.4255, 1479.470
588.9076, 1484.771
589.3897, 1496.267
589.8718, 1504.641
590.3539, 1506.677
590.8361, 1502.642
591.3182, 1494.940
591.8003, 1482.010
592.2824, 1473.055
592.7645, 1479.770
593.2466, 1497.696
593.7288, 1506.655
594.2109, 1502.660
594.6930, 1497.353
595.1751, 1507.941
595.6572, 1525.581
596.1393, 1533.471
596.6215, 1514.883
597.1036, 1495.276
597.5857, 1490.170
598.0677, 1495.984
598.5499, 1500.794
599.0320, 1496.201
599.5141, 1494.302
599.9962, 1504.206
600.4783, 1529.786
600.9604, 1537.420
601.4426, 1514.547
601.9247, 1489.217
602.4068, 1485.698
602.8889, 1509.679
603.3710, 1521.918
603.8531, 1517.019
604.3353, 1503.799
604.8174, 1493.444
605.2995, 1486.292
605.7816, 1486.260
606.2637, 1498.995
606.7458, 1515.562
607.2280, 1522.748
607.7101, 1522.203
608.1922, 1520.875
608.6743, 1523.338
609.1564, 1526.026
609.6385, 1526.331
610.1207, 1523.869
610.6028, 1520.413
611.0849, 1513.541
611.5670, 1507.622
612.0491, 1506.311
612.5313, 1513.636
613.0134, 1518.823
613.4955, 1522.373
613.9776, 1523.236
614.4597, 1518.163
614.9418, 1505.432
615.4240, 1496.104
615.9061, 1493.455
616.3882, 1496.253
616.8703, 1503.913
617.3524, 1515.760
617.8345, 1523.489
618.3167, 1516.368
618.7988, 1504.371
619.2809, 1499.702
619.7630, 1498.069
620.2451, 1512.311
620.7272, 1521.317
621.2094, 1525.369
621.6915, 1509.625
622.1736, 1519.442
622.6557, 1519.015
623.1378, 1518.169
623.6199, 1531.583
624.1021, 1518.719
624.5842, 1531.908
625.0663, 1534.696
625.5484, 1542.245
626.0305, 1533.490
626.5126, 1534.971
626.9948, 1534.710
627.4769, 1534.812
627.9590, 1537.590
628.4411, 1541.596
628.9232, 1542.098
629.4053, 1539.039
629.8875, 1534.535
630.3696, 1527.089
630.8517, 1520.545
631.3338, 1520.498
631.8159, 1530.269
632.2980, 1539.781
632.7802, 1543.032
633.2623, 1543.871
633.7444, 1547.222
634.2265, 1563.957
634.7086, 1570.679
635.1907, 1557.706
635.6729, 1533.460
636.1550, 1524.032
636.6371, 1534.595
637.1192, 1545.391
637.6013, 1548.992
638.0834, 1546.306
638.5656, 1541.442
639.0477, 1534.232
639.5298, 1528.977
640.0119, 1528.689
640.4940, 1532.695
640.9761, 1541.609
641.4583, 1556.448
641.9404, 1568.268
642.4225, 1568.009
642.9046, 1562.168
643.3867, 1558.329
643.8688, 1561.632
644.3510, 1563.123
644.8331, 1557.758
645.3152, 1549.697
645.7973, 1548.187
646.2794, 1559.492
646.7615, 1566.337
647.2437, 1562.647
647.7258, 1551.240
648.2079, 1547.211
648.6900, 1551.223
649.1721, 1557.356
649.6542, 1564.481
650.1363, 1570.942
650.6184, 1569.893
651.1005, 1561.029
651.5826, 1552.752
652.0648, 1550.409
652.5469, 1553.132
653.0290, 1561.594
653.5111, 1580.045
653.9932, 1592.713
654.4753, 1589.911
654.9575, 1578.984
655.4396, 1569.478
655.9217, 1561.333
656.4038, 1556.346
656.8859, 1555.352
657.3680, 1557.431
657.8502, 1560.303
658.3323, 1564.188
658.8144, 1567.853
659.2965, 1569.948
659.7786, 1571.730
660.2607, 1580.545
660.7429, 1595.757
661.2250, 1605.432
661.7071, 1596.992
662.1892, 1580.049
662.6713, 1566.128
663.1534, 1556.115
663.6356, 1550.906
664.1177, 1553.656
664.5998, 1559.938
665.0819, 1565.875
665.5640, 1569.956
666.0461, 1575.386
666.5283, 1586.050
667.0104, 1595.839
667.4925, 1594.636
667.9746, 1576.926
668.4567, 1568.019
668.9388, 1575.703
669.4210, 1591.777
669.9031, 1595.966
670.3852, 1589.306
670.8673, 1584.099
671.3494, 1588.775
671.8315, 1597.029
672.3137, 1600.299
672.7958, 1599.102
673.2779, 1596.800
673.7600, 1593.804
674.2421, 1591.488
674.7242, 1591.034
675.2064, 1592.969
675.6885, 1594.439
676.1706, 1597.774
676.6527, 1598.328
677.1348, 1591.858
677.6169, 1573.922
678.0991, 1562.872
678.5812, 1560.099
679.0633, 1562.769
679.5454, 1568.109
680.0275, 1575.931
680.5096, 1584.863
680.9918, 1596.156
681.4739, 1605.545
681.9560, 1605.455
682.4381, 1599.156
682.9202, 1594.499
683.4023, 1596.583
683.8845, 1599.856
684.3666, 1601.561
684.8487, 1601.907
685.3308, 1602.663
685.8129, 1605.161
686.2950, 1607.048
686.7772, 1607.979
687.2593, 1608.012
687.7414, 1604.013
688.2235, 1594.110
688.7056, 1585.838
689.1877, 1587.064
689.6699, 1595.704
690.1520, 1598.670
690.6341, 1594.624
691.1162, 1589.546
691.5983, 1587.096
692.0804, 1587.858
692.5626, 1594.172
693.0447, 1612.879
693.5268, 1623.830
694.0089, 1610.448
694.4910, 1586.347
694.9731, 1571.622
695.4553, 1574.575
695.9374, 1579.615
696.4195, 1585.067
696.9016, 1591.504
697.3837, 1602.618
697.8658, 1620.507
698.3480, 1630.304
698.8301, 1622.475
699.3122, 1604.795
699.7943, 1599.631
700.2764, 1605.481
700.7585, 1610.393
701.2407, 1603.650
701.7228, 1594.208
702.2048, 1590.664
702.6870, 1593.493
703.1691, 1598.645
703.6512, 1609.516
704.1333, 1618.586
704.6154, 1620.193
705.0975, 1610.893
705.5797, 1604.208
706.0618, 1600.725
706.5439, 1598.957
707.0260, 1598.178
707.5081, 1598.477
707.9902, 1595.553
708.4724, 1587.484
708.9545, 1580.588
709.4366, 1585.061
709.9187, 1597.165
710.4008, 1608.421
710.8829, 1620.306
711.3651, 1624.336
711.8472, 1604.916
712.3293, 1574.306
712.8114, 1558.129
713.2935, 1582.459
713.7756, 1599.697
714.2578, 1594.889
714.7399, 1574.090
715.2220, 1563.905
715.7041, 1566.964
716.1862, 1572.622
716.6683, 1575.606
717.1505, 1577.613
717.6326, 1590.930
718.1147, 1614.674
718.5968, 1629.832
719.0789, 1612.315
719.5610, 1583.821
720.0432, 1571.316
720.5253, 1577.401
721.0074, 1587.635
721.4895, 1603.073
721.9716, 1615.013
722.4537, 1615.814
722.9359, 1597.517
723.4180, 1586.068
723.9001, 1585.086
724.3822, 1586.833
724.8643, 1584.063
725.3464, 1576.678
725.8286, 1563.839
726.3107, 1541.815
726.7928, 1525.290
727.2749, 1543.698
727.7570, 1583.502
728.2391, 1608.391
728.7213, 1600.750
729.2034, 1585.036
729.6855, 1576.301
730.1676, 1571.267
730.6497, 1563.840
731.1318, 1545.356
731.6140, 1532.806
732.0961, 1531.347
732.5782, 1538.006
733.0603, 1543.209
733.5424, 1546.865
734.0245, 1549.360
734.5067, 1550.599
734.9888, 1550.885
735.4709, 1552.084
735.9530, 1553.868
736.4351, 1553.138
736.9172, 1544.024
737.3994, 1533.920
737.8815, 1530.917
738.3636, 1535.212
738.8457, 1540.407
739.3278, 1548.776
739.8099, 1553.483
740.2921, 1547.842
740.7742, 1527.372
741.2563, 1521.567
741.7384, 1537.888
742.2205, 1555.348
742.7026, 1554.647
743.1848, 1537.150
743.6669, 1525.861
744.1490, 1523.023
744.6311, 1522.328
745.1132, 1515.037
745.5953, 1506.264
746.0775, 1505.829
746.5596, 1520.951
747.0417, 1531.107
747.5238, 1519.970
748.0059, 1500.878
748.4880, 1490.691
748.9702, 1498.001
749.4523, 1503.769
749.9344, 1508.419
750.4165, 1509.567
750.8986, 1499.669
751.3807, 1477.776
751.8629, 1464.230
752.3450, 1466.744
752.8271, 1476.216
753.3092, 1479.486
753.7913, 1477.722
754.2734, 1474.178
754.7555, 1467.420
755.2376, 1462.108
755.7197, 1460.045
756.2018, 1461.380
756.6840, 1466.590
757.1661, 1484.672
757.6482, 1495.606
758.1303, 1491.804
758.6124, 1476.015
759.0945, 1465.508
759.5767, 1460.791
760.0588, 1458.927
760.5409, 1459.448
761.0230, 1461.479
761.5051, 1463.102
761.9872, 1464.308
762.4694, 1465.097
762.9515, 1466.008
763.4336, 1466.098
763.9157, 1464.791
764.3978, 1462.056
764.8799, 1457.572
765.3621, 1448.161
765.8442, 1439.879
766.3263, 1436.111
766.8084, 1437.586
767.2905, 1438.566
767.7726, 1439.328
768.2548, 1438.438
768.7369, 1434.267
769.2190, 1427.429
769.7011, 1417.868
770.1832, 1404.808
770.6653, 1396.834
771.1475, 1405.805
771.6296, 1420.171
772.1117, 1427.831
772.5938, 1422.199
773.0759, 1419.365
773.5580, 1425.164
774.0402, 1432.054
774.5223, 1432.794
775.0044, 1426.198
775.4865, 1419.135
775.9686, 1412.237
776.4507, 1404.953
776.9329, 1393.418
777.4150, 1380.650
777.8971, 1377.391
778.3792, 1391.300
778.8613, 1404.044
779.3434, 1396.179
779.8256, 1379.514
780.3077, 1371.890
780.7898, 1388.883
781.2719, 1401.049
781.7540, 1400.195
782.2361, 1394.382
782.7183, 1398.944
783.2004, 1405.601
783.6825, 1407.021
784.1646, 1403.486
784.6467, 1380.156
785.1288, 1382.389
785.6110, 1374.375
786.0931, 1365.944
786.5752, 1371.773
787.0573, 1351.323
787.5394, 1357.092
788.0215, 1373.827
788.5037, 1385.500
788.9858, 1387.902
789.4679, 1385.092
789.9500, 1375.335
790.4321, 1361.450
790.9142, 1355.203
791.3964, 1358.001
791.8785, 1357.628
792.3606, 1345.409
792.8427, 1329.182
793.3248, 1325.886
793.8069, 1333.468
794.2891, 1343.145
794.7712, 1353.166
795.2533, 1360.969
795.7354, 1364.720
796.2175, 1364.555
796.6996, 1362.139
797.1818, 1357.426
797.6639, 1350.755
798.1460, 1340.589
798.6281, 1327.972
799.1102, 1321.958
799.5923, 1322.740
800.0745, 1326.901
800.5566, 1335.129
801.0387, 1344.158
801.5208, 1349.071
802.0029, 1349.810
802.4850, 1346.898
802.9672, 1336.724
803.4493, 1326.230
803.9314, 1320.134
804.4135, 1319.263
804.8956, 1315.615
805.3777, 1306.729
805.8599, 1299.414
806.3419, 1297.626
806.8240, 1301.004
807.3062, 1305.011
807.7883, 1309.650
808.2704, 1314.810
808.7525, 1325.614
809.2346, 1334.031
809.7167, 1326.321
810.1989, 1301.517
810.6810, 1281.427
811.1631, 1276.062
811.6452, 1277.464
812.1273, 1282.293
812.6094, 1291.524
813.0916, 1295.393
813.5737, 1292.037
814.0558, 1288.375
814.5379, 1291.962
815.0200, 1300.099
815.5021, 1296.805
815.9843, 1281.331
816.4664, 1268.881
816.9485, 1276.944
817.4306, 1290.052
817.9127, 1291.844
818.3948, 1278.011
818.8770, 1268.364
819.3591, 1271.531
819.8412, 1276.376
820.3233, 1276.620
820.8054, 1271.243
821.2875, 1268.662
821.7697, 1269.427
822.2518, 1270.134
822.7339, 1266.609
823.2160, 1261.045
823.6981, 1257.088
824.1802, 1254.915
824.6624, 1258.766
825.1445, 1285.271
825.6266, 1309.427
826.1087, 1307.767
826.5908, 1262.748
827.0729, 1240.124
827.5551, 1252.475
828.0372, 1269.515
828.5193, 1265.712
829.0014, 1242.211
829.4835, 1232.657
829.9656, 1239.127
830.4478, 1248.519
830.9299, 1249.265
831.4120, 1245.848
831.8941, 1243.629
832.3762, 1243.188
832.8583, 1244.911
833.3405, 1253.912
833.8226, 1261.164
834.3047, 1259.550
834.7868, 1245.614
835.2689, 1238.656
835.7510, 1240.406
836.2332, 1243.656
836.7153, 1241.229
837.1974, 1235.234
837.6795, 1231.216
838.1616, 1229.586
838.6437, 1232.378
839.1259, 1248.302
839.6080, 1264.498
840.0901, 1268.917
840.5722, 1256.521
841.0543, 1246.259
841.5364, 1239.286
842.0186, 1234.892
842.5007, 1232.716
842.9828, 1232.771
843.4649, 1235.253
843.9470, 1240.341
844.4291, 1245.708
844.9113, 1252.051
845.3934, 1256.161
845.8755, 1251.396
846.3576, 1236.330
846.8397, 1224.711
847.3218, 1225.146
847.8040, 1228.298
848.2861, 1227.918
848.7682, 1223.031
849.2503, 1221.222
849.7324, 1222.994
850.2145, 1226.230
850.6967, 1231.675
851.1788, 1237.202
851.6609, 1233.872
852.1430, 1221.734
852.6251, 1211.686
853.1072, 1211.731
853.5894, 1216.414
854.0715, 1222.204
854.5536, 1228.849
855.0357, 1235.833
855.5178, 1247.506
855.9999, 1252.982
856.4821, 1243.007
856.9642, 1219.099
857.4463, 1210.120
857.9283, 1216.199
858.4105, 1225.018
858.8926, 1230.023
859.3747, 1231.756
859.8568, 1228.848
860.3389, 1221.873
860.8210, 1218.307
861.3032, 1224.856
861.7853, 1231.320
862.2674, 1232.362
862.7495, 1228.501
863.2316, 1230.609
863.7137, 1240.503
864.1959, 1246.139
864.6780, 1236.424
865.1601, 1219.250
865.6422, 1214.515
866.1243, 1219.717
866.6064, 1222.526
867.0886, 1210.339
867.5707, 1199.438
868.0528, 1201.374
868.5349, 1214.572
869.0170, 1220.160
869.4991, 1214.109
869.9813, 1209.255
870.4634, 1211.641
870.9455, 1217.256
871.4276, 1209.304
871.9097, 1190.752
872.3918, 1179.473
872.8740, 1194.264
873.3561, 1211.905
873.8382, 1210.315
874.3203, 1196.680
874.8024, 1192.122
875.2845, 1211.388
875.7667, 1227.737
876.2488, 1237.651
876.7309, 1241.135
877.2130, 1236.028
877.6951, 1222.559
878.1772, 1210.612
878.6594, 1203.449
879.1415, 1199.204
879.6236, 1195.206
880.1057, 1192.486
880.5878, 1193.053
881.0699, 1202.335
881.5521, 1209.194
882.0342, 1210.682
882.5163, 1208.658
882.9984, 1204.853
883.4805, 1198.549
883.9626, 1195.394
884.4448, 1197.312
884.9269, 1199.867
885.4090, 1193.525
885.8911, 1183.778
886.3732, 1182.695
886.8553, 1197.966
887.3375, 1211.354
887.8196, 1213.110
888.3017, 1209.552
888.7838, 1207.829
889.2659, 1209.224
889.7480, 1208.974
890.2302, 1206.223
890.7123, 1203.731
891.1944, 1206.501
891.6765, 1211.998
892.1586, 1211.266
892.6407, 1202.616
893.1229, 1194.261
893.6050, 1191.727
894.0871, 1191.959
894.5692, 1193.062
895.0513, 1195.816
895.5334, 1194.969
896.0156, 1187.919
896.4977, 1182.267
896.9798, 1183.972
897.4619, 1191.930
897.9440, 1200.232
898.4261, 1208.747
898.9083, 1215.371
899.3904, 1220.173
899.8725, 1221.350
900.3546, 1214.114
900.8367, 1198.493
901.3188, 1192.862
901.8010, 1205.823
902.2831, 1218.104
902.7652, 1222.543
903.2473, 1220.279
903.7294, 1215.912
904.2115, 1209.775
904.6937, 1206.933
905.1758, 1213.527
905.6579, 1222.085
906.1400, 1223.184
906.6221, 1219.840
907.1042, 1208.137
907.5864, 1218.886
908.0685, 1224.400
908.5506, 1224.959
909.0327, 1205.723
909.5148, 1212.048
909.9969, 1208.129
910.4790, 1203.790
910.9611, 1213.713
911.4432, 1197.355
911.9254, 1207.052
912.4075, 1206.348
912.8896, 1210.404
913.3717, 1204.153
913.8538, 1201.086
914.3359, 1208.329
914.8181, 1205.601
915.3002, 1210.701
915.7823, 1219.721
916.2644, 1223.965
916.7465, 1221.684
917.2286, 1218.786
917.7108, 1222.443
918.1929, 1229.235
918.6750, 1234.320
919.1571, 1236.766
919.6392, 1238.113
920.1213, 1239.090
920.6035, 1238.779
921.0856, 1235.345
921.5677, 1227.846
922.0498, 1230.172
922.5319, 1243.964
923.0140, 1253.818
923.4962, 1240.186
923.9783, 1219.642
924.4604, 1219.662
924.9425, 1238.896
925.4246, 1253.553
925.9067, 1250.960
926.3889, 1244.302
926.8710, 1236.194
927.3531, 1228.307
927.8352, 1232.299
928.3173, 1250.019
928.7994, 1263.376
929.2816, 1263.162
929.7637, 1256.234
930.2458, 1252.365
930.7279, 1250.731
931.2100, 1249.463
931.6921, 1243.837
932.1743, 1243.258
932.6564, 1255.902
933.1385, 1272.722
933.6206, 1278.426
934.1027, 1271.297
934.5848, 1265.452
935.0670, 1263.259
935.5491, 1262.895
936.0312, 1261.542
936.5133, 1260.606
936.9954, 1262.735
937.4775, 1269.430
937.9597, 1276.529
938.4418, 1285.109
938.9239, 1291.626
939.4060, 1292.820
939.8881, 1287.547
940.3702, 1284.978
940.8524, 1285.762
941.3345, 1284.687
941.8166, 1272.614
942.2987, 1258.440
942.7808, 1256.372
943.2629, 1266.539
943.7451, 1278.058
944.2272, 1264.047
944.7093, 1277.281
945.1914, 1285.280
945.6735, 1288.323
946.1556, 1271.571
946.6378, 1280.380
947.1199, 1278.946
947.6020, 1277.092
948.0841, 1289.499
948.5662, 1275.626
949.0483, 1287.807
949.5305, 1289.588
950.0126, 1296.129
950.4947, 1292.362
950.9768, 1291.779
951.4589, 1301.507
951.9410, 1305.525
952.4232, 1300.573
952.9053, 1307.416
953.3874, 1293.183
953.8695, 1297.445
954.3516, 1309.686
954.8337, 1312.526
955.3159, 1317.198
955.7980, 1320.060
956.2801, 1322.674
956.7622, 1323.913
957.2443, 1326.598
957.7264, 1333.682
958.2086, 1344.921
958.6907, 1351.518
959.1728, 1353.484
959.6549, 1352.684
960.1370, 1346.622
960.6191, 1341.366
961.1013, 1345.790
961.5834, 1357.741
962.0654, 1361.660
962.5475, 1344.123
963.0297, 1335.022
963.5118, 1346.174
963.9939, 1366.942
964.4760, 1364.174
964.9581, 1342.397
965.4402, 1330.747
965.9224, 1344.322
966.4045, 1361.202
966.8866, 1363.746
967.3687, 1358.427
967.8508, 1354.070
968.3329, 1349.897
968.8151, 1350.542
969.2972, 1356.595
969.7793, 1366.442
970.2614, 1382.270
970.7435, 1400.809
971.2256, 1408.094
971.7078, 1402.914
972.1899, 1396.413
972.6720, 1395.929
973.1541, 1396.881
973.6362, 1396.751
974.1183, 1395.323
974.6005, 1390.210
975.0826, 1378.843
975.5647, 1372.207
976.0468, 1377.519
976.5289, 1388.668
977.0110, 1390.434
977.4932, 1385.969
977.9753, 1385.323
978.4574, 1399.433
978.9395, 1410.885
979.4216, 1412.101
979.9037, 1407.046
980.3859, 1399.499
980.8680, 1386.986
981.3501, 1389.339
981.8322, 1412.607
982.3143, 1437.022
982.7964, 1436.004
983.2786, 1422.209
983.7607, 1414.710
984.2428, 1417.726
984.7249, 1420.359
985.2070, 1412.737
985.6891, 1410.857
986.1713, 1426.825
986.6534, 1458.658
987.1355, 1472.862
987.6176, 1469.573
988.0997, 1459.016
988.5818, 1441.111
989.0640, 1423.946
989.5461, 1415.141
990.0282, 1413.636
990.5103, 1416.017
990.9924, 1421.684
991.4745, 1431.958
991.9567, 1450.829
992.4388, 1469.615
992.9209, 1470.356
993.4030, 1456.630
993.8851, 1446.070
994.3672, 1441.677
994.8494, 1443.289
995.3315, 1456.637
995.8136, 1472.182
996.2957, 1480.944
996.7778, 1481.248
997.2599, 1479.784
997.7421, 1475.738
998.2242, 1472.667
998.7063, 1473.371
999.1884, 1476.678
999.6705, 1479.713
1000.153, 1482.757
1000.635, 1487.403
1001.117, 1502.498
1001.599, 1510.136
1002.081, 1498.259
1002.563, 1475.968
1003.045, 1461.348
1003.527, 1454.288
1004.010, 1456.531
1004.492, 1470.916
1004.974, 1486.571
1005.456, 1490.433
1005.938, 1488.207
1006.420, 1487.408
1006.902, 1489.628
1007.384, 1493.292
1007.867, 1499.026
1008.349, 1504.786
1008.831, 1508.564
1009.313, 1510.867
1009.795, 1519.174
1010.277, 1532.640
1010.759, 1540.819
1011.241, 1530.074
1011.723, 1518.393
1012.206, 1519.350
1012.688, 1529.920
1013.170, 1536.449
1013.652, 1536.481
1014.134, 1538.410
1014.616, 1544.265
1015.098, 1551.711
1015.580, 1556.748
1016.062, 1560.687
1016.545, 1567.369
1017.027, 1579.497
1017.509, 1586.924
1017.991, 1580.271
1018.473, 1571.757
1018.955, 1570.121
1019.437, 1575.690
1019.919, 1576.151
1020.401, 1571.206
1020.884, 1569.875
1021.366, 1585.053
1021.848, 1601.299
1022.330, 1597.315
1022.812, 1580.043
1023.294, 1573.235
1023.776, 1591.468
1024.258, 1606.280
1024.741, 1614.421
1025.223, 1616.559
1025.705, 1610.909
1026.187, 1599.786
1026.669, 1591.514
1027.151, 1587.360
1027.633, 1588.002
1028.115, 1597.974
1028.598, 1609.633
1029.080, 1617.381
1029.562, 1621.134
1030.044, 1620.424
1030.526, 1613.862
1031.008, 1611.877
1031.490, 1625.252
1031.972, 1642.802
1032.454, 1645.331
1032.937, 1638.149
1033.419, 1635.297
1033.901, 1651.330
1034.383, 1657.640
1034.865, 1642.036
1035.347, 1624.101
1035.829, 1637.860
1036.311, 1677.442
1036.793, 1692.275
1037.276, 1674.865
1037.758, 1654.072
1038.240, 1651.370
1038.722, 1654.425
1039.204, 1652.031
1039.686, 1643.634
1040.168, 1646.635
1040.650, 1665.252
1041.132, 1678.831
1041.615, 1677.235
1042.097, 1667.837
1042.579, 1660.503
1043.061, 1656.314
1043.543, 1657.865
1044.025, 1674.142
1044.507, 1684.160
1044.989, 1679.047
1045.472, 1671.354
1045.954, 1674.921
1046.436, 1688.865
1046.918, 1694.681
1047.400, 1691.534
1047.882, 1691.223
1048.364, 1707.827
1048.846, 1726.275
1049.328, 1733.866
1049.811, 1731.530
1050.293, 1733.931
1050.775, 1744.100
1051.257, 1749.461
1051.739, 1745.608
1052.221, 1737.520
1052.703, 1731.500
1053.185, 1727.705
1053.667, 1727.043
1054.150, 1731.734
1054.632, 1733.837
1055.114, 1725.370
1055.596, 1719.672
1056.078, 1728.051
1056.560, 1749.222
1057.042, 1756.527
1057.524, 1750.663
1058.007, 1743.264
1058.489, 1737.422
1058.971, 1736.457
1059.453, 1747.439
1059.935, 1764.634
1060.417, 1772.875
1060.899, 1769.955
1061.381, 1762.162
1061.864, 1747.818
1062.346, 1737.307
1062.828, 1749.502
1063.310, 1771.816
1063.792, 1781.714
1064.274, 1775.118
1064.756, 1771.877
1065.238, 1782.557
1065.720, 1792.031
1066.203, 1794.427
1066.685, 1791.414
1067.167, 1788.080
1067.649, 1785.063
1068.131, 1786.730
1068.613, 1798.116
1069.095, 1809.271
1069.577, 1813.318
1070.059, 1813.935
1070.542, 1816.256
1071.024, 1821.623
1071.506, 1822.955
1071.988, 1819.285
1072.470, 1817.065
1072.952, 1823.681
1073.434, 1833.497
1073.916, 1840.579
1074.399, 1844.440
1074.881, 1843.695
1075.363, 1830.624
1075.845, 1824.621
1076.327, 1831.458
1076.809, 1843.673
1077.291, 1846.907
1077.773, 1844.106
1078.255, 1844.069
1078.738, 1830.295
1079.220, 1845.355
1079.702, 1855.179
1080.184, 1860.048
1080.666, 1845.122
1081.148, 1855.757
1081.630, 1856.149
1082.112, 1856.121
1082.594, 1870.354
1083.077, 1858.313
1083.559, 1872.320
1084.041, 1875.927
1084.523, 1884.293
1085.005, 1882.353
1085.487, 1883.596
1085.969, 1895.149
1086.451, 1901.117
1086.934, 1905.949
1087.416, 1904.852
1087.898, 1901.248
1088.380, 1901.122
1088.862, 1904.718
1089.344, 1911.058
1089.826, 1927.853
1090.308, 1936.540
1090.791, 1929.465
1091.273, 1914.377
1091.755, 1904.723
1092.237, 1900.969
1092.719, 1908.329
1093.201, 1930.796
1093.683, 1949.191
1094.165, 1947.256
1094.647, 1938.840
1095.130, 1934.734
1095.612, 1935.104
1096.094, 1929.257
1096.576, 1916.083
1097.058, 1911.046
1097.540, 1926.904
1098.022, 1947.715
1098.504, 1956.664
1098.986, 1957.691
1099.469, 1957.564
1099.951, 1953.968
1100.433, 1957.213
1100.915, 1970.725
1101.397, 1982.381
1101.879, 1977.655
1102.361, 1964.215
1102.843, 1957.585
1103.325, 1957.856
1103.808, 1960.572
1104.290, 1958.652
1104.772, 1967.423
1105.254, 1999.640
1105.736, 2035.547
1106.218, 2031.423
1106.700, 1996.367
1107.182, 1984.198
1107.665, 2006.934
1108.147, 2030.329
1108.629, 2032.609
1109.111, 2025.997
1109.593, 2016.478
1110.075, 2005.243
1110.557, 2000.567
1111.039, 2002.613
1111.521, 2008.540
1112.004, 2019.647
1112.486, 2029.680
1112.968, 2028.739
1113.450, 2024.123
1113.932, 2026.681
1114.414, 2043.529
1114.896, 2051.263
1115.378, 2047.556
1115.860, 2042.903
1116.343, 2043.202
1116.825, 2048.539
1117.307, 2063.936
1117.789, 2085.050
1118.271, 2097.141
1118.753, 2086.773
1119.235, 2078.480
1119.717, 2074.340
1120.200, 2075.313
1120.682, 2087.585
1121.164, 2105.780
1121.646, 2109.404
1122.128, 2096.823
1122.610, 2085.875
1123.092, 2081.693
1123.574, 2086.998
1124.057, 2108.655
1124.539, 2137.104
1125.021, 2141.596
1125.503, 2124.327
1125.985, 2108.606
1126.467, 2098.963
1126.949, 2097.675
1127.431, 2117.465
1127.913, 2138.425
1128.396, 2139.093
1128.878, 2118.540
1129.360, 2112.836
1129.842, 2122.990
1130.324, 2136.759
1130.806, 2149.823
1131.288, 2161.637
1131.770, 2174.190
1132.252, 2184.374
1132.735, 2186.810
1133.217, 2176.956
1133.699, 2165.378
1134.181, 2148.781
1134.663, 2141.999
1135.145, 2170.972
1135.627, 2210.388
1136.109, 2214.157
1136.592, 2189.165
1137.074, 2167.722
1137.556, 2155.689
1138.038, 2155.564
1138.520, 2171.835
1139.002, 2192.897
1139.484, 2203.461
1139.966, 2206.502
1140.448, 2209.704
1140.931, 2213.883
1141.413, 2216.788
1141.895, 2216.818
1142.377, 2215.988
1142.859, 2214.847
1143.341, 2213.553
1143.823, 2210.746
1144.305, 2207.626
1144.787, 2212.115
1145.270, 2228.266
1145.752, 2242.922
1146.234, 2247.957
1146.716, 2248.547
1147.198, 2247.099
1147.680, 2244.191
1148.162, 2249.643
1148.644, 2262.885
1149.126, 2267.142
1149.609, 2246.642
1150.091, 2228.927
1150.573, 2240.243
1151.055, 2264.646
1151.537, 2282.123
1152.019, 2291.001
1152.501, 2297.507
1152.983, 2301.461
1153.466, 2304.947
1153.948, 2310.339
1154.430, 2315.223
1154.912, 2315.859
1155.394, 2314.175
1155.876, 2315.615
1156.358, 2323.665
1156.840, 2325.494
1157.323, 2318.522
1157.805, 2311.988
1158.287, 2316.217
1158.769, 2325.846
1159.251, 2332.051
1159.733, 2335.653
1160.215, 2347.494
1160.697, 2380.807
1161.179, 2396.669
1161.661, 2382.503
1162.144, 2360.306
1162.626, 2366.436
1163.108, 2386.508
1163.590, 2391.292
1164.072, 2375.422
1164.554, 2365.051
1165.036, 2370.787
1165.518, 2376.829
1166.001, 2378.167
1166.483, 2376.600
1166.965, 2373.290
1167.447, 2370.744
1167.929, 2376.886
1168.411, 2396.381
1168.893, 2415.101
1169.375, 2432.328
1169.858, 2442.433
1170.340, 2439.012
1170.822, 2426.638
1171.304, 2429.269
1171.786, 2443.232
1172.268, 2452.810
1172.750, 2449.209
1173.232, 2444.319
1173.714, 2440.063
1174.197, 2439.034
1174.679, 2446.415
1175.161, 2461.515
1175.643, 2458.975
1176.125, 2441.365
1176.607, 2431.199
1177.089, 2451.635
1177.571, 2471.000
1178.053, 2468.337
1178.536, 2458.439
1179.018, 2460.945
1179.500, 2476.014
1179.982, 2488.744
1180.464, 2498.218
1180.946, 2504.431
1181.428, 2503.005
1181.910, 2502.493
1182.393, 2509.031
1182.875, 2520.507
1183.357, 2533.345
1183.839, 2547.879
1184.321, 2555.186
1184.803, 2553.370
1185.285, 2550.443
1185.767, 2551.822
1186.250, 2556.108
1186.732, 2563.534
1187.214, 2573.175
1187.696, 2581.101
1188.178, 2587.562
1188.660, 2588.339
1189.142, 2580.706
1189.624, 2574.492
1190.106, 2580.647
1190.589, 2592.292
1191.071, 2606.025
1191.553, 2621.093
1192.035, 2618.980
1192.517, 2596.243
1192.999, 2585.278
1193.481, 2602.750
1193.963, 2624.952
1194.445, 2624.347
1194.928, 2614.070
1195.410, 2609.433
1195.892, 2612.205
1196.374, 2622.782
1196.856, 2643.761
1197.338, 2654.669
1197.820, 2636.360
1198.302, 2615.386
1198.784, 2629.436
1199.267, 2660.143
1199.749, 2676.877
1200.231, 2669.358
1200.713, 2669.795
1201.195, 2679.997
1201.677, 2688.747
1202.159, 2684.130
1202.641, 2677.414
1203.124, 2685.458
1203.606, 2701.787
1204.088, 2711.976
1204.570, 2711.017
1205.052, 2711.883
1205.534, 2715.454
1206.016, 2718.801
1206.498, 2717.681
1206.980, 2716.261
1207.463, 2720.957
1207.945, 2730.010
1208.427, 2736.328
1208.909, 2736.231
1209.391, 2741.906
1209.873, 2755.486
1210.355, 2770.499
1210.837, 2785.629
1211.319, 2794.762
1211.802, 2783.611
1212.284, 2756.501
1212.766, 2742.303
1213.248, 2744.167
1213.730, 2757.665
1214.212, 2785.447
1214.694, 2812.358
1215.176, 2816.719
1215.659, 2812.075
1216.141, 2817.683
1216.623, 2833.891
1217.105, 2837.998
1217.587, 2821.323
1218.069, 2816.284
1218.551, 2832.448
1219.033, 2856.486
1219.516, 2876.027
1219.998, 2889.306
1220.480, 2891.548
1220.962, 2881.650
1221.444, 2876.509
1221.926, 2877.636
1222.408, 2880.176
1222.890, 2881.891
1223.372, 2886.102
1223.854, 2905.469
1224.337, 2925.752
1224.819, 2924.396
1225.301, 2892.590
1225.783, 2879.910
1226.265, 2890.854
1226.747, 2905.371
1227.229, 2917.440
1227.711, 2925.866
1228.194, 2924.805
1228.676, 2921.139
1229.158, 2925.634
1229.640, 2942.912
1230.122, 2952.750
1230.604, 2954.549
1231.086, 2952.227
1231.568, 2945.492
1232.051, 2938.755
1232.533, 2932.372
1233.015, 2931.628
1233.497, 2947.775
1233.979, 2989.174
1234.461, 3012.338
1234.943, 3015.692
1235.425, 3013.769
1235.907, 3012.754
1236.390, 3013.113
1236.872, 3015.051
1237.354, 3022.453
1237.836, 3039.273
1238.318, 3050.855
1238.800, 3057.483
1239.282, 3044.316
1239.764, 3056.710
1240.246, 3058.860
1240.729, 3060.601
1241.211, 3076.594
1241.693, 3066.306
1242.175, 3082.073
1242.657, 3087.438
1243.139, 3097.565
1243.621, 3081.414
1244.103, 3083.674
1244.586, 3076.944
1245.068, 3075.269
1245.550, 3095.571
1246.032, 3125.835
1246.514, 3143.344
1246.996, 3147.121
1247.478, 3147.091
1247.960, 3143.693
1248.442, 3142.650
1248.925, 3151.736
1249.407, 3160.481
1249.889, 3159.490
1250.371, 3155.087
1250.853, 3157.259
1251.335, 3165.988
1251.817, 3180.915
1252.299, 3201.679
1252.781, 3215.823
1253.264, 3206.464
1253.746, 3197.769
1254.228, 3202.810
1254.710, 3215.922
1255.192, 3233.711
1255.674, 3253.886
1256.156, 3251.557
1256.638, 3225.389
1257.120, 3204.813
1257.603, 3212.061
1258.085, 3222.838
1258.567, 3227.912
1259.049, 3230.461
1259.531, 3234.991
1260.013, 3241.709
1260.495, 3253.645
1260.977, 3270.752
1261.460, 3282.309
1261.942, 3279.062
1262.424, 3273.887
1262.906, 3268.022
1263.388, 3266.048
1263.870, 3278.975
1264.352, 3301.171
1264.834, 3319.346
1265.317, 3331.909
1265.799, 3340.258
1266.281, 3344.186
1266.763, 3344.154
1267.245, 3338.253
1267.727, 3332.271
1268.209, 3334.655
##END=



