##NAMES=Tourmaline
##RRUFFID=R070563
##LOCALITY=unknown
##OWNER=RRUFF
##SOURCE=Gemological Institute of America 
##DESCRIPTION=White portion of a zoned watermelon tourmaline slice, see also R060566 (pink) and R070564 (green)
##STATUS=The identification of this mineral has been confirmed only by single crystal X-ray diffraction.
##URL=rruff.info/R070563
90.52570, 0.0000000E+00
91.00781, 11.93408
91.48993, 11.00481
91.97205, 10.63360
92.45416, 11.20429
92.93628, 12.31475
93.41840, 13.00478
93.90051, 12.94328
94.38263, 12.71177
94.86475, 13.52390
95.34686, 15.36681
95.82898, 17.01289
96.31110, 17.61932
96.79321, 17.20869
97.27533, 15.73230
97.75745, 12.47755
98.23956, 8.244282
98.72168, 6.846349
99.20380, 8.800543
99.68591, 12.00731
100.1680, 14.42659
100.6501, 16.01358
101.1323, 16.91779
101.6144, 17.06248
102.0965, 16.39422
102.5786, 15.48972
103.0607, 13.93988
103.5428, 12.50401
104.0250, 12.48782
104.5071, 14.39718
104.9892, 16.88530
105.4713, 19.58379
105.9534, 22.99540
106.4355, 25.46448
106.9177, 26.35673
107.3998, 26.27886
107.8819, 27.20580
108.3640, 30.37876
108.8461, 33.55056
109.3282, 35.71347
109.8104, 34.47425
110.2925, 34.91145
110.7746, 37.89186
111.2567, 43.09894
111.7388, 48.19410
112.2209, 53.73059
112.7031, 58.59937
113.1852, 62.08990
113.6673, 62.31836
114.1494, 62.76871
114.6315, 64.47380
115.1136, 67.51692
115.5958, 70.66868
116.0779, 73.56002
116.5600, 76.35313
117.0421, 79.21745
117.5242, 81.67787
118.0063, 84.65109
118.4885, 88.92687
118.9706, 94.82389
119.4527, 100.6201
119.9348, 105.0983
120.4169, 108.8043
120.8990, 112.8127
121.3812, 117.3002
121.8633, 122.4856
122.3454, 128.8644
122.8275, 137.1704
123.3096, 145.0989
123.7917, 150.3149
124.2739, 153.3224
124.7560, 155.9717
125.2381, 159.4439
125.7202, 163.3589
126.2023, 166.9494
126.6844, 169.8252
127.1666, 172.6403
127.6487, 176.5191
128.1308, 181.4154
128.6129, 186.2607
129.0950, 190.1528
129.5771, 193.2942
130.0593, 196.4243
130.5414, 199.7461
131.0235, 203.1720
131.5056, 206.2449
131.9877, 208.1718
132.4698, 209.0601
132.9520, 210.1643
133.4341, 211.4704
133.9162, 212.5654
134.3983, 212.9997
134.8804, 212.9638
135.3625, 214.0852
135.8447, 216.5547
136.3268, 219.6650
136.8089, 222.6954
137.2910, 225.7599
137.7731, 228.2188
138.2552, 229.9401
138.7374, 230.9621
139.2195, 230.8694
139.7016, 229.3738
140.1837, 227.0545
140.6658, 224.9786
141.1479, 222.8821
141.6301, 221.5317
142.1122, 221.3184
142.5943, 222.5153
143.0764, 224.1297
143.5585, 226.5064
144.0406, 229.2466
144.5228, 230.9534
145.0049, 231.0351
145.4870, 230.8186
145.9691, 230.9863
146.4512, 231.4537
146.9333, 232.4973
147.4155, 234.8577
147.8976, 238.2409
148.3797, 239.5348
148.8618, 236.6017
149.3439, 233.1403
149.8260, 231.5274
150.3082, 233.9421
150.7903, 235.7495
151.2724, 236.1286
151.7545, 235.0195
152.2366, 234.8150
152.7188, 236.6682
153.2009, 238.9205
153.6830, 240.2199
154.1651, 240.6194
154.6472, 239.8919
155.1293, 237.4115
155.6115, 232.8449
156.0936, 229.3100
156.5757, 227.6400
157.0578, 227.1371
157.5399, 227.0692
158.0220, 228.2566
158.5042, 229.0147
158.9863, 228.3815
159.4684, 225.8739
159.9505, 224.0649
160.4326, 224.2612
160.9147, 225.5668
161.3969, 226.6489
161.8790, 226.7198
162.3611, 226.6878
162.8432, 227.0237
163.3253, 227.8154
163.8074, 228.8784
164.2896, 230.5828
164.7717, 232.4981
165.2538, 233.7648
165.7359, 233.2121
166.2180, 232.3067
166.7001, 232.1076
167.1823, 232.8140
167.6644, 234.2168
168.1465, 236.5083
168.6286, 239.4526
169.1107, 242.3916
169.5928, 245.1212
170.0750, 247.5913
170.5571, 249.8045
171.0392, 251.7654
171.5213, 253.4222
172.0034, 254.1992
172.4855, 254.4115
172.9677, 255.4164
173.4498, 259.5688
173.9319, 264.7094
174.4140, 267.5536
174.8961, 265.9356
175.3782, 263.1966
175.8604, 263.2092
176.3425, 265.6998
176.8246, 268.3654
177.3067, 270.0356
177.7888, 270.6385
178.2709, 269.9039
178.7531, 266.9326
179.2352, 263.2227
179.7173, 261.1917
180.1994, 260.7684
180.6815, 260.5025
181.1636, 258.7082
181.6458, 255.9647
182.1279, 254.0357
182.6100, 253.3685
183.0921, 253.9059
183.5742, 256.0520
184.0563, 259.8494
184.5385, 263.6487
185.0206, 265.5357
185.5027, 265.8595
185.9848, 266.1991
186.4669, 267.0440
186.9490, 268.3159
187.4312, 269.7033
187.9133, 271.1162
188.3954, 273.0579
188.8775, 276.2946
189.3596, 280.7005
189.8417, 285.3013
190.3239, 290.0355
190.8060, 294.7411
191.2881, 298.1520
191.7702, 300.0288
192.2523, 301.4292
192.7344, 303.5186
193.2166, 306.2926
193.6987, 309.7362
194.1808, 314.2581
194.6629, 319.7043
195.1450, 324.5501
195.6271, 328.8691
196.1093, 332.4149
196.5914, 334.1090
197.0735, 333.7001
197.5556, 334.5199
198.0377, 338.6501
198.5198, 346.1548
199.0020, 352.0759
199.4841, 355.9808
199.9662, 359.0741
200.4483, 363.3428
200.9304, 368.8881
201.4125, 374.9668
201.8947, 381.3256
202.3768, 387.9736
202.8589, 394.7647
203.3410, 401.6911
203.8231, 408.8017
204.3052, 415.9050
204.7874, 422.8522
205.2695, 430.5624
205.7516, 439.7083
206.2337, 450.5644
206.7158, 460.8289
207.1979, 470.0070
207.6801, 479.0930
208.1622, 490.3267
208.6443, 504.5389
209.1264, 518.5247
209.6085, 530.3889
210.0906, 539.2742
210.5728, 550.0018
211.0549, 562.6374
211.5370, 577.0884
212.0191, 592.8860
212.5012, 610.2911
212.9833, 628.7068
213.4655, 647.7745
213.9476, 667.7362
214.4297, 687.8211
214.9118, 707.9452
215.3939, 728.1940
215.8760, 749.3729
216.3581, 771.3577
216.8403, 794.1681
217.3224, 817.8137
217.8045, 843.1083
218.2866, 867.2399
218.7687, 889.8994
219.2508, 911.3536
219.7330, 932.2504
220.2151, 954.2742
220.6972, 972.5291
221.1793, 984.3253
221.6614, 988.6991
222.1435, 989.4958
222.6257, 987.2370
223.1078, 981.3369
223.5899, 969.6483
224.0720, 949.9904
224.5541, 927.9651
225.0362, 905.5884
225.5184, 883.0046
226.0005, 860.1158
226.4826, 836.2631
226.9647, 812.2513
227.4468, 789.4959
227.9289, 768.0644
228.4111, 748.0734
228.8932, 729.5353
229.3753, 712.3546
229.8574, 696.9553
230.3395, 683.5048
230.8216, 671.9328
231.3038, 662.0673
231.7859, 655.1004
232.2680, 648.1776
232.7501, 639.5427
233.2322, 626.5698
233.7143, 617.9244
234.1965, 614.7844
234.6786, 615.7098
235.1607, 616.7589
235.6428, 618.0228
236.1249, 619.2569
236.6070, 620.3455
237.0892, 621.2242
237.5713, 622.0187
238.0534, 622.3714
238.5355, 622.7242
239.0176, 624.3513
239.4997, 628.2529
239.9819, 632.0248
240.4640, 634.6012
240.9461, 635.5946
241.4282, 636.2951
241.9103, 636.3407
242.3924, 636.2130
242.8746, 637.3029
243.3567, 641.0824
243.8388, 643.8580
244.3209, 643.9958
244.8030, 640.5128
245.2851, 637.0803
245.7673, 634.0174
246.2494, 630.8870
246.7315, 626.7128
247.2136, 621.2068
247.6957, 615.1225
248.1778, 608.7017
248.6600, 601.9902
249.1421, 594.9113
249.6242, 587.2600
250.1063, 579.3016
250.5884, 571.5005
251.0705, 563.7074
251.5527, 556.2760
252.0348, 549.2953
252.5169, 542.4915
252.9990, 536.9521
253.4811, 532.9379
253.9632, 529.9526
254.4454, 527.2928
254.9275, 525.2715
255.4096, 522.9277
255.8917, 519.7341
256.3738, 515.3284
256.8560, 511.9330
257.3381, 510.0493
257.8202, 508.7305
258.3023, 506.2987
258.7844, 501.9540
259.2665, 498.3056
259.7487, 496.2734
260.2308, 496.0990
260.7129, 495.8956
261.1950, 495.3578
261.6771, 495.1138
262.1592, 496.2860
262.6414, 499.6570
263.1235, 502.4100
263.6056, 503.4787
264.0877, 502.7097
264.5698, 502.6862
265.0519, 503.4307
265.5341, 504.8812
266.0162, 507.3672
266.4983, 511.6202
266.9804, 514.5323
267.4625, 514.8768
267.9446, 512.7083
268.4268, 511.9667
268.9089, 513.2750
269.3910, 514.9348
269.8731, 515.0968
270.3552, 513.3870
270.8373, 511.7093
271.3195, 510.6684
271.8016, 510.1145
272.2837, 508.3896
272.7658, 505.2354
273.2479, 501.4222
273.7300, 497.4674
274.2122, 493.3241
274.6943, 489.4404
275.1764, 485.9926
275.6585, 482.9019
276.1406, 479.8947
276.6227, 477.1369
277.1049, 473.9318
277.5870, 469.5775
278.0691, 463.9865
278.5512, 458.2256
279.0333, 452.2998
279.5154, 446.4039
279.9976, 441.2850
280.4797, 437.0272
280.9618, 433.0416
281.4439, 428.7056
281.9260, 424.0282
282.4081, 420.0161
282.8903, 417.1544
283.3724, 414.6302
283.8545, 410.0340
284.3366, 403.1340
284.8187, 396.5917
285.3008, 392.6410
285.7830, 390.9869
286.2651, 388.5970
286.7472, 385.1724
287.2293, 380.9303
287.7114, 375.7315
288.1935, 369.5891
288.6757, 364.2399
289.1578, 361.3653
289.6399, 360.3613
290.1220, 358.1683
290.6041, 354.3964
291.0862, 350.0875
291.5684, 346.6416
292.0505, 343.9940
292.5326, 341.6778
293.0147, 339.9792
293.4968, 338.4483
293.9789, 335.4059
294.4611, 330.6657
294.9432, 325.4825
295.4253, 320.9337
295.9074, 317.0677
296.3895, 314.1833
296.8716, 312.8443
297.3538, 312.4445
297.8359, 311.6830
298.3180, 310.5308
298.8001, 309.5221
299.2822, 309.0337
299.7643, 309.0624
300.2465, 309.6090
300.7286, 310.7799
301.2107, 312.3898
301.6928, 314.4494
302.1749, 316.8993
302.6570, 319.0993
303.1392, 319.8538
303.6213, 320.0986
304.1034, 321.5409
304.5855, 325.5341
305.0676, 329.9134
305.5497, 332.0321
306.0319, 332.3576
306.5140, 333.4319
306.9961, 338.0437
307.4782, 343.8990
307.9603, 348.1309
308.4424, 349.2388
308.9246, 350.0982
309.4067, 353.2068
309.8888, 357.9047
310.3709, 362.3830
310.8530, 365.2205
311.3351, 367.6120
311.8173, 370.5999
312.2994, 374.5277
312.7815, 378.6142
313.2636, 382.9372
313.7457, 387.0288
314.2278, 390.0612
314.7100, 390.6768
315.1921, 390.8214
315.6742, 391.7270
316.1563, 393.6446
316.6384, 395.5240
317.1205, 396.8634
317.6027, 397.8974
318.0848, 398.9135
318.5669, 398.9659
319.0490, 399.9383
319.5311, 402.9739
320.0132, 408.1951
320.4954, 413.2830
320.9775, 417.3489
321.4596, 421.0783
321.9417, 424.9900
322.4238, 428.7080
322.9059, 433.1154
323.3881, 439.1538
323.8702, 446.5368
324.3523, 452.5018
324.8344, 455.1550
325.3165, 457.2565
325.7986, 460.4662
326.2808, 465.9576
326.7629, 471.3368
327.2450, 476.9399
327.7271, 482.4473
328.2092, 486.6084
328.6913, 488.3961
329.1735, 489.7300
329.6556, 491.4366
330.1377, 494.1567
330.6198, 496.0151
331.1019, 496.7279
331.5840, 496.6523
332.0662, 496.4337
332.5483, 495.8496
333.0304, 495.4196
333.5125, 495.2431
333.9946, 495.2430
334.4767, 495.9588
334.9589, 497.9367
335.4410, 500.0833
335.9231, 501.0009
336.4052, 500.4345
336.8873, 499.2310
337.3694, 497.2069
337.8515, 494.4884
338.3336, 493.2932
338.8158, 493.9635
339.2979, 495.4528
339.7800, 497.0807
340.2621, 498.9575
340.7442, 500.0775
341.2263, 499.9405
341.7085, 499.0816
342.1906, 499.1568
342.6727, 500.1629
343.1548, 502.1285
343.6369, 505.7653
344.1190, 510.8695
344.6012, 514.3563
345.0833, 515.3712
345.5654, 515.5941
346.0475, 518.3389
346.5296, 523.4270
347.0117, 528.3367
347.4939, 531.4541
347.9760, 533.2599
348.4581, 535.3142
348.9402, 537.7003
349.4223, 540.2052
349.9044, 542.5063
350.3866, 544.7401
350.8687, 547.3874
351.3508, 550.7161
351.8329, 554.5743
352.3150, 558.7868
352.7971, 563.3710
353.2793, 568.1993
353.7614, 572.9491
354.2435, 578.0089
354.7256, 584.0499
355.2077, 591.4181
355.6898, 599.6054
356.1720, 607.9266
356.6541, 616.6547
357.1362, 626.8267
357.6183, 640.2621
358.1004, 654.8550
358.5826, 668.5038
359.0647, 680.1537
359.5468, 692.5405
360.0289, 707.6639
360.5110, 724.5244
360.9931, 741.2906
361.4753, 755.0629
361.9574, 770.0881
362.4395, 789.3088
362.9216, 813.7924
363.4037, 837.1913
363.8858, 856.1094
364.3680, 873.5908
364.8501, 892.9238
365.3322, 914.4300
365.8143, 937.9756
366.2964, 964.1287
366.7785, 992.9467
367.2607, 1021.704
367.7428, 1049.592
368.2249, 1077.954
368.7070, 1107.737
369.1891, 1139.932
369.6712, 1171.945
370.1534, 1204.908
370.6355, 1237.813
371.1176, 1267.737
371.5997, 1296.318
372.0818, 1319.773
372.5639, 1336.881
373.0461, 1347.568
373.5282, 1352.106
374.0103, 1350.674
374.4924, 1343.017
374.9745, 1328.724
375.4566, 1307.332
375.9388, 1280.374
376.4209, 1247.612
376.9030, 1208.954
377.3851, 1169.968
377.8672, 1130.116
378.3493, 1090.214
378.8315, 1051.211
379.3136, 1012.779
379.7957, 976.1066
380.2778, 940.9600
380.7599, 907.7490
381.2420, 876.3466
381.7242, 847.2640
382.2063, 820.0297
382.6884, 794.6774
383.1705, 771.0989
383.6526, 750.0808
384.1347, 732.0051
384.6169, 715.2847
385.0990, 698.4651
385.5811, 681.6331
386.0632, 665.8652
386.5453, 651.4139
387.0274, 638.3576
387.5096, 627.2836
387.9917, 618.2246
388.4738, 610.0746
388.9559, 601.8705
389.4380, 594.3141
389.9201, 588.3715
390.4023, 585.4442
390.8844, 583.0569
391.3665, 579.2983
391.8486, 574.5988
392.3307, 570.6661
392.8128, 568.3754
393.2950, 567.0871
393.7771, 566.3658
394.2592, 566.1481
394.7413, 566.4532
395.2234, 567.3925
395.7055, 568.8291
396.1877, 570.5554
396.6698, 573.0851
397.1519, 575.3573
397.6340, 576.8111
398.1161, 577.2648
398.5982, 578.4680
399.0804, 581.7150
399.5625, 585.0500
400.0446, 587.0364
400.5267, 586.6138
401.0088, 586.4083
401.4909, 586.5543
401.9731, 587.0843
402.4552, 588.2377
402.9373, 590.6072
403.4194, 592.6440
403.9015, 593.4736
404.3836, 592.6863
404.8658, 592.4365
405.3479, 593.1249
405.8300, 593.7937
406.3121, 593.0534
406.7942, 590.8313
407.2763, 587.5880
407.7585, 583.1494
408.2406, 577.7408
408.7227, 573.2288
409.2048, 569.8596
409.6869, 565.4828
410.1690, 557.3441
410.6512, 546.2908
411.1333, 536.1225
411.6154, 527.6872
412.0975, 520.1879
412.5796, 512.7628
413.0617, 505.2717
413.5439, 496.9063
414.0260, 486.3921
414.5081, 474.9354
414.9902, 464.5564
415.4723, 455.4568
415.9544, 446.2469
416.4366, 435.5656
416.9187, 424.1747
417.4008, 413.2588
417.8829, 402.7811
418.3650, 393.2185
418.8471, 385.0624
419.3293, 378.1798
419.8114, 371.3146
420.2935, 363.3880
420.7756, 355.6793
421.2577, 349.3195
421.7398, 345.0237
422.2220, 340.8029
422.7041, 336.1655
423.1862, 331.3090
423.6683, 326.5737
424.1504, 321.5580
424.6325, 317.0351
425.1147, 313.3333
425.5968, 310.4812
426.0789, 307.7243
426.5610, 304.9590
427.0431, 302.3807
427.5252, 300.2333
428.0074, 298.8027
428.4895, 297.0641
428.9716, 294.5962
429.4537, 291.8717
429.9358, 290.5375
430.4179, 290.8584
430.9001, 291.6227
431.3822, 292.4557
431.8643, 293.3682
432.3464, 293.3506
432.8285, 292.1222
433.3106, 290.8716
433.7928, 291.4383
434.2749, 293.5788
434.7570, 295.2050
435.2391, 295.4247
435.7212, 294.9357
436.2033, 295.1348
436.6855, 295.9594
437.1676, 296.7857
437.6497, 296.8677
438.1318, 296.7566
438.6139, 297.4317
439.0960, 299.2518
439.5782, 301.1188
440.0603, 302.2738
440.5424, 302.8240
441.0245, 302.9595
441.5066, 301.8398
441.9887, 301.0918
442.4709, 302.3094
442.9530, 305.4028
443.4351, 307.3141
443.9172, 305.4647
444.3993, 302.8119
444.8814, 301.5394
445.3636, 303.1509
445.8457, 304.6043
446.3278, 305.5377
446.8099, 306.0209
447.2920, 306.2728
447.7741, 306.9708
448.2563, 306.6818
448.7384, 304.7313
449.2205, 300.8207
449.7026, 297.5129
450.1847, 294.9100
450.6668, 292.8313
451.1490, 291.1430
451.6311, 289.8565
452.1132, 288.9633
452.5953, 288.6070
453.0774, 288.5313
453.5595, 288.0117
454.0417, 287.0162
454.5238, 285.8331
455.0059, 284.7535
455.4880, 283.6613
455.9701, 281.6638
456.4522, 278.6070
456.9344, 275.5506
457.4165, 273.8916
457.8986, 273.1666
458.3807, 272.0843
458.8628, 269.8245
459.3449, 267.4685
459.8271, 266.3694
460.3092, 266.3004
460.7913, 266.2573
461.2734, 265.4258
461.7555, 264.5046
462.2376, 264.1424
462.7198, 264.5419
463.2019, 264.9806
463.6840, 265.1555
464.1661, 265.1666
464.6482, 265.1351
465.1303, 264.6756
465.6125, 264.6047
466.0946, 265.4600
466.5767, 267.0994
467.0588, 268.1303
467.5409, 267.6791
468.0230, 267.2866
468.5052, 267.7770
468.9873, 270.0580
469.4694, 270.8649
469.9515, 269.4426
470.4336, 267.2093
470.9157, 266.3082
471.3979, 267.2693
471.8800, 267.6954
472.3621, 266.5734
472.8442, 264.4752
473.3263, 264.3495
473.8084, 266.4055
474.2906, 268.8035
474.7727, 270.1756
475.2548, 270.7259
475.7369, 271.5262
476.2190, 272.7773
476.7011, 273.9106
477.1833, 274.0628
477.6654, 273.5320
478.1475, 273.1323
478.6296, 272.8864
479.1117, 273.1549
479.5938, 274.5659
480.0760, 276.9809
480.5581, 279.4071
481.0402, 281.2343
481.5223, 282.8850
482.0044, 284.7430
482.4865, 286.9861
482.9687, 289.0910
483.4508, 290.7845
483.9329, 292.2650
484.4150, 293.7915
484.8971, 295.4336
485.3792, 297.1168
485.8614, 298.8464
486.3435, 300.6199
486.8256, 302.3891
487.3077, 304.0113
487.7898, 305.7713
488.2719, 307.9279
488.7541, 310.7346
489.2362, 312.9709
489.7183, 314.5275
490.2004, 315.6502
490.6825, 316.4673
491.1646, 316.8736
491.6468, 318.2070
492.1289, 321.4394
492.6110, 325.5783
493.0931, 327.5768
493.5752, 327.4661
494.0573, 327.2534
494.5395, 328.3268
495.0216, 330.3460
495.5037, 332.7403
495.9858, 335.4515
496.4679, 338.2372
496.9500, 340.7203
497.4322, 343.1277
497.9143, 345.7909
498.3964, 349.4951
498.8785, 352.9152
499.3606, 355.0524
499.8427, 356.1700
500.3249, 357.3501
500.8070, 358.1103
501.2891, 359.7192
501.7712, 363.1110
502.2533, 369.2784
502.7354, 374.6201
503.2176, 378.8397
503.6997, 382.0866
504.1818, 384.3597
504.6639, 384.7176
505.1460, 385.8897
505.6281, 388.6019
506.1103, 392.3680
506.5924, 395.0637
507.0745, 396.3460
507.5566, 397.7486
508.0387, 400.4528
508.5208, 404.3303
509.0030, 406.5651
509.4851, 406.9420
509.9672, 406.8864
510.4493, 408.0971
510.9314, 410.1733
511.4135, 411.7042
511.8957, 412.1404
512.3778, 412.2210
512.8599, 413.0493
513.3420, 414.2768
513.8242, 414.8696
514.3063, 413.5108
514.7884, 411.8736
515.2705, 411.6688
515.7526, 413.0235
516.2347, 413.3827
516.7169, 411.4021
517.1990, 408.2126
517.6811, 404.6146
518.1632, 399.3613
518.6453, 395.5719
519.1274, 395.1967
519.6096, 396.1605
520.0917, 394.5039
520.5738, 388.0470
521.0559, 382.6618
521.5380, 380.5012
522.0201, 381.2563
522.5023, 379.0833
522.9844, 373.0545
523.4665, 366.7005
523.9486, 362.7127
524.4307, 360.9564
524.9128, 358.9823
525.3950, 356.5504
525.8771, 354.1162
526.3592, 352.1490
526.8413, 350.6785
527.3234, 349.7409
527.8055, 349.3062
528.2877, 349.4652
528.7698, 350.8340
529.2519, 353.0591
529.7340, 354.6948
530.2161, 353.7775
530.6982, 352.7346
531.1804, 353.7791
531.6625, 357.6167
532.1446, 360.7111
532.6267, 361.0410
533.1088, 360.5090
533.5909, 360.8632
534.0731, 363.2678
534.5552, 365.4259
535.0373, 367.1427
535.5194, 368.5097
536.0015, 369.8179
536.4836, 370.9936
536.9658, 372.2639
537.4479, 373.9324
537.9300, 375.9266
538.4121, 376.5963
538.8942, 375.7466
539.3763, 374.3374
539.8585, 373.1243
540.3406, 372.0471
540.8227, 370.8643
541.3048, 369.6169
541.7869, 367.9404
542.2690, 364.8727
542.7512, 360.9907
543.2333, 357.7520
543.7154, 356.5419
544.1975, 355.5700
544.6796, 353.4779
545.1617, 350.3721
545.6439, 346.7939
546.1260, 341.7211
546.6081, 337.2212
547.0902, 334.8360
547.5723, 335.4145
548.0544, 335.3043
548.5366, 333.7628
549.0187, 331.4374
549.5008, 328.8526
549.9829, 325.6239
550.4650, 322.8387
550.9471, 320.6187
551.4293, 318.8828
551.9114, 317.5089
552.3935, 316.6161
552.8756, 315.5190
553.3577, 313.9546
553.8398, 311.9760
554.3220, 309.6579
554.8041, 306.9722
555.2862, 304.5315
555.7683, 302.9397
556.2504, 301.8920
556.7325, 300.8600
557.2147, 299.8500
557.6968, 298.4305
558.1789, 295.5091
558.6610, 292.1117
559.1431, 289.7801
559.6252, 290.7827
560.1074, 291.1914
560.5895, 288.6965
561.0716, 284.2198
561.5537, 280.9047
562.0358, 280.4643
562.5179, 280.1924
563.0001, 279.0851
563.4822, 277.0389
563.9643, 275.3120
564.4464, 273.9384
564.9285, 272.8369
565.4106, 271.9899
565.8928, 271.4437
566.3749, 270.8412
566.8570, 270.1493
567.3391, 269.3950
567.8212, 268.6331
568.3033, 267.8484
568.7855, 266.9727
569.2676, 265.9367
569.7497, 264.8331
570.2318, 263.8532
570.7139, 262.9494
571.1960, 261.8323
571.6782, 259.8185
572.1603, 257.8795
572.6424, 256.9516
573.1245, 257.1605
573.6066, 257.4295
574.0887, 257.6042
574.5709, 257.5183
575.0530, 257.0331
575.5351, 255.4991
576.0172, 254.4784
576.4993, 254.1873
576.9814, 254.3422
577.4636, 254.5234
577.9457, 254.7675
578.4278, 254.9512
578.9099, 255.0781
579.3920, 255.1104
579.8741, 254.7827
580.3563, 254.0581
580.8384, 253.4906
581.3205, 253.4306
581.8026, 253.7809
582.2847, 254.3519
582.7668, 255.1436
583.2490, 255.8722
583.7311, 256.6033
584.2131, 257.0150
584.6953, 256.4958
585.1774, 254.2944
585.6595, 252.6108
586.1416, 253.2677
586.6237, 255.0033
587.1058, 255.9144
587.5880, 254.8202
588.0701, 253.6661
588.5522, 252.6951
589.0343, 251.9699
589.5164, 251.8845
589.9985, 252.9226
590.4807, 253.7825
590.9628, 253.8880
591.4449, 253.2224
591.9270, 252.5537
592.4091, 251.8589
592.8912, 251.2484
593.3734, 250.8060
593.8555, 250.5275
594.3376, 250.6427
594.8197, 251.4232
595.3018, 251.6055
595.7839, 248.8071
596.2661, 244.5139
596.7482, 241.6017
597.2303, 242.4555
597.7124, 243.6939
598.1945, 243.4356
598.6766, 241.9967
599.1588, 240.2713
599.6409, 237.5117
600.1230, 235.4823
600.6051, 235.2317
601.0872, 236.9001
601.5693, 237.8614
602.0515, 237.8242
602.5336, 237.4604
603.0157, 237.0518
603.4978, 236.4996
603.9799, 236.6938
604.4620, 237.9486
604.9442, 239.1293
605.4263, 238.6909
605.9084, 236.8241
606.3905, 234.5935
606.8726, 231.9410
607.3547, 229.5864
607.8369, 228.5006
608.3190, 228.4102
608.8011, 228.5881
609.2832, 228.6746
609.7653, 228.9350
610.2474, 229.9453
610.7296, 231.5100
611.2117, 232.0754
611.6938, 230.3161
612.1759, 228.2129
612.6580, 226.6500
613.1401, 225.6218
613.6223, 225.1524
614.1044, 225.3294
614.5865, 225.9468
615.0686, 227.0239
615.5507, 228.6850
616.0328, 229.6628
616.5150, 229.7368
616.9971, 229.3232
617.4792, 228.8279
617.9613, 228.3300
618.4434, 228.1712
618.9255, 228.3877
619.4077, 229.0950
619.8898, 230.7003
620.3719, 232.9617
620.8540, 235.1372
621.3361, 236.9252
621.8182, 238.4403
622.3004, 239.7342
622.7825, 240.8059
623.2646, 241.6510
623.7467, 241.4389
624.2288, 241.6943
624.7109, 243.2473
625.1931, 246.5258
625.6752, 249.6472
626.1573, 252.5294
626.6394, 255.4158
627.1215, 258.6947
627.6036, 262.3762
628.0858, 265.5282
628.5679, 267.8821
629.0500, 269.9849
629.5321, 272.4061
630.0142, 275.2215
630.4963, 278.6063
630.9785, 283.0468
631.4606, 287.7123
631.9427, 291.9518
632.4248, 295.8336
632.9069, 299.5844
633.3890, 303.1996
633.8712, 306.7466
634.3533, 310.3604
634.8354, 314.0682
635.3175, 317.3239
635.7996, 319.3015
636.2817, 321.7455
636.7639, 326.0680
637.2460, 333.0729
637.7281, 337.6046
638.2102, 339.3572
638.6923, 339.5787
639.1744, 339.1969
639.6566, 338.3446
640.1387, 337.9077
640.6208, 338.2194
641.1029, 338.4857
641.5850, 337.9766
642.0671, 336.7314
642.5493, 334.8111
643.0314, 332.5868
643.5135, 329.3966
643.9956, 323.9501
644.4777, 317.1451
644.9598, 311.7127
645.4420, 309.9388
645.9241, 307.9067
646.4062, 304.3651
646.8883, 299.4065
647.3704, 294.5558
647.8525, 289.6688
648.3347, 285.2778
648.8168, 281.9268
649.2989, 279.5416
649.7810, 277.1447
650.2631, 274.7259
650.7452, 272.3934
651.2274, 270.4331
651.7095, 268.6395
652.1916, 266.5447
652.6737, 264.0683
653.1558, 261.3881
653.6379, 258.3692
654.1201, 255.2911
654.6022, 252.5054
655.0843, 250.2362
655.5664, 248.1301
656.0485, 246.1561
656.5306, 244.3124
657.0128, 242.5598
657.4949, 240.9823
657.9770, 239.3411
658.4591, 237.5673
658.9412, 235.6982
659.4233, 233.9237
659.9055, 232.2524
660.3876, 230.5189
660.8697, 228.2337
661.3518, 225.8786
661.8339, 224.8227
662.3160, 225.0082
662.7982, 225.4355
663.2803, 225.9200
663.7624, 225.9935
664.2445, 224.9431
664.7266, 222.4277
665.2087, 220.3857
665.6909, 219.5561
666.1730, 219.4168
666.6551, 219.5826
667.1372, 220.4641
667.6193, 220.8685
668.1014, 220.7161
668.5836, 220.1580
669.0657, 219.2602
669.5478, 217.9747
670.0299, 216.9669
670.5120, 216.3254
670.9941, 216.1128
671.4763, 216.6884
671.9584, 217.8564
672.4405, 218.8624
672.9226, 219.6107
673.4047, 219.8642
673.8868, 218.8838
674.3690, 217.1210
674.8511, 216.1467
675.3332, 217.4197
675.8153, 218.8185
676.2974, 219.2478
676.7795, 218.6265
677.2617, 218.8367
677.7438, 220.4450
678.2259, 222.0234
678.7080, 222.8130
679.1901, 222.7676
679.6722, 222.7211
680.1544, 222.6878
680.6365, 222.5658
681.1186, 221.7598
681.6007, 220.8265
682.0828, 221.4170
682.5649, 223.9765
683.0471, 226.7857
683.5292, 228.5062
684.0113, 229.5809
684.4934, 230.4492
684.9755, 230.7310
685.4576, 231.5946
685.9398, 233.2724
686.4219, 235.7595
686.9040, 239.0635
687.3861, 243.8411
687.8682, 248.0467
688.3503, 251.0274
688.8325, 253.4892
689.3146, 257.3128
689.7967, 262.5012
690.2788, 267.7231
690.7609, 272.4982
691.2430, 276.8748
691.7252, 280.6619
692.2073, 284.1023
692.6894, 288.1389
693.1715, 292.9667
693.6536, 298.8687
694.1357, 306.3228
694.6179, 315.2844
695.1000, 324.4582
695.5821, 333.0823
696.0642, 342.2713
696.5463, 352.7623
697.0284, 364.9076
697.5106, 375.7747
697.9927, 384.7499
698.4748, 393.9282
698.9569, 405.2377
699.4390, 418.4268
699.9211, 430.8869
700.4033, 442.3425
700.8854, 453.8559
701.3675, 466.5333
701.8496, 479.9752
702.3317, 493.6136
702.8138, 507.1842
703.2960, 520.9197
703.7781, 535.7637
704.2602, 550.4949
704.7423, 563.6162
705.2244, 574.1072
705.7065, 584.0115
706.1887, 594.6799
706.6708, 604.0804
707.1529, 608.3070
707.6350, 606.6000
708.1171, 604.1664
708.5992, 602.2925
709.0814, 600.5253
709.5635, 598.7485
710.0456, 596.4794
710.5277, 591.5217
711.0098, 581.5418
711.4919, 569.4309
711.9741, 557.3092
712.4562, 545.2138
712.9383, 532.7844
713.4204, 520.2695
713.9025, 507.0114
714.3846, 492.3159
714.8668, 476.1770
715.3489, 461.0466
715.8310, 447.0563
716.3131, 433.5577
716.7952, 419.8915
717.2773, 406.2479
717.7595, 393.8833
718.2416, 382.9041
718.7237, 372.3227
719.2058, 361.1325
719.6879, 349.8710
720.1700, 339.6075
720.6522, 330.3687
721.1343, 321.8998
721.6164, 314.1723
722.0985, 306.9932
722.5806, 299.8823
723.0627, 292.1506
723.5449, 286.2290
724.0270, 283.1338
724.5091, 280.9062
724.9912, 277.5380
725.4733, 272.5748
725.9554, 269.0313
726.4376, 267.3584
726.9197, 266.5226
727.4018, 265.2560
727.8839, 263.6992
728.3660, 262.3035
728.8481, 261.1976
729.3303, 260.2149
729.8124, 258.8163
730.2945, 257.5533
730.7766, 257.2836
731.2587, 259.5941
731.7408, 261.3590
732.2230, 260.8069
732.7051, 259.5199
733.1872, 260.5398
733.6693, 264.4244
734.1514, 269.0848
734.6335, 274.4072
735.1157, 279.8573
735.5978, 283.5741
736.0799, 285.8322
736.5620, 288.9474
737.0441, 294.3969
737.5262, 300.9336
738.0084, 307.6171
738.4905, 314.3080
738.9726, 320.5282
739.4547, 325.0015
739.9368, 329.9870
740.4189, 336.5518
740.9011, 344.7321
741.3832, 353.2199
741.8653, 362.0758
742.3474, 371.2608
742.8295, 380.7715
743.3116, 390.5717
743.7938, 399.9941
744.2759, 409.0194
744.7580, 418.2194
745.2401, 428.7187
745.7222, 439.2057
746.2043, 447.4438
746.6865, 453.4730
747.1686, 459.2697
747.6507, 466.4538
748.1328, 473.4790
748.6149, 479.9244
749.0970, 486.1806
749.5792, 488.4555
750.0613, 485.0053
750.5434, 479.7454
751.0255, 475.2852
751.5076, 471.9175
751.9897, 466.2099
752.4719, 457.8928
752.9540, 448.2413
753.4361, 437.7764
753.9182, 426.8338
754.4003, 415.7323
754.8824, 404.5638
755.3646, 393.6526
755.8467, 382.9839
756.3288, 372.8722
756.8109, 364.0340
757.2930, 357.5101
757.7751, 349.9573
758.2573, 340.3546
758.7394, 330.3817
759.2215, 321.5953
759.7036, 314.0168
760.1857, 307.1792
760.6678, 301.4020
761.1500, 295.3767
761.6321, 286.6955
762.1142, 276.6407
762.5963, 268.2640
763.0784, 262.5610
763.5605, 258.1298
764.0427, 254.7157
764.5248, 251.7101
765.0069, 248.3507
765.4890, 244.2316
765.9711, 240.0523
766.4532, 235.6209
766.9354, 231.2894
767.4175, 227.5398
767.8996, 224.3960
768.3817, 221.6365
768.8638, 219.2183
769.3459, 217.1404
769.8281, 215.5875
770.3102, 214.4207
770.7923, 213.1974
771.2744, 211.5277
771.7565, 210.1305
772.2386, 209.7244
772.7208, 209.8677
773.2029, 209.7919
773.6850, 209.3577
774.1671, 208.6252
774.6492, 207.5604
775.1313, 206.2319
775.6135, 204.7400
776.0956, 203.0701
776.5777, 201.4739
777.0598, 200.1596
777.5419, 198.7349
778.0240, 196.5424
778.5062, 193.6284
778.9883, 190.1178
779.4704, 185.6509
779.9525, 181.0789
780.4346, 176.8582
780.9167, 172.9543
781.3989, 169.1789
781.8810, 165.4925
782.3631, 161.9536
782.8452, 158.7273
783.3273, 155.6439
783.8094, 151.8951
784.2916, 147.3217
784.7737, 143.6523
785.2558, 141.7949
785.7379, 140.8136
786.2200, 139.1100
786.7021, 136.8073
787.1843, 134.4236
787.6664, 131.9375
788.1485, 129.6411
788.6306, 127.5371
789.1127, 125.7289
789.5948, 124.7310
790.0770, 125.4811
790.5591, 125.6566
791.0412, 124.5027
791.5233, 122.4519
792.0054, 121.1056
792.4875, 120.4904
792.9697, 119.7537
793.4518, 118.4597
793.9339, 116.8884
794.4160, 115.3374
794.8981, 113.8791
795.3802, 112.7546
795.8624, 112.2516
796.3445, 111.9362
796.8266, 111.8637
797.3087, 111.8752
797.7908, 111.1803
798.2729, 109.1674
798.7551, 107.6180
799.2372, 107.1113
799.7193, 107.4048
800.2014, 107.8537
800.6835, 108.4116
801.1656, 108.3967
801.6478, 106.9856
802.1299, 105.1807
802.6120, 104.1566
803.0941, 103.7280
803.5762, 103.2858
804.0583, 102.2643
804.5405, 101.5213
805.0226, 101.4830
805.5047, 102.0042
805.9868, 102.7378
806.4689, 104.0481
806.9510, 104.3159
807.4332, 102.4696
807.9153, 99.56382
808.3974, 98.92192
808.8795, 100.1757
809.3616, 101.2242
809.8438, 100.6125
810.3259, 99.63620
810.8080, 99.26031
811.2901, 99.38379
811.7722, 99.63420
812.2543, 100.0882
812.7365, 100.4619
813.2186, 100.7247
813.7007, 100.8530
814.1828, 100.6740
814.6649, 100.1215
815.1470, 99.74606
815.6292, 99.66854
816.1113, 99.97929
816.5934, 101.3104
817.0755, 103.2608
817.5576, 104.4826
818.0397, 103.5773
818.5219, 102.5296
819.0040, 102.3843
819.4861, 102.9113
819.9682, 103.3272
820.4503, 103.5421
820.9324, 103.6836
821.4146, 103.6587
821.8967, 103.6643
822.3788, 104.2350
822.8609, 105.3473
823.3430, 106.7647
823.8251, 108.7031
824.3073, 110.4848
824.7894, 111.0767
825.2715, 110.9209
825.7536, 111.0073
826.2357, 111.9470
826.7178, 112.8936
827.2000, 113.5621
827.6821, 114.0884
828.1642, 114.6835
828.6463, 115.3343
829.1284, 116.1772
829.6105, 117.3767
830.0927, 118.5721
830.5748, 119.0161
831.0569, 118.8933
831.5390, 118.8524
832.0211, 119.1866
832.5032, 119.5520
832.9854, 119.6618
833.4675, 119.6558
833.9496, 119.7428
834.4317, 120.1048
834.9138, 120.3397
835.3959, 120.2340
835.8781, 120.1668
836.3602, 120.9847
836.8423, 122.6712
837.3244, 123.4968
837.8065, 122.9741
838.2886, 122.0305
838.7708, 121.6669
839.2529, 121.6513
839.7350, 121.6147
840.2171, 121.4986
840.6992, 121.2608
841.1813, 121.0610
841.6635, 120.6220
842.1456, 119.5368
842.6277, 117.3076
843.1098, 116.0764
843.5919, 116.1501
844.0740, 116.7150
844.5562, 116.8581
845.0383, 116.7010
845.5204, 116.5379
846.0025, 116.3835
846.4846, 116.4659
846.9667, 117.3220
847.4489, 118.2753
847.9310, 118.6220
848.4131, 117.9135
848.8952, 117.5797
849.3773, 117.8858
849.8594, 118.2480
850.3416, 118.0518
850.8237, 117.3275
851.3058, 117.4486
851.7879, 118.5054
852.2700, 119.7854
852.7521, 120.8233
853.2343, 121.6943
853.7164, 122.3427
854.1985, 122.7411
854.6806, 123.5886
855.1627, 125.9871
855.6448, 128.0688
856.1270, 128.7518
856.6091, 128.0008
857.0912, 127.8449
857.5733, 128.3629
858.0554, 129.0328
858.5375, 129.5710
859.0197, 130.0107
859.5018, 130.3522
859.9839, 130.6325
860.4660, 131.0830
860.9481, 131.9055
861.4302, 132.8630
861.9124, 133.8888
862.3945, 134.9565
862.8766, 135.9661
863.3587, 136.9264
863.8408, 137.7787
864.3229, 138.5338
864.8051, 139.1383
865.2872, 139.3272
865.7693, 139.1615
866.2514, 138.9830
866.7335, 138.7577
867.2156, 138.7822
867.6978, 139.5573
868.1799, 140.7386
868.6620, 141.5512
869.1441, 141.9132
869.6262, 141.6813
870.1083, 140.5147
870.5905, 138.9827
871.0726, 138.1838
871.5547, 138.0988
872.0368, 138.5795
872.5189, 139.8757
873.0010, 140.9312
873.4832, 139.9753
873.9653, 138.1027
874.4474, 137.1663
874.9295, 138.5153
875.4116, 139.3758
875.8937, 138.8835
876.3759, 137.7568
876.8580, 136.5267
877.3401, 135.1012
877.8222, 134.1727
878.3043, 133.8820
878.7864, 133.6645
879.2686, 132.5278
879.7507, 131.1499
880.2328, 131.1723
880.7149, 133.0537
881.1970, 133.9699
881.6791, 131.6496
882.1613, 128.5371
882.6434, 126.2284
883.1255, 124.7830
883.6076, 124.0766
884.0897, 124.4079
884.5718, 124.5195
885.0540, 123.2597
885.5361, 121.1306
886.0182, 119.6831
886.5003, 118.8963
886.9824, 118.5890
887.4645, 119.5090
887.9467, 120.1086
888.4288, 119.0161
888.9109, 116.4273
889.3930, 114.8869
889.8751, 115.0892
890.3572, 114.9580
890.8394, 113.6069
891.3215, 111.6651
891.8036, 110.9992
892.2857, 111.4337
892.7678, 112.0163
893.2499, 112.7640
893.7321, 112.9734
894.2142, 111.5625
894.6963, 109.3400
895.1784, 107.8839
895.6605, 108.2914
896.1426, 108.2467
896.6248, 107.3257
897.1069, 106.1384
897.5890, 105.8002
898.0711, 106.1731
898.5532, 105.8458
899.0353, 104.4496
899.5175, 102.8533
899.9996, 101.6669
900.4817, 100.8344
900.9638, 100.3819
901.4459, 100.5777
901.9280, 100.3044
902.4102, 98.98190
902.8923, 97.72088
903.3744, 97.48763
903.8565, 98.31379
904.3386, 98.10548
904.8207, 96.81883
905.3029, 95.70049
905.7850, 95.83841
906.2671, 96.60735
906.7492, 97.57030
907.2313, 98.63367
907.7134, 99.19998
908.1956, 98.99345
908.6777, 98.29854
909.1598, 96.84061
909.6419, 94.98235
910.1240, 94.83540
910.6061, 96.43262
911.0883, 97.66244
911.5704, 97.34322
912.0525, 96.50908
912.5346, 96.45895
913.0167, 96.92789
913.4988, 97.34129
913.9810, 97.52715
914.4631, 97.59489
914.9452, 97.47456
915.4273, 97.31445
915.9094, 97.26853
916.3915, 97.31780
916.8737, 97.86366
917.3558, 99.09261
917.8379, 100.2284
918.3200, 99.99245
918.8021, 99.25294
919.2842, 99.38498
919.7664, 100.8579
920.2485, 102.1996
920.7306, 102.9815
921.2127, 103.4578
921.6948, 103.7049
922.1769, 103.6955
922.6591, 103.8413
923.1412, 104.1303
923.6233, 104.7125
924.1054, 106.0652
924.5875, 107.5664
925.0696, 107.9819
925.5518, 107.5924
926.0339, 108.0330
926.5160, 111.5456
926.9981, 114.1384
927.4802, 113.8007
927.9623, 111.7643
928.4445, 112.0338
928.9266, 114.8121
929.4087, 117.5321
929.8908, 119.6531
930.3729, 120.9684
930.8550, 120.7230
931.3372, 119.5985
931.8193, 118.7976
932.3014, 118.5967
932.7835, 118.8956
933.2656, 119.9901
933.7477, 121.3367
934.2299, 122.3905
934.7120, 123.0599
935.1941, 124.5563
935.6762, 127.0785
936.1583, 129.1836
936.6404, 128.7980
937.1226, 127.5503
937.6047, 127.8491
938.0868, 129.9061
938.5689, 131.3348
939.0510, 130.1856
939.5331, 129.5636
940.0153, 131.0943
940.4974, 134.2699
940.9795, 135.1980
941.4616, 133.8401
941.9437, 133.1983
942.4258, 135.4140
942.9080, 138.1860
943.3901, 138.1640
943.8722, 136.6238
944.3543, 136.2986
944.8364, 139.7104
945.3185, 142.1460
945.8007, 142.4686
946.2828, 141.9735
946.7649, 142.3816
947.2470, 143.6733
947.7291, 145.2227
948.2112, 147.0542
948.6934, 148.3619
949.1755, 147.9028
949.6576, 146.7868
950.1397, 146.2236
950.6218, 146.4559
951.1039, 146.7585
951.5861, 146.7926
952.0682, 147.2088
952.5503, 148.3870
953.0324, 150.2391
953.5145, 152.4951
953.9966, 155.0531
954.4788, 156.8056
954.9609, 156.2699
955.4430, 155.4665
955.9251, 156.0301
956.4072, 157.5997
956.8893, 159.1923
957.3715, 160.5190
957.8536, 162.1336
958.3357, 164.2822
958.8178, 166.4556
959.2999, 167.8565
959.7820, 168.5618
960.2642, 168.6812
960.7463, 168.0462
961.2284, 167.9648
961.7105, 169.5304
962.1926, 171.9756
962.6747, 174.9404
963.1569, 178.7735
963.6390, 180.9390
964.1211, 181.0280
964.6032, 180.5917
965.0853, 180.1187
965.5674, 179.9605
966.0496, 181.5883
966.5317, 184.6390
967.0138, 187.4434
967.4959, 188.7780
967.9780, 189.9931
968.4601, 191.7657
968.9423, 193.8584
969.4244, 195.7090
969.9065, 197.3962
970.3886, 198.4873
970.8707, 198.7764
971.3528, 198.8762
971.8350, 199.6341
972.3171, 200.7947
972.7992, 201.9116
973.2813, 202.8938
973.7634, 203.8930
974.2455, 204.8872
974.7277, 206.0001
975.2098, 207.4373
975.6919, 209.2119
976.1740, 210.0356
976.6561, 209.8634
977.1382, 209.7076
977.6204, 210.3082
978.1025, 211.1891
978.5846, 211.8479
979.0667, 212.3091
979.5488, 212.6718
980.0309, 213.0327
980.5131, 213.1737
980.9952, 213.0217
981.4773, 212.6783
981.9594, 212.1206
982.4415, 211.4360
982.9236, 211.5661
983.4058, 212.8409
983.8879, 213.8650
984.3700, 213.1395
984.8521, 211.8111
985.3342, 210.8805
985.8163, 210.5036
986.2985, 210.5651
986.7806, 211.2806
987.2627, 211.9387
987.7448, 212.1908
988.2269, 212.1060
988.7090, 211.9041
989.1912, 211.5604
989.6733, 210.9618
990.1554, 209.3669
990.6375, 208.2538
991.1196, 208.8869
991.6017, 210.2793
992.0839, 210.6911
992.5660, 209.8841
993.0481, 209.1398
993.5302, 208.5996
994.0123, 208.1352
994.4944, 207.5896
994.9766, 207.0212
995.4587, 206.5639
995.9408, 206.2477
996.4229, 205.7890
996.9050, 204.7602
997.3871, 203.9377
997.8693, 203.8222
998.3514, 204.2009
998.8335, 203.4973
999.3156, 201.8119
999.7977, 200.9298
1000.280, 202.3468
1000.762, 203.9615
1001.244, 203.7079
1001.726, 202.3425
1002.208, 201.1299
1002.690, 200.2188
1003.173, 199.6666
1003.655, 199.5943
1004.137, 199.6589
1004.619, 199.4615
1005.101, 199.1081
1005.583, 198.9380
1006.065, 198.9721
1006.547, 199.2489
1007.029, 200.0541
1007.512, 200.8569
1007.994, 201.3084
1008.476, 201.4817
1008.958, 201.7368
1009.440, 202.1322
1009.922, 202.0962
1010.404, 201.1106
1010.886, 200.3698
1011.369, 202.1861
1011.851, 205.2302
1012.333, 207.2178
1012.815, 207.2028
1013.297, 207.0370
1013.779, 206.9716
1014.261, 206.9856
1014.743, 206.9726
1015.225, 206.9635
1015.708, 207.6533
1016.190, 209.0039
1016.672, 210.3702
1017.154, 211.1497
1017.636, 211.9386
1018.118, 213.1631
1018.600, 214.7421
1019.082, 216.4731
1019.565, 218.6854
1020.047, 220.0068
1020.529, 219.9794
1021.011, 219.5732
1021.493, 220.2256
1021.975, 221.4842
1022.457, 222.1916
1022.939, 222.0043
1023.421, 222.6306
1023.904, 225.9691
1024.386, 229.1803
1024.868, 230.8315
1025.350, 231.0638
1025.832, 230.9895
1026.314, 230.6172
1026.796, 230.5234
1027.278, 230.9398
1027.760, 231.8131
1028.243, 233.7090
1028.725, 235.8458
1029.207, 236.8776
1029.689, 235.6479
1030.171, 234.7959
1030.653, 234.3802
1031.135, 234.3045
1031.617, 234.4754
1032.100, 234.9103
1032.582, 235.7771
1033.064, 237.0477
1033.546, 238.2733
1034.028, 239.1340
1034.510, 239.9909
1034.992, 240.9522
1035.474, 242.0521
1035.957, 243.3251
1036.439, 244.7802
1036.921, 246.5327
1037.403, 248.6558
1037.885, 250.9718
1038.367, 253.1982
1038.849, 255.5322
1039.331, 258.1660
1039.813, 261.2278
1040.296, 264.4048
1040.778, 267.7939
1041.260, 270.9875
1041.742, 273.2326
1042.224, 275.2661
1042.706, 280.0068
1043.188, 286.7909
1043.670, 293.3203
1044.152, 298.1021
1044.635, 302.7481
1045.117, 307.9721
1045.599, 313.3299
1046.081, 318.2118
1046.563, 322.6156
1047.045, 326.7246
1047.527, 330.4464
1048.009, 335.1295
1048.492, 342.7192
1048.974, 351.3143
1049.456, 359.1672
1049.938, 366.1860
1050.420, 372.3198
1050.902, 376.9120
1051.384, 382.3936
1051.866, 389.7906
1052.349, 397.7491
1052.831, 403.5874
1053.313, 407.8561
1053.795, 412.0633
1054.277, 416.5472
1054.759, 420.8944
1055.241, 424.8841
1055.723, 428.6739
1056.205, 432.4987
1056.688, 436.3322
1057.170, 439.1231
1057.652, 440.8781
1058.134, 442.3795
1058.616, 444.9267
1059.098, 446.4677
1059.580, 443.8367
1060.062, 439.1323
1060.544, 436.4311
1061.027, 438.3402
1061.509, 437.8379
1061.991, 434.0959
1062.473, 429.5629
1062.955, 426.7034
1063.437, 424.7832
1063.919, 422.3269
1064.401, 419.2748
1064.884, 415.7682
1065.366, 411.4678
1065.848, 407.2620
1066.330, 403.7153
1066.812, 400.2943
1067.294, 395.3553
1067.776, 389.1935
1068.258, 384.9009
1068.740, 383.5768
1069.223, 381.7251
1069.705, 374.8012
1070.187, 367.3955
1070.669, 364.1564
1071.151, 365.5305
1071.633, 364.3024
1072.115, 360.0444
1072.597, 355.1573
1073.079, 350.4541
1073.562, 346.0428
1074.044, 341.9841
1074.526, 338.3281
1075.008, 335.0970
1075.490, 332.6097
1075.972, 330.1158
1076.454, 327.8374
1076.936, 325.0964
1077.419, 320.9332
1077.901, 315.7903
1078.383, 311.6103
1078.865, 308.3374
1079.347, 305.6255
1079.829, 303.9316
1080.311, 302.0233
1080.793, 299.0929
1081.275, 295.6988
1081.758, 292.6734
1082.240, 289.9989
1082.722, 287.6225
1083.204, 285.5635
1083.686, 283.4595
1084.168, 281.0348
1084.650, 278.3188
1085.132, 274.8765
1085.615, 270.8426
1086.097, 268.7671
1086.579, 269.7156
1087.061, 269.3965
1087.543, 266.3211
1088.025, 262.0183
1088.507, 259.0529
1088.989, 256.6436
1089.471, 253.1664
1089.953, 247.7075
1090.436, 243.3628
1090.918, 241.9701
1091.400, 240.1948
1091.882, 235.9354
1092.364, 229.9258
1092.846, 225.6950
1093.328, 222.9016
1093.810, 219.7525
1094.293, 215.0207
1094.775, 210.3077
1095.257, 206.1209
1095.739, 202.4622
1096.221, 199.4684
1096.703, 197.2745
1097.185, 194.2814
1097.667, 190.4202
1098.150, 186.7690
1098.632, 184.2954
1099.114, 182.2814
1099.596, 180.1649
1100.078, 177.9807
1100.560, 175.9835
1101.042, 174.6137
1101.524, 172.0400
1102.006, 167.6703
1102.489, 163.2286
1102.971, 160.7069
1103.453, 159.2659
1103.935, 157.9361
1104.417, 156.5722
1104.899, 154.3953
1105.381, 149.9757
1105.863, 146.6297
1106.345, 145.5686
1106.828, 145.6556
1107.310, 144.6427
1107.792, 142.7496
1108.274, 140.5805
1108.756, 138.1488
1109.238, 135.9520
1109.720, 134.3748
1110.202, 132.9907
1110.685, 131.5221
1111.167, 130.0242
1111.649, 129.2744
1112.131, 129.1505
1112.613, 128.3145
1113.095, 125.7169
1113.577, 123.1034
1114.059, 121.7339
1114.542, 121.0702
1115.024, 120.5377
1115.506, 120.2142
1115.988, 119.4570
1116.470, 118.2545
1116.952, 116.7290
1117.434, 114.4302
1117.916, 112.2839
1118.398, 111.6073
1118.880, 111.8492
1119.363, 111.6132
1119.845, 110.0684
1120.327, 109.5921
1120.809, 110.7303
1121.291, 111.7192
1121.773, 110.3868
1122.255, 107.8847
1122.737, 106.0408
1123.220, 104.9479
1123.702, 104.3931
1124.184, 104.9079
1124.666, 105.1836
1125.148, 105.0325
1125.630, 104.4825
1126.112, 103.3611
1126.594, 101.8916
1127.077, 100.7597
1127.559, 100.0642
1128.041, 99.55319
1128.523, 99.32436
1129.005, 98.98937
1129.487, 98.30943
1129.969, 97.44204
1130.451, 96.97081
1130.933, 96.80799
1131.416, 96.20370
1131.898, 94.78019
1132.380, 93.60623
1132.862, 93.78965
1133.344, 94.19015
1133.826, 93.92400
1134.308, 93.01009
1134.790, 91.72056
1135.272, 90.02984
1135.755, 88.75517
1136.237, 88.41116
1136.719, 88.24500
1137.201, 87.39324
1137.683, 86.38613
1138.165, 86.03311
1138.647, 86.68068
1139.129, 86.45024
1139.612, 85.17264
1140.094, 84.16154
1140.576, 84.76235
1141.058, 85.66637
1141.540, 85.14486
1142.022, 83.66385
1142.504, 82.18294
1142.986, 80.47693
1143.469, 79.68642
1143.951, 80.04953
1144.433, 80.66483
1144.915, 81.16922
1145.397, 81.18559
1145.879, 79.29983
1146.361, 76.15434
1146.843, 74.40893
1147.325, 76.56208
1147.807, 77.76331
1148.290, 77.15873
1148.772, 75.91051
1149.254, 75.48759
1149.736, 75.53285
1150.218, 75.05284
1150.700, 74.01082
1151.182, 72.98086
1151.664, 72.00443
1152.147, 71.37260
1152.629, 71.26269
1153.111, 71.40435
1153.593, 71.37129
1154.075, 71.16053
1154.557, 70.68047
1155.039, 69.89677
1155.521, 69.25003
1156.004, 68.77497
1156.486, 68.77999
1156.968, 69.67121
1157.450, 70.96646
1157.932, 70.97063
1158.414, 69.89132
1158.896, 69.26053
1159.378, 69.54345
1159.860, 69.87736
1160.343, 69.92290
1160.825, 69.56709
1161.307, 68.40031
1161.789, 66.69181
1162.271, 66.92385
1162.753, 68.98608
1163.235, 70.27222
1163.717, 69.64615
1164.199, 68.48698
1164.682, 67.12132
1165.164, 66.35904
1165.646, 67.44016
1166.128, 70.52030
1166.610, 71.57568
1167.092, 70.54620
1167.574, 68.81430
1168.056, 66.15984
1168.539, 64.43245
1169.021, 66.59425
1169.503, 70.10798
1169.985, 71.25822
1170.467, 69.30882
1170.949, 67.61573
1171.431, 66.14442
1171.913, 65.36519
1172.396, 66.27053
1172.878, 67.41128
1173.360, 67.10190
1173.842, 65.96270
1174.324, 65.19120
1174.806, 65.00944
1175.288, 64.83273
1175.770, 64.58093
1176.252, 64.70102
1176.734, 65.96548
1177.217, 67.48759
1177.699, 68.31419
1178.181, 68.47059
1178.663, 67.99263
1179.145, 66.50522
1179.627, 65.37904
1180.109, 64.72694
1180.591, 64.38676
1181.074, 64.36941
1181.556, 64.47436
1182.038, 64.25455
1182.520, 64.68975
1183.002, 64.06884
1183.484, 65.49252
1183.966, 66.52761
1184.448, 66.99899
1184.931, 66.99266
1185.413, 66.04395
1185.895, 64.97179
1186.377, 65.58542
1186.859, 67.67043
1187.341, 68.41763
1187.823, 66.34599
1188.305, 64.85939
1188.787, 64.64785
1189.270, 65.09364
1189.752, 65.61473
1190.234, 66.08100
1190.716, 66.24016
1191.198, 66.07465
1191.680, 65.87313
1192.162, 65.62739
1192.644, 65.50245
1193.126, 65.59459
1193.609, 65.71450
1194.091, 65.41896
1194.573, 64.98099
1195.055, 65.00903
1195.537, 65.62600
1196.019, 65.91529
1196.501, 65.41469
1196.983, 65.06687
1197.466, 65.22779
1197.948, 65.55905
1198.430, 65.44416
1198.912, 65.03114
1199.394, 64.48455
1199.876, 63.74574
1200.358, 63.71321
1200.840, 65.22013
1201.323, 66.22176
1201.805, 65.80191
1202.287, 64.68990
1202.769, 64.15972
1203.251, 64.15158
1203.733, 64.67509
1204.215, 65.95993
1204.697, 66.71504
1205.179, 66.68663
1205.661, 66.20573
1206.144, 65.19081
1206.626, 64.07178
1207.108, 63.98087
1207.590, 64.53089
1208.072, 64.87111
1208.554, 64.65855
1209.036, 64.61980
1209.518, 64.85653
1210.001, 65.30812
1210.483, 66.22662
1210.965, 67.07552
1211.447, 65.92026
1211.929, 63.78327
1212.411, 63.02496
1212.893, 65.21090
1213.375, 66.34476
1213.858, 65.55567
1214.340, 64.60895
1214.822, 64.55372
1215.304, 64.97923
1215.786, 64.89992
1216.268, 64.51186
1216.750, 64.24622
1217.232, 64.22570
1217.714, 64.38720
1218.197, 64.83092
1218.679, 65.19815
1219.161, 65.24701
1219.643, 65.07331
1220.125, 64.83567
1220.607, 64.54795
1221.089, 64.22295
1221.571, 63.53931
1222.053, 63.54757
1222.536, 64.56409
1223.018, 65.55508
1223.500, 65.97437
1223.982, 65.81281
1224.464, 64.46080
1224.946, 62.58741
1225.428, 61.71608
1225.910, 63.04221
1226.393, 64.22230
1226.875, 65.23627
1227.357, 66.03676
1227.839, 66.75733
1228.321, 67.12959
1228.803, 66.35918
1229.285, 64.94571
1229.767, 64.03072
1230.250, 63.77691
1230.732, 64.48917
1231.214, 66.54328
1231.696, 68.13132
1232.178, 67.33169
1232.660, 65.62251
1233.142, 64.78743
1233.624, 64.68806
1234.106, 65.05582
1234.589, 66.29640
1235.071, 66.65836
1235.553, 65.93587
1236.035, 65.23347
1236.517, 65.51726
1236.999, 66.19210
1237.481, 66.78659
1237.963, 67.19676
1238.445, 67.16902
1238.928, 66.55561
1239.410, 65.93970
1239.892, 65.28207
1240.374, 65.09447
1240.856, 66.14725
1241.338, 67.48769
1241.820, 68.67690
1242.302, 69.36253
1242.785, 68.71010
1243.267, 66.20333
1243.749, 65.26187
1244.231, 66.07699
1244.713, 66.94575
1245.195, 66.21450
1245.677, 65.49167
1246.159, 66.50903
1246.641, 65.87710
1247.124, 65.78976
1247.606, 66.26527
1248.088, 65.70090
1248.570, 66.56344
1249.052, 67.52544
1249.534, 67.47781
1250.016, 67.50939
1250.498, 68.74105
1250.980, 70.15499
1251.463, 70.08804
1251.945, 68.58367
1252.427, 68.84329
1252.909, 70.83471
1253.391, 72.73463
1253.873, 74.13596
1254.355, 74.29503
1254.837, 71.89999
1255.320, 68.94065
1255.802, 67.59108
1256.284, 67.66188
1256.766, 68.15100
1257.248, 68.97990
1257.730, 69.92149
1258.212, 71.56419
1258.694, 72.26323
1259.177, 71.22119
1259.659, 69.72148
1260.141, 68.96242
1260.623, 68.86507
1261.105, 69.45061
1261.587, 70.52026
1262.069, 71.19273
1262.551, 70.86417
1263.033, 70.37962
1263.516, 69.70222
1263.998, 69.22715
1264.480, 69.46111
1264.962, 70.12284
1265.444, 70.80964
1265.926, 71.41282
1266.408, 71.61391
1266.890, 70.86899
1267.372, 70.63553
1267.855, 71.14265
1268.337, 71.65178
1268.819, 71.39574
1269.301, 70.84634
1269.783, 70.51705
1270.265, 70.45253
1270.747, 70.78313
1271.229, 71.64840
1271.712, 72.54296
1272.194, 73.53992
1272.676, 73.84094
1273.158, 71.77163
1273.640, 69.70263
1274.122, 70.11875
1274.604, 72.06992
1275.086, 73.72765
1275.568, 75.16368
1276.051, 75.26157
1276.533, 73.98348
1277.015, 73.05702
1277.497, 74.43486
1277.979, 75.60338
1278.461, 74.40921
1278.943, 72.51418
1279.425, 72.01865
1279.907, 72.89273
1280.390, 73.82038
1280.872, 74.67594
1281.354, 74.64698
1281.836, 71.80803
1282.318, 69.97371
1282.800, 71.27719
1283.282, 73.25156
1283.764, 73.70556
1284.247, 73.02199
1284.729, 73.16676
1285.211, 73.90244
1285.693, 74.30149
1286.175, 73.38457
1286.657, 73.09464
1287.139, 74.00198
1287.621, 74.79418
1288.104, 74.02855
1288.586, 72.68623
1289.068, 73.24808
1289.550, 74.85001
1290.032, 75.46559
1290.514, 73.51675
1290.996, 72.72543
1291.478, 73.39880
1291.960, 73.94549
1292.443, 73.01989
1292.925, 71.77482
1293.407, 71.56688
1293.889, 72.03953
1294.371, 72.73513
1294.853, 73.74635
1295.335, 74.00496
1295.817, 73.49007
1296.299, 73.08611
1296.782, 73.38939
1297.264, 73.73332
1297.746, 73.64917
1298.228, 73.31197
1298.710, 72.83459
1299.192, 72.25643
1299.674, 72.25277
1300.156, 72.72917
1300.639, 73.06916
1301.121, 73.00056
1301.603, 72.82487
1302.085, 72.69099
1302.567, 72.49184
1303.049, 72.17538
1303.531, 71.73115
##END=



