##NAMES=Triplite
##RRUFFID=R070645
##IDEAL CHEMISTRY=Mn^2+^_2_(PO_4_)F
##LOCALITY=10 km east of Shah Nassir Peak, Braldu Valley, Baltistan, Northern Areas, Pakistan
##OWNER=RRUFF
##SOURCE=Dudley Blauwet Gems
##DESCRIPTION=Reddish-orange translucent fragment
##STATUS=The identification of this mineral is confirmed by single-crystal X-ray diffraction and chemical analysis.
##URL=rruff.info/R070645
##MEASURED CHEMISTRY=(Mn^2+^_1.55_Fe^2+^_0.25_Ca_0.20_)_Σ=2_(P_1.00_O_4_)(F_0.85_(OH)_0.15_)_Σ=1_ ; OH not measured but estimated by difference and charge balance
106.9614, 1152.645
107.4435, 1202.104
107.9257, 1230.087
108.4078, 1280.323
108.8899, 1361.825
109.3720, 1461.283
109.8541, 1569.741
110.3362, 1707.033
110.8183, 1835.005
111.3005, 1951.579
111.7826, 2060.861
112.2647, 2142.098
112.7468, 2198.532
113.2289, 2224.022
113.7110, 2210.394
114.1932, 2128.161
114.6753, 2025.261
115.1574, 1923.930
115.6395, 1824.230
116.1216, 1728.949
116.6037, 1629.460
117.0859, 1532.102
117.5680, 1459.937
118.0501, 1445.226
118.5322, 1450.785
119.0143, 1442.304
119.4964, 1383.876
119.9786, 1326.184
120.4607, 1304.928
120.9428, 1320.835
121.4249, 1342.748
121.9070, 1350.219
122.3891, 1348.881
122.8713, 1348.895
123.3534, 1352.009
123.8355, 1360.193
124.3176, 1376.629
124.7997, 1402.945
125.2818, 1433.928
125.7640, 1466.626
126.2461, 1500.426
126.7282, 1532.440
127.2103, 1559.940
127.6924, 1583.977
128.1745, 1605.830
128.6567, 1622.223
129.1388, 1637.473
129.6209, 1665.242
130.1030, 1708.242
130.5851, 1747.724
131.0672, 1757.895
131.5494, 1742.046
132.0315, 1725.992
132.5136, 1716.841
132.9957, 1714.351
133.4778, 1720.010
133.9599, 1736.228
134.4421, 1754.396
134.9242, 1760.864
135.4063, 1754.849
135.8884, 1743.341
136.3705, 1728.004
136.8526, 1708.464
137.3348, 1691.618
137.8169, 1679.094
138.2990, 1669.111
138.7811, 1655.149
139.2632, 1636.559
139.7453, 1615.430
140.2275, 1593.978
140.7096, 1574.964
141.1917, 1547.343
141.6738, 1504.814
142.1559, 1447.428
142.6380, 1404.546
143.1201, 1380.127
143.6023, 1366.712
144.0844, 1356.265
144.5665, 1351.311
145.0486, 1345.078
145.5307, 1333.809
146.0128, 1311.142
146.4950, 1301.828
146.9771, 1315.272
147.4592, 1341.179
147.9413, 1354.001
148.4234, 1338.507
148.9055, 1323.888
149.3877, 1322.173
149.8698, 1362.327
150.3519, 1380.722
150.8340, 1359.240
151.3161, 1305.141
151.7982, 1277.686
152.2804, 1300.845
152.7625, 1338.753
153.2446, 1367.968
153.7267, 1376.287
154.2088, 1385.443
154.6909, 1400.380
155.1731, 1422.064
155.6552, 1442.574
156.1373, 1455.186
156.6194, 1467.235
157.1015, 1487.260
157.5836, 1530.184
158.0658, 1570.810
158.5479, 1597.214
159.0300, 1601.955
159.5121, 1609.724
159.9942, 1632.415
160.4763, 1663.370
160.9585, 1689.104
161.4406, 1703.660
161.9227, 1711.952
162.4048, 1716.691
162.8869, 1715.264
163.3690, 1714.733
163.8512, 1717.488
164.3333, 1723.559
164.8154, 1733.211
165.2975, 1752.022
165.7796, 1772.475
166.2617, 1786.987
166.7439, 1779.256
167.2260, 1774.659
167.7081, 1796.464
168.1902, 1844.745
168.6723, 1887.474
169.1544, 1896.866
169.6366, 1887.894
170.1187, 1884.432
170.6008, 1896.751
171.0829, 1919.675
171.5650, 1951.625
172.0471, 1994.912
172.5293, 2034.907
173.0114, 2056.938
173.4935, 2065.273
173.9756, 2071.639
174.4577, 2083.840
174.9398, 2097.888
175.4220, 2107.113
175.9041, 2107.582
176.3862, 2107.908
176.8683, 2122.697
177.3504, 2148.968
177.8326, 2169.134
178.3147, 2161.558
178.7968, 2138.536
179.2789, 2128.183
179.7610, 2148.903
180.2431, 2177.896
180.7253, 2176.112
181.2074, 2143.488
181.6895, 2103.189
182.1716, 2074.168
182.6537, 2054.994
183.1358, 2039.332
183.6179, 2027.913
184.1001, 2018.256
184.5822, 2003.295
185.0643, 1982.121
185.5464, 1960.156
186.0285, 1945.072
186.5106, 1936.057
186.9928, 1925.169
187.4749, 1904.225
187.9570, 1876.929
188.4391, 1862.410
188.9212, 1866.396
189.4033, 1873.426
189.8855, 1853.080
190.3676, 1805.245
190.8497, 1758.852
191.3318, 1734.739
191.8139, 1730.772
192.2960, 1726.058
192.7782, 1721.104
193.2603, 1710.944
193.7424, 1680.044
194.2245, 1625.965
194.7066, 1566.880
195.1887, 1515.901
195.6709, 1473.088
196.1530, 1434.250
196.6351, 1398.508
197.1172, 1366.151
197.5993, 1338.674
198.0814, 1316.410
198.5636, 1297.945
199.0457, 1284.877
199.5278, 1278.538
200.0099, 1264.411
200.4920, 1234.452
200.9741, 1190.208
201.4563, 1155.889
201.9384, 1132.197
202.4205, 1116.932
202.9026, 1110.386
203.3847, 1115.516
203.8668, 1115.295
204.3490, 1100.724
204.8311, 1069.920
205.3132, 1044.055
205.7953, 1021.109
206.2774, 1005.246
206.7595, 1007.668
207.2417, 1034.199
207.7238, 1061.172
208.2059, 1078.869
208.6880, 1087.608
209.1701, 1083.614
209.6522, 1060.594
210.1344, 1027.774
210.6165, 1014.388
211.0986, 1027.371
211.5807, 1044.534
212.0628, 1051.375
212.5449, 1043.998
213.0271, 1040.760
213.5092, 1046.092
213.9913, 1057.493
214.4734, 1059.714
214.9555, 1051.138
215.4376, 1036.307
215.9198, 1016.274
216.4019, 984.6512
216.8840, 965.3912
217.3661, 966.6692
217.8482, 987.3701
218.3303, 996.2596
218.8125, 988.1152
219.2946, 974.5208
219.7767, 967.7964
220.2588, 972.5811
220.7409, 973.7370
221.2230, 966.4202
221.7052, 949.4932
222.1873, 937.8889
222.6694, 936.8970
223.1515, 936.6129
223.6336, 922.1402
224.1157, 883.4208
224.5978, 849.1016
225.0800, 827.8109
225.5621, 821.8511
226.0442, 819.3798
226.5263, 822.8661
227.0084, 828.4144
227.4905, 828.8839
227.9727, 821.6981
228.4548, 813.6738
228.9369, 806.7787
229.4190, 800.0116
229.9011, 797.6201
230.3832, 801.6017
230.8654, 809.3572
231.3475, 814.2416
231.8296, 813.7303
232.3117, 813.9093
232.7938, 818.0974
233.2759, 829.5041
233.7581, 837.6010
234.2402, 840.7047
234.7223, 840.3265
235.2044, 842.4593
235.6865, 849.8608
236.1686, 856.1943
236.6508, 857.4731
237.1329, 850.4355
237.6150, 844.8524
238.0971, 840.1917
238.5792, 837.1594
239.0613, 841.3150
239.5435, 858.3528
240.0256, 875.8325
240.5077, 885.1017
240.9898, 883.3800
241.4719, 878.5973
241.9540, 869.9288
242.4362, 857.7967
242.9183, 850.3045
243.4004, 848.3228
243.8825, 850.0453
244.3646, 854.6284
244.8467, 865.1002
245.3289, 872.4995
245.8110, 873.0867
246.2931, 866.4825
246.7752, 869.9874
247.2573, 891.8435
247.7394, 915.6018
248.2216, 922.6758
248.7037, 899.6483
249.1858, 885.5039
249.6679, 891.4496
250.1500, 920.2716
250.6321, 940.6174
251.1143, 951.1328
251.5964, 954.1843
252.0785, 951.4654
252.5606, 938.9410
253.0427, 928.1777
253.5248, 922.0137
254.0070, 920.6848
254.4891, 922.7495
254.9712, 931.2153
255.4533, 940.5384
255.9354, 940.8038
256.4175, 923.4797
256.8997, 914.0427
257.3818, 923.9000
257.8639, 959.9401
258.3460, 981.2450
258.8281, 981.9392
259.3102, 972.7339
259.7924, 971.9436
260.2745, 983.0906
260.7566, 995.4432
261.2387, 1006.238
261.7208, 1016.288
262.2029, 1019.577
262.6851, 1011.778
263.1672, 1000.265
263.6493, 1000.052
264.1314, 1013.273
264.6135, 1032.844
265.0956, 1058.392
265.5778, 1092.924
266.0599, 1118.560
266.5420, 1131.569
267.0241, 1137.799
267.5062, 1150.912
267.9883, 1172.820
268.4705, 1196.231
268.9526, 1217.713
269.4347, 1236.798
269.9168, 1254.940
270.3989, 1272.022
270.8810, 1288.094
271.3632, 1303.865
271.8453, 1319.730
272.3274, 1333.772
272.8095, 1342.137
273.2916, 1342.142
273.7737, 1356.212
274.2559, 1391.539
274.7380, 1437.100
275.2201, 1464.059
275.7022, 1469.213
276.1843, 1467.547
276.6664, 1467.844
277.1486, 1470.533
277.6307, 1470.592
278.1128, 1469.127
278.5949, 1463.520
279.0770, 1443.378
279.5591, 1405.839
280.0413, 1369.225
280.5234, 1349.345
281.0055, 1346.565
281.4876, 1333.007
281.9697, 1302.036
282.4518, 1261.576
282.9340, 1232.433
283.4161, 1215.715
283.8982, 1200.807
284.3803, 1178.966
284.8624, 1150.776
285.3445, 1127.023
285.8266, 1111.390
286.3087, 1099.084
286.7909, 1076.943
287.2730, 1044.270
287.7551, 1013.542
288.2372, 997.3608
288.7193, 993.2688
289.2014, 982.9649
289.6836, 961.9973
290.1657, 934.9853
290.6478, 909.1483
291.1299, 884.4107
291.6120, 865.2988
292.0941, 857.1425
292.5763, 857.8311
293.0584, 859.5514
293.5405, 862.5405
294.0226, 863.7122
294.5047, 856.0103
294.9868, 839.8406
295.4690, 822.9062
295.9511, 810.2472
296.4332, 801.1104
296.9153, 793.7595
297.3974, 788.3307
297.8795, 783.8574
298.3617, 777.2036
298.8438, 769.0002
299.3259, 764.8550
299.8080, 774.2244
300.2901, 789.8768
300.7722, 796.7172
301.2544, 786.2463
301.7365, 772.7174
302.2186, 776.5587
302.7007, 794.6482
303.1828, 808.8304
303.6649, 796.4810
304.1471, 774.5090
304.6292, 770.3113
305.1113, 800.2784
305.5934, 835.2072
306.0755, 845.0451
306.5576, 834.5804
307.0398, 824.8926
307.5219, 835.4835
308.0040, 851.6596
308.4861, 855.6272
308.9682, 836.3922
309.4503, 814.4209
309.9325, 804.5731
310.4146, 804.4951
310.8967, 805.6846
311.3788, 801.1154
311.8609, 796.8677
312.3430, 799.4720
312.8252, 817.5231
313.3073, 831.5724
313.7894, 825.4921
314.2715, 805.4891
314.7536, 791.5422
315.2357, 802.8851
315.7179, 817.4132
316.2000, 818.5646
316.6821, 794.4913
317.1642, 770.3726
317.6463, 756.3337
318.1284, 749.8497
318.6106, 743.8754
319.0927, 733.0076
319.5748, 724.1143
320.0569, 721.4752
320.5390, 729.7037
321.0211, 737.8314
321.5033, 748.1335
321.9854, 756.9630
322.4675, 754.6969
322.9496, 725.1093
323.4317, 695.0970
323.9138, 676.9152
324.3960, 678.4354
324.8781, 680.5182
325.3602, 684.6054
325.8423, 688.1000
326.3244, 684.8564
326.8065, 665.6061
327.2887, 647.0703
327.7708, 634.8886
328.2529, 631.0880
328.7350, 629.9785
329.2171, 634.8439
329.6992, 641.8581
330.1814, 642.7607
330.6635, 629.6642
331.1456, 620.0138
331.6277, 620.9146
332.1098, 638.3793
332.5919, 650.1863
333.0741, 656.7255
333.5562, 657.4945
334.0383, 651.0552
334.5204, 634.5776
335.0025, 616.1617
335.4846, 596.8758
335.9668, 574.6404
336.4489, 563.6487
336.9310, 567.9980
337.4131, 579.0985
337.8952, 583.3723
338.3773, 578.6616
338.8595, 575.1667
339.3416, 576.2545
339.8237, 581.9493
340.3058, 591.5854
340.7879, 608.2628
341.2701, 622.1870
341.7522, 617.6475
342.2343, 593.6001
342.7164, 570.8849
343.1985, 554.1249
343.6806, 544.0453
344.1628, 550.0980
344.6449, 575.4769
345.1270, 601.2212
345.6091, 604.9474
346.0912, 588.7866
346.5733, 570.8067
347.0555, 554.6522
347.5376, 541.1670
348.0197, 532.4590
348.5018, 528.4850
348.9839, 528.1229
349.4660, 534.4997
349.9482, 544.1154
350.4303, 546.4775
350.9124, 533.3698
351.3945, 515.7366
351.8766, 508.2680
352.3587, 510.5693
352.8409, 517.3557
353.3230, 527.7709
353.8051, 539.4001
354.2872, 548.5239
354.7693, 554.8159
355.2514, 557.4578
355.7336, 552.8023
356.2157, 542.6906
356.6978, 535.4481
357.1799, 540.7694
357.6620, 548.9706
358.1441, 550.2349
358.6263, 538.5949
359.1084, 525.9505
359.5905, 516.2495
360.0726, 510.1637
360.5547, 509.6599
361.0368, 523.7578
361.5190, 538.1878
362.0011, 543.3578
362.4832, 532.9093
362.9653, 523.2640
363.4474, 518.1985
363.9295, 517.1795
364.4117, 519.1233
364.8938, 525.3632
365.3759, 533.2423
365.8580, 542.5500
366.3401, 555.7501
366.8222, 564.0216
367.3044, 564.9589
367.7865, 560.9245
368.2686, 555.4404
368.7507, 545.4672
369.2328, 537.3843
369.7149, 531.5268
370.1970, 526.3510
370.6791, 531.3529
371.1613, 554.5228
371.6434, 582.1179
372.1255, 598.0873
372.6076, 597.6693
373.0897, 594.4075
373.5718, 589.6432
374.0540, 583.4678
374.5361, 583.6298
375.0182, 592.7024
375.5003, 603.7105
375.9824, 610.2446
376.4645, 611.6772
376.9467, 612.0685
377.4288, 612.8514
377.9109, 613.0999
378.3930, 606.2320
378.8751, 590.3326
379.3572, 578.2164
379.8394, 584.2574
380.3215, 606.6678
380.8036, 622.5399
381.2857, 627.1518
381.7678, 624.8836
382.2499, 621.4319
382.7321, 617.2136
383.2142, 618.3032
383.6963, 632.7712
384.1784, 655.5622
384.6605, 673.7520
385.1426, 684.8167
385.6248, 692.8469
386.1069, 703.7695
386.5890, 715.6778
387.0711, 722.7658
387.5532, 715.6170
388.0353, 704.8905
388.5175, 703.4967
388.9996, 714.0888
389.4817, 725.8159
389.9638, 729.8943
390.4459, 730.2613
390.9280, 733.2177
391.4102, 743.0260
391.8923, 754.8748
392.3744, 767.9697
392.8565, 782.4971
393.3386, 791.9584
393.8207, 790.7372
394.3029, 784.6205
394.7850, 779.2725
395.2671, 772.8461
395.7492, 770.5674
396.2313, 773.7682
396.7134, 782.4134
397.1956, 795.6305
397.6777, 822.4644
398.1598, 847.7341
398.6419, 861.8959
399.1240, 848.0437
399.6061, 844.8497
400.0883, 859.8056
400.5704, 887.3992
401.0525, 906.2242
401.5346, 910.3461
402.0167, 913.4064
402.4988, 922.2617
402.9810, 940.3957
403.4631, 954.2261
403.9452, 961.5715
404.4273, 966.2222
404.9094, 974.3158
405.3915, 985.0075
405.8737, 1002.180
406.3558, 1029.841
406.8379, 1067.957
407.3200, 1101.040
407.8021, 1128.293
408.2842, 1153.597
408.7664, 1183.526
409.2485, 1217.327
409.7306, 1245.639
410.2127, 1259.288
410.6948, 1267.819
411.1769, 1296.855
411.6591, 1346.483
412.1412, 1402.441
412.6233, 1451.048
413.1054, 1496.306
413.5875, 1548.272
414.0696, 1612.737
414.5518, 1679.748
415.0339, 1735.336
415.5160, 1782.372
415.9981, 1835.944
416.4802, 1902.792
416.9623, 1981.564
417.4445, 2072.552
417.9266, 2186.189
418.4087, 2289.495
418.8908, 2350.822
419.3729, 2391.072
419.8550, 2453.042
420.3372, 2554.630
420.8193, 2678.994
421.3014, 2822.169
421.7835, 2992.091
422.2656, 3150.454
422.7477, 3277.333
423.2299, 3395.620
423.7120, 3531.315
424.1941, 3696.690
424.6762, 3871.946
425.1583, 4059.817
425.6404, 4262.804
426.1226, 4441.242
426.6047, 4591.372
427.0868, 4721.194
427.5689, 4838.019
428.0510, 4952.931
428.5331, 5023.844
429.0153, 5041.784
429.4974, 5014.271
429.9795, 4964.969
430.4616, 4892.919
430.9437, 4802.981
431.4258, 4695.150
431.9080, 4569.566
432.3901, 4437.777
432.8722, 4296.693
433.3543, 4158.252
433.8364, 4038.010
434.3185, 3935.382
434.8007, 3840.810
435.2828, 3749.222
435.7649, 3663.808
436.2470, 3592.064
436.7291, 3534.900
437.2112, 3486.532
437.6934, 3439.873
438.1755, 3399.016
438.6576, 3371.717
439.1397, 3369.708
439.6218, 3373.026
440.1039, 3361.625
440.5861, 3339.336
441.0682, 3326.355
441.5503, 3331.848
442.0324, 3351.218
442.5145, 3382.427
442.9966, 3431.666
443.4788, 3479.937
443.9609, 3523.631
444.4430, 3562.308
444.9251, 3594.581
445.4072, 3614.448
445.8893, 3633.032
446.3715, 3655.090
446.8536, 3683.875
447.3357, 3705.882
447.8178, 3731.179
448.2999, 3743.671
448.7820, 3724.943
449.2642, 3666.681
449.7463, 3595.302
450.2284, 3515.625
450.7105, 3427.487
451.1926, 3318.859
451.6747, 3180.503
452.1568, 3044.675
452.6389, 2942.341
453.1211, 2876.239
453.6032, 2777.688
454.0853, 2627.986
454.5674, 2459.853
455.0495, 2335.406
455.5316, 2251.673
456.0138, 2169.313
456.4959, 2057.460
456.9780, 1933.130
457.4601, 1830.684
457.9422, 1753.868
458.4243, 1686.627
458.9065, 1618.258
459.3886, 1549.431
459.8707, 1480.279
460.3528, 1406.529
460.8349, 1336.582
461.3170, 1278.402
461.7992, 1230.919
462.2813, 1184.859
462.7634, 1130.004
463.2455, 1078.568
463.7276, 1041.540
464.2097, 1033.368
464.6919, 1020.324
465.1740, 989.9865
465.6561, 949.2253
466.1382, 913.9858
466.6203, 888.7706
467.1024, 866.3665
467.5846, 845.7560
468.0667, 828.5718
468.5488, 805.2690
469.0309, 770.3630
469.5130, 734.8061
469.9951, 711.7603
470.4773, 706.2411
470.9594, 697.5419
471.4415, 679.9716
471.9236, 656.2046
472.4057, 640.3707
472.8878, 633.5977
473.3700, 629.2379
473.8521, 623.1186
474.3342, 615.4314
474.8163, 608.6246
475.2984, 604.4785
475.7805, 597.1245
476.2627, 569.8473
476.7448, 529.6909
477.2269, 503.2456
477.7090, 516.2700
478.1911, 544.0377
478.6732, 557.3756
479.1554, 555.1930
479.6375, 546.2383
480.1196, 531.2049
480.6017, 514.5651
481.0838, 501.4102
481.5659, 492.3642
482.0481, 487.8581
482.5302, 493.8490
483.0123, 506.0597
483.4944, 508.2991
483.9765, 485.8144
484.4586, 460.9658
484.9408, 443.7889
485.4229, 437.8212
485.9050, 433.2728
486.3871, 428.3082
486.8692, 425.6661
487.3513, 430.6889
487.8335, 450.9783
488.3156, 462.7747
488.7977, 458.5468
489.2798, 440.0872
489.7619, 424.1113
490.2440, 410.4606
490.7262, 399.7304
491.2083, 393.7995
491.6904, 392.3023
492.1725, 387.8385
492.6546, 378.5896
493.1367, 367.8193
493.6189, 357.8826
494.1010, 349.8788
494.5831, 349.0549
495.0652, 367.5096
495.5473, 391.0243
496.0294, 396.7952
496.5116, 383.4156
496.9937, 369.1735
497.4758, 366.1753
497.9579, 369.9678
498.4400, 375.0902
498.9221, 382.9401
499.4043, 388.5555
499.8864, 389.5233
500.3685, 386.4570
500.8506, 382.1355
501.3327, 373.2308
501.8148, 366.3679
502.2970, 365.8924
502.7791, 378.2606
503.2612, 381.4100
503.7433, 369.3552
504.2254, 351.8463
504.7076, 341.3817
505.1897, 340.5715
505.6718, 340.2644
506.1539, 337.2642
506.6360, 332.8482
507.1181, 337.9977
507.6003, 355.3104
508.0824, 370.4078
508.5645, 369.8524
509.0466, 356.3714
509.5287, 348.2503
510.0108, 348.7278
510.4930, 351.9252
510.9751, 349.9667
511.4572, 343.9621
511.9393, 337.8300
512.4214, 331.2660
512.9035, 326.7095
513.3856, 327.6331
513.8677, 333.8890
514.3499, 340.8124
514.8320, 346.2134
515.3141, 350.8025
515.7962, 355.7413
516.2783, 368.8419
516.7604, 371.6357
517.2426, 347.9547
517.7247, 310.1934
518.2068, 289.3520
518.6889, 305.7232
519.1710, 322.8807
519.6531, 329.7984
520.1353, 324.2377
520.6174, 325.4072
521.0995, 339.1579
521.5816, 351.9326
522.0637, 347.0184
522.5458, 319.3986
523.0280, 304.9744
523.5101, 313.7057
523.9922, 335.0950
524.4743, 344.5298
524.9564, 342.1821
525.4385, 336.8458
525.9207, 331.5564
526.4028, 327.3387
526.8849, 328.3084
527.3670, 335.2874
527.8491, 340.3708
528.3312, 333.1628
528.8134, 320.2998
529.2955, 311.8928
529.7776, 314.9016
530.2597, 319.8271
530.7418, 321.2896
531.2239, 320.2617
531.7061, 320.4236
532.1882, 324.6753
532.6703, 329.0314
533.1524, 331.1776
533.6345, 329.4429
534.1166, 329.8253
534.5988, 336.2440
535.0809, 342.5120
535.5630, 341.1131
536.0451, 327.9536
536.5272, 317.1173
537.0093, 312.5831
537.4915, 311.9995
537.9736, 302.4626
538.4557, 281.5421
538.9378, 265.5180
539.4199, 265.6771
539.9020, 279.8173
540.3842, 300.6104
540.8663, 329.4483
541.3484, 354.0287
541.8305, 355.3614
542.3126, 341.6351
542.7947, 331.7535
543.2769, 335.4412
543.7590, 343.3141
544.2411, 348.4526
544.7232, 351.3476
545.2053, 354.2919
545.6874, 357.8890
546.1696, 362.2032
546.6517, 368.1882
547.1338, 378.4243
547.6159, 383.3278
548.0980, 373.0927
548.5801, 360.4193
549.0623, 361.1555
549.5444, 388.7425
550.0265, 406.3595
550.5086, 404.0708
550.9907, 386.4200
551.4728, 379.3411
551.9550, 384.6942
552.4371, 393.5591
552.9192, 400.1028
553.4013, 404.8515
553.8834, 415.0681
554.3655, 432.0747
554.8477, 449.8064
555.3298, 460.6206
555.8119, 466.3173
556.2940, 471.4938
556.7761, 477.3223
557.2582, 483.7328
557.7404, 493.0816
558.2225, 503.7318
558.7046, 509.0356
559.1867, 496.8739
559.6688, 484.8506
560.1509, 485.2196
560.6331, 503.1656
561.1152, 520.0121
561.5973, 532.1565
562.0794, 541.5617
562.5615, 549.9842
563.0436, 553.5665
563.5258, 562.8597
564.0079, 581.8472
564.4900, 607.1262
564.9721, 622.3813
565.4542, 621.8893
565.9363, 631.6845
566.4185, 677.8513
566.9006, 753.4259
567.3827, 785.5523
567.8648, 767.3429
568.3469, 746.5294
568.8290, 790.0593
569.3112, 869.8142
569.7933, 911.6167
570.2754, 873.3347
570.7575, 824.2477
571.2396, 829.8879
571.7217, 874.3257
572.2039, 913.7215
572.6860, 929.4373
573.1681, 933.5569
573.6502, 930.3674
574.1323, 919.5072
574.6144, 907.4567
575.0966, 886.4777
575.5787, 870.4421
576.0608, 870.5189
576.5429, 897.5791
577.0250, 918.8959
577.5071, 930.0292
577.9893, 935.8843
578.4714, 945.8505
578.9535, 959.5817
579.4356, 979.5837
579.9177, 1006.882
580.3998, 1041.299
580.8820, 1083.397
581.3641, 1133.261
581.8462, 1182.905
582.3283, 1221.503
582.8104, 1256.587
583.2925, 1301.736
583.7747, 1361.694
584.2568, 1424.796
584.7389, 1477.142
585.2210, 1528.065
585.7031, 1593.536
586.1852, 1686.291
586.6674, 1785.745
587.1495, 1886.820
587.6316, 1989.164
588.1137, 2090.879
588.5958, 2184.266
589.0779, 2285.043
589.5601, 2400.842
590.0422, 2531.974
590.5243, 2673.438
591.0064, 2827.335
591.4885, 2987.765
591.9706, 3144.850
592.4528, 3299.562
592.9349, 3467.058
593.4170, 3656.141
593.8991, 3856.037
594.3812, 4050.221
594.8633, 4238.128
595.3455, 4413.382
595.8276, 4573.919
596.3097, 4718.601
596.7918, 4853.272
597.2739, 4979.483
597.7560, 5073.486
598.2382, 5115.866
598.7203, 5127.182
599.2024, 5125.279
599.6845, 5124.061
600.1666, 5094.833
600.6487, 5029.126
601.1309, 4936.942
601.6130, 4833.968
602.0951, 4710.616
602.5772, 4600.189
603.0593, 4516.819
603.5414, 4455.711
604.0236, 4382.085
604.5057, 4293.198
604.9878, 4220.582
605.4699, 4206.391
605.9520, 4227.743
606.4341, 4215.999
606.9163, 4161.214
607.3984, 4090.970
607.8805, 4027.675
608.3626, 3967.742
608.8447, 3904.549
609.3268, 3855.835
609.8090, 3784.279
610.2911, 3665.131
610.7732, 3508.243
611.2553, 3351.603
611.7374, 3210.612
612.2195, 3060.794
612.7017, 2890.256
613.1838, 2692.234
613.6659, 2510.765
614.1480, 2346.433
614.6301, 2195.874
615.1122, 2061.360
615.5944, 1944.041
616.0765, 1824.028
616.5586, 1696.650
617.0407, 1573.178
617.5228, 1473.162
618.0049, 1392.641
618.4871, 1322.237
618.9692, 1261.915
619.4513, 1206.593
619.9334, 1150.990
620.4155, 1095.401
620.8976, 1043.749
621.3798, 1000.520
621.8619, 960.3984
622.3440, 919.7339
622.8261, 876.5276
623.3082, 838.7531
623.7903, 810.2183
624.2725, 785.1743
624.7546, 758.2695
625.2367, 727.6967
625.7188, 700.8275
626.2009, 678.3570
626.6830, 660.1207
627.1652, 648.5945
627.6473, 643.8198
628.1294, 633.7679
628.6115, 609.9553
629.0936, 578.7592
629.5757, 548.7093
630.0579, 520.6599
630.5400, 503.2421
631.0221, 509.2784
631.5042, 524.9689
631.9863, 538.8922
632.4684, 550.9446
632.9506, 554.1274
633.4327, 544.0224
633.9148, 524.7673
634.3969, 500.3742
634.8790, 459.6692
635.3611, 430.4545
635.8433, 416.7931
636.3254, 415.6015
636.8075, 420.7581
637.2896, 435.0778
637.7717, 444.0431
638.2538, 441.2431
638.7360, 428.3437
639.2181, 408.4888
639.7002, 381.6752
640.1823, 361.1285
640.6644, 360.5321
641.1465, 371.4348
641.6287, 383.0823
642.1108, 395.2804
642.5929, 400.9046
643.0750, 386.1414
643.5571, 365.7935
644.0392, 357.4652
644.5214, 383.0886
645.0035, 401.2014
645.4856, 401.5793
645.9677, 389.4217
646.4498, 376.1655
646.9319, 357.9670
647.4141, 346.5232
647.8962, 348.6902
648.3783, 362.1985
648.8604, 364.5340
649.3425, 354.4189
649.8246, 345.3343
650.3068, 352.2269
650.7889, 367.6050
651.2710, 371.4289
651.7531, 360.0715
652.2352, 346.5744
652.7173, 338.8336
653.1995, 336.4224
653.6816, 338.9747
654.1637, 359.5603
654.6458, 369.6492
655.1279, 349.6677
655.6100, 312.9177
656.0921, 294.8711
656.5742, 308.0184
657.0563, 323.3568
657.5385, 334.0836
658.0206, 340.5450
658.5027, 347.4239
658.9848, 356.0909
659.4669, 359.1553
659.9490, 345.2824
660.4312, 320.7994
660.9133, 313.1056
661.3954, 325.2283
661.8775, 339.7427
662.3596, 339.3155
662.8417, 331.5847
663.3239, 327.4861
663.8060, 331.8063
664.2881, 337.1504
664.7702, 344.2657
665.2523, 349.6809
665.7344, 347.0566
666.2166, 320.8392
666.6987, 303.6978
667.1808, 305.3930
667.6629, 321.7321
668.1450, 327.2010
668.6271, 318.3253
669.1093, 311.3179
669.5914, 317.7774
670.0735, 334.7154
670.5556, 342.2609
671.0377, 339.9004
671.5198, 335.9271
672.0020, 339.8853
672.4841, 345.9863
672.9662, 343.9133
673.4483, 327.6084
673.9304, 315.5072
674.4125, 322.8535
674.8947, 338.5003
675.3768, 347.3983
675.8589, 339.2411
676.3410, 333.1944
676.8231, 332.5865
677.3052, 335.6419
677.7874, 337.4557
678.2695, 338.3875
678.7516, 336.6867
679.2337, 329.7295
679.7158, 319.7508
680.1979, 316.6080
680.6801, 320.2867
681.1622, 327.0649
681.6443, 337.1590
682.1264, 347.4665
682.6085, 353.7756
683.0906, 355.3839
683.5728, 354.1560
684.0549, 348.9127
684.5370, 342.4850
685.0191, 337.4592
685.5012, 338.1712
685.9833, 334.8665
686.4655, 321.6667
686.9476, 307.0510
687.4297, 305.5739
687.9118, 321.9380
688.3939, 334.9328
688.8760, 340.3501
689.3582, 338.7152
689.8403, 327.0734
690.3224, 306.8268
690.8045, 293.2670
691.2866, 303.5607
691.7687, 320.6621
692.2509, 318.8009
692.7330, 299.2466
693.2151, 288.0742
693.6972, 312.6208
694.1793, 340.8205
694.6614, 349.0210
695.1436, 325.5255
695.6257, 308.3395
696.1078, 300.4208
696.5899, 298.3050
697.0720, 300.4632
697.5541, 308.9216
698.0363, 310.7411
698.5184, 302.0945
699.0005, 291.1743
699.4826, 293.6896
699.9647, 306.6063
700.4468, 315.5747
700.9290, 314.1402
701.4111, 307.6305
701.8932, 295.4035
702.3753, 281.7831
702.8574, 279.7795
703.3395, 314.6439
703.8217, 344.1593
704.3038, 344.0825
704.7859, 311.6353
705.2680, 293.6495
705.7501, 297.5752
706.2322, 305.9097
706.7144, 309.4189
707.1965, 307.4475
707.6786, 308.9318
708.1607, 314.5243
708.6428, 320.3504
709.1249, 321.0496
709.6071, 318.9699
710.0892, 321.8651
710.5713, 334.3087
711.0534, 341.5137
711.5355, 321.0303
712.0176, 291.0838
712.4998, 277.2621
712.9819, 307.2313
713.4640, 331.4372
713.9461, 336.4301
714.4282, 328.2987
714.9103, 319.3109
715.3925, 307.8862
715.8746, 299.7957
716.3567, 297.6809
716.8388, 300.0395
717.3209, 300.1121
717.8030, 297.9704
718.2852, 297.2699
718.7673, 301.5613
719.2494, 308.1754
719.7315, 313.1185
720.2136, 316.2792
720.6957, 319.3542
721.1779, 324.7563
721.6600, 329.4503
722.1421, 330.8455
722.6242, 326.9228
723.1063, 323.8885
723.5884, 320.7375
724.0706, 319.7346
724.5527, 325.0422
725.0348, 339.1432
725.5169, 343.9280
725.9990, 335.2986
726.4811, 321.4360
726.9633, 314.0743
727.4454, 311.9898
727.9275, 310.0321
728.4096, 298.2815
728.8917, 296.6734
729.3738, 342.8941
729.8560, 412.7952
730.3381, 446.2166
730.8202, 385.1405
731.3023, 323.0099
731.7844, 290.8631
732.2665, 285.4243
732.7487, 287.2729
733.2308, 300.6506
733.7129, 311.5789
734.1950, 312.4178
734.6771, 304.4224
735.1592, 296.8290
735.6414, 289.4900
736.1235, 286.9123
736.6056, 298.2129
737.0877, 314.2482
737.5698, 321.3285
738.0519, 316.7569
738.5341, 310.9566
739.0162, 305.5525
739.4983, 303.3679
739.9804, 307.2294
740.4625, 327.1506
740.9446, 337.9844
741.4268, 337.6144
741.9089, 330.0742
742.3910, 317.7859
742.8731, 299.6324
743.3552, 291.0796
743.8373, 297.3438
744.3195, 310.5513
744.8016, 321.7968
745.2837, 329.8384
745.7658, 330.8521
746.2479, 312.2548
746.7300, 295.9997
747.2122, 299.2863
747.6943, 317.1793
748.1764, 331.2525
748.6585, 336.7472
749.1406, 338.5063
749.6227, 337.1042
750.1049, 332.8030
750.5870, 328.4945
751.0691, 323.7043
751.5512, 320.6989
752.0333, 323.7896
752.5154, 329.9417
752.9976, 325.1684
753.4797, 309.4640
753.9618, 296.6706
754.4439, 300.6421
754.9260, 310.6080
755.4081, 315.7789
755.8903, 313.3601
756.3724, 311.5138
756.8545, 310.5872
757.3366, 312.4674
757.8187, 319.3199
758.3008, 335.6022
758.7830, 344.4785
759.2651, 343.2029
759.7472, 338.6973
760.2293, 341.6333
760.7114, 350.2154
761.1935, 352.9292
761.6757, 345.1707
762.1578, 335.4459
762.6399, 332.1269
763.1220, 333.3474
763.6041, 335.5884
764.0862, 342.2694
764.5684, 344.6025
765.0505, 335.2915
765.5326, 319.5498
766.0147, 312.1679
766.4968, 316.4872
766.9789, 322.1163
767.4611, 326.9606
767.9432, 330.6674
768.4253, 330.9540
768.9074, 328.0421
769.3895, 326.0828
769.8716, 329.6744
770.3538, 334.1904
770.8359, 331.1521
771.3180, 322.0765
771.8001, 318.4902
772.2822, 333.8901
772.7643, 349.3374
773.2465, 352.8738
773.7286, 342.0109
774.2107, 337.1264
774.6928, 341.1263
775.1749, 346.1172
775.6570, 345.9841
776.1392, 341.1844
776.6213, 343.6881
777.1034, 354.7387
777.5855, 363.2327
778.0676, 353.4154
778.5497, 336.5052
779.0319, 329.7135
779.5140, 338.5222
779.9961, 347.5545
780.4782, 348.9430
780.9603, 347.8693
781.4424, 349.8237
781.9246, 360.3438
782.4067, 362.9147
782.8888, 352.6048
783.3709, 340.2277
783.8530, 342.2752
784.3351, 357.9290
784.8173, 370.5478
785.2994, 376.4177
785.7815, 378.7915
786.2636, 382.6961
786.7457, 385.8918
787.2278, 384.0731
787.7100, 369.3572
788.1921, 356.1796
788.6742, 349.9943
789.1563, 349.1868
789.6384, 349.6563
790.1205, 352.0180
790.6027, 354.1351
791.0848, 355.3424
791.5669, 356.1025
792.0490, 356.9226
792.5311, 357.9754
793.0132, 362.0150
793.4954, 373.5918
793.9775, 386.6510
794.4596, 394.9982
794.9417, 398.7014
795.4238, 397.7151
795.9059, 384.6690
796.3881, 373.8734
796.8702, 374.4770
797.3523, 385.5444
797.8344, 388.7169
798.3165, 378.7411
798.7986, 373.4202
799.2808, 387.7685
799.7629, 415.8256
800.2450, 414.7419
800.7271, 385.4498
801.2092, 361.6158
801.6913, 374.3458
802.1735, 401.3266
802.6556, 420.5972
803.1377, 430.0098
803.6198, 434.8162
804.1019, 436.7392
804.5840, 434.4068
805.0662, 425.4384
805.5483, 406.5591
806.0304, 398.9354
806.5125, 405.6651
806.9946, 414.7863
807.4767, 412.7107
807.9589, 403.7017
808.4410, 408.0352
808.9231, 429.3622
809.4052, 444.8504
809.8873, 425.3557
810.3694, 396.0242
810.8516, 384.5963
811.3337, 407.3924
811.8158, 422.0422
812.2979, 416.3362
812.7800, 404.2666
813.2621, 398.4281
813.7443, 400.2191
814.2264, 399.9743
814.7085, 396.4117
815.1906, 392.3184
815.6727, 392.1120
816.1548, 394.1692
816.6370, 393.8126
817.1191, 388.3976
817.6012, 384.2918
818.0833, 387.7981
818.5654, 394.2069
819.0475, 397.1413
819.5297, 393.0295
820.0118, 388.4117
820.4939, 382.2249
820.9760, 377.0239
821.4581, 378.4506
821.9402, 386.5493
822.4223, 392.2187
822.9044, 392.9323
823.3865, 391.1380
823.8687, 389.7847
824.3508, 388.4614
824.8329, 386.2512
825.3150, 380.8714
825.7971, 376.7239
826.2792, 378.7392
826.7614, 382.5573
827.2435, 377.0950
827.7256, 353.6124
828.2077, 341.3472
828.6898, 347.3275
829.1719, 365.9637
829.6541, 392.7443
830.1362, 424.0887
830.6183, 437.5055
831.1004, 408.6994
831.5825, 373.4388
832.0646, 366.7383
832.5468, 380.0555
833.0289, 391.1780
833.5110, 396.0723
833.9931, 394.4783
834.4752, 382.1998
834.9573, 364.3123
835.4395, 360.2718
835.9216, 372.7876
836.4037, 381.5494
836.8858, 375.6806
837.3679, 364.6288
837.8500, 368.5846
838.3322, 384.6531
838.8143, 401.7404
839.2964, 420.5477
839.7785, 432.7113
840.2606, 428.7506
840.7427, 412.2268
841.2249, 404.1809
841.7070, 412.7982
842.1891, 417.2928
842.6712, 409.2884
843.1533, 392.7189
843.6354, 385.0233
844.1176, 385.7719
844.5997, 388.4023
845.0818, 389.0564
845.5639, 389.9053
846.0460, 393.8929
846.5281, 400.4564
847.0103, 406.7531
847.4924, 414.5832
847.9745, 418.9132
848.4566, 415.8179
848.9387, 406.9583
849.4208, 404.7408
849.9030, 410.6989
850.3851, 416.6754
850.8672, 418.9544
851.3493, 418.4267
851.8314, 415.7069
852.3135, 411.5393
852.7957, 410.1049
853.2778, 416.9908
853.7599, 424.6038
854.2420, 427.7559
854.7241, 426.5954
855.2062, 427.0756
855.6884, 431.0200
856.1705, 434.1354
856.6526, 434.9000
857.1347, 433.4858
857.6168, 429.5572
858.0989, 423.2870
858.5811, 419.3390
859.0632, 423.3050
859.5453, 429.1673
860.0274, 430.1426
860.5095, 426.7327
860.9916, 423.4557
861.4738, 420.4120
861.9559, 419.4955
862.4380, 422.3027
862.9201, 428.1904
863.4022, 430.2106
863.8843, 427.3306
864.3665, 426.7603
864.8486, 435.5665
865.3307, 447.8989
865.8128, 448.7777
866.2949, 440.4426
866.7770, 435.0086
867.2592, 446.7386
867.7413, 456.0212
868.2234, 447.6890
868.7055, 423.1396
869.1876, 411.6128
869.6697, 417.6651
870.1519, 427.3483
870.6340, 437.1550
871.1161, 445.7980
871.5982, 445.8471
872.0803, 438.5129
872.5624, 434.7473
873.0446, 447.8158
873.5267, 461.6081
874.0088, 460.4399
874.4909, 446.9446
874.9730, 438.3692
875.4551, 441.7990
875.9373, 447.0876
876.4194, 452.0327
876.9015, 456.7388
877.3836, 461.7748
877.8657, 467.1409
878.3478, 472.6737
878.8300, 480.8695
879.3121, 487.3080
879.7942, 483.4583
880.2763, 472.0760
880.7584, 462.8305
881.2405, 456.5880
881.7227, 456.8405
882.2048, 470.4653
882.6869, 491.8172
883.1690, 498.3389
883.6511, 485.8240
884.1332, 477.8837
884.6154, 485.8987
885.0975, 500.3831
885.5796, 503.7179
886.0617, 497.2194
886.5438, 485.3338
887.0259, 457.5739
887.5081, 437.8336
887.9902, 443.7367
888.4723, 467.3625
888.9544, 481.9696
889.4365, 483.5437
889.9186, 483.6650
890.4008, 483.8800
890.8829, 485.3728
891.3650, 493.5289
891.8471, 506.2957
892.3292, 512.9582
892.8113, 502.7126
893.2935, 493.6482
893.7756, 503.3367
894.2577, 523.1404
894.7398, 535.7718
895.2219, 531.1107
895.7040, 529.2670
896.1862, 535.2221
896.6683, 542.3959
897.1504, 533.9119
897.6325, 511.8588
898.1146, 503.4380
898.5967, 520.4813
899.0789, 542.9757
899.5610, 550.0824
900.0431, 548.3094
900.5252, 547.7833
901.0073, 553.8824
901.4894, 558.0760
901.9716, 558.6425
902.4537, 557.6337
902.9358, 557.3825
903.4179, 557.8874
903.9000, 559.1660
904.3821, 561.1308
904.8643, 564.2122
905.3464, 569.8498
905.8285, 576.6487
906.3106, 582.0150
906.7927, 583.5424
907.2748, 588.1817
907.7570, 603.7084
908.2391, 619.2285
908.7212, 624.9468
909.2033, 618.6796
909.6854, 613.0397
910.1675, 607.8848
910.6497, 606.3732
911.1318, 617.9215
911.6139, 633.3187
912.0960, 633.1907
912.5781, 612.1381
913.0602, 598.1031
913.5424, 612.6002
914.0245, 632.2341
914.5066, 638.8054
914.9887, 628.1414
915.4708, 630.7615
915.9529, 650.1717
916.4351, 669.0873
916.9172, 671.8465
917.3993, 664.7253
917.8814, 659.6252
918.3635, 657.5419
918.8456, 663.6685
919.3278, 698.7029
919.8099, 727.6121
920.2920, 721.5836
920.7741, 680.7842
921.2562, 663.6354
921.7383, 677.0594
922.2205, 693.0603
922.7026, 695.4785
923.1847, 690.5754
923.6668, 698.0791
924.1489, 715.3540
924.6310, 728.3678
925.1132, 720.7551
925.5953, 714.6373
926.0774, 725.5737
926.5595, 750.0953
927.0416, 766.0983
927.5237, 770.6085
928.0059, 774.2277
928.4880, 780.7133
928.9701, 787.3441
929.4522, 784.7892
929.9343, 776.0562
930.4164, 772.5247
930.8986, 781.8773
931.3807, 794.5632
931.8628, 801.7388
932.3449, 809.0874
932.8270, 829.9083
933.3091, 879.9919
933.7913, 908.3029
934.2734, 902.8372
934.7555, 884.2239
935.2376, 883.4028
935.7197, 897.1572
936.2018, 914.2538
936.6840, 932.2233
937.1661, 951.9823
937.6482, 977.2431
938.1303, 1002.958
938.6124, 1023.849
939.0945, 1039.287
939.5767, 1049.028
940.0588, 1050.338
940.5409, 1051.815
941.0230, 1063.802
941.5051, 1083.321
941.9872, 1096.610
942.4694, 1101.920
942.9515, 1113.728
943.4336, 1147.729
943.9157, 1188.375
944.3978, 1223.681
944.8799, 1251.103
945.3621, 1279.431
945.8442, 1307.139
946.3263, 1339.904
946.8084, 1385.090
947.2905, 1438.049
947.7726, 1477.438
948.2548, 1505.349
948.7369, 1537.653
949.2190, 1585.301
949.7011, 1639.405
950.1832, 1693.787
950.6653, 1749.484
951.1475, 1812.972
951.6296, 1882.807
952.1117, 1965.465
952.5938, 2066.863
953.0759, 2176.904
953.5580, 2269.192
954.0402, 2348.653
954.5223, 2432.563
955.0044, 2518.946
955.4865, 2623.515
955.9686, 2761.146
956.4507, 2919.854
956.9329, 3076.731
957.4150, 3218.654
957.8971, 3393.723
958.3792, 3612.042
958.8613, 3855.323
959.3434, 4087.300
959.8256, 4321.797
960.3077, 4597.201
960.7898, 4924.759
961.2719, 5283.394
961.7540, 5656.587
962.2361, 6065.592
962.7183, 6523.652
963.2004, 7033.422
963.6825, 7586.598
964.1646, 8175.061
964.6467, 8829.210
965.1288, 9586.229
965.6110, 10419.58
966.0931, 11284.05
966.5752, 12176.88
967.0573, 13151.26
967.5394, 14232.05
968.0215, 15404.48
968.5037, 16663.37
968.9858, 18007.35
969.4679, 19352.93
969.9500, 20701.96
970.4321, 22108.89
970.9142, 23616.77
971.3964, 25195.28
971.8785, 26845.99
972.3606, 28570.11
972.8427, 30380.48
973.3248, 32324.93
973.8069, 34335.08
974.2891, 36412.80
974.7712, 38536.63
975.2533, 40685.54
975.7354, 42854.29
976.2175, 45047.13
976.6996, 47299.72
977.1818, 49405.03
977.6639, 51259.04
978.1460, 52771.97
978.6281, 53807.92
979.1102, 54485.34
979.5923, 54296.31
980.0745, 53132.79
980.5566, 51173.08
981.0387, 48419.33
981.5208, 44878.55
982.0029, 41030.12
982.4850, 36909.26
982.9672, 32798.84
983.4493, 28738.67
983.9314, 24948.55
984.4135, 21576.83
984.8956, 18648.96
985.3777, 16084.97
985.8598, 13894.52
986.3419, 12016.70
986.8240, 10459.37
987.3062, 9189.117
987.7883, 8127.044
988.2704, 7268.193
988.7525, 6539.937
989.2346, 5939.096
989.7167, 5426.409
990.1989, 4985.516
990.6810, 4609.730
991.1631, 4286.576
991.6452, 4020.643
992.1273, 3786.405
992.6094, 3585.767
993.0916, 3410.015
993.5737, 3250.810
994.0558, 3109.777
994.5379, 2993.980
995.0200, 2907.516
995.5021, 2835.497
995.9843, 2780.746
996.4664, 2729.717
996.9485, 2668.070
997.4306, 2591.258
997.9127, 2548.349
998.3948, 2542.443
998.8770, 2545.707
999.3591, 2539.093
999.8412, 2529.945
1000.323, 2528.018
1000.805, 2533.354
1001.288, 2544.747
1001.770, 2568.693
1002.252, 2589.634
1002.734, 2597.543
1003.216, 2602.545
1003.698, 2636.553
1004.180, 2698.593
1004.662, 2750.215
1005.144, 2778.365
1005.627, 2799.491
1006.109, 2831.487
1006.591, 2866.184
1007.073, 2893.225
1007.555, 2911.416
1008.037, 2918.052
1008.519, 2910.321
1009.001, 2896.239
1009.484, 2884.292
1009.966, 2872.331
1010.448, 2847.863
1010.930, 2810.629
1011.412, 2779.681
1011.894, 2777.376
1012.376, 2777.734
1012.858, 2762.083
1013.340, 2731.469
1013.823, 2706.381
1014.305, 2686.947
1014.787, 2672.893
1015.269, 2666.355
1015.751, 2662.659
1016.233, 2650.917
1016.715, 2635.363
1017.197, 2626.339
1017.680, 2621.964
1018.162, 2632.756
1018.644, 2670.347
1019.126, 2717.196
1019.608, 2753.512
1020.090, 2779.476
1020.572, 2791.058
1021.054, 2784.764
1021.536, 2788.819
1022.019, 2839.391
1022.501, 2907.887
1022.983, 2962.149
1023.465, 2995.293
1023.947, 3044.271
1024.429, 3113.268
1024.911, 3194.129
1025.393, 3288.924
1025.875, 3391.151
1026.358, 3470.355
1026.840, 3531.656
1027.322, 3600.358
1027.804, 3690.331
1028.286, 3789.965
1028.768, 3896.564
1029.250, 4007.573
1029.732, 4117.613
1030.215, 4228.256
1030.697, 4333.496
1031.179, 4433.599
1031.661, 4528.846
1032.143, 4619.020
1032.625, 4704.574
1033.107, 4790.427
1033.589, 4881.825
1034.072, 4952.989
1034.554, 4993.150
1035.036, 5019.728
1035.518, 5043.495
1036.000, 5062.519
1036.482, 5054.778
1036.964, 5021.650
1037.446, 4981.045
1037.928, 4951.170
1038.411, 4910.781
1038.893, 4839.316
1039.375, 4745.244
1039.857, 4653.912
1040.339, 4573.891
1040.821, 4478.512
1041.303, 4361.729
1041.785, 4233.699
1042.267, 4106.041
1042.750, 3975.240
1043.232, 3829.433
1043.714, 3658.977
1044.196, 3502.381
1044.678, 3382.831
1045.160, 3274.397
1045.642, 3163.567
1046.124, 3050.840
1046.607, 2934.783
1047.089, 2815.957
1047.571, 2704.768
1048.053, 2601.881
1048.535, 2514.032
1049.017, 2451.740
1049.499, 2411.239
1049.981, 2385.529
1050.464, 2400.817
1050.946, 2366.635
1051.428, 2254.255
1051.910, 2115.509
1052.392, 2025.143
1052.874, 1971.836
1053.356, 1924.916
1053.838, 1876.904
1054.320, 1842.956
1054.802, 1841.439
1055.285, 1846.693
1055.767, 1841.405
1056.249, 1825.477
1056.731, 1814.963
1057.213, 1809.709
1057.695, 1814.667
1058.177, 1838.521
1058.659, 1869.289
1059.142, 1891.248
1059.624, 1910.705
1060.106, 1946.935
1060.588, 2015.765
1061.070, 2073.766
1061.552, 2111.085
1062.034, 2144.268
1062.516, 2195.422
1062.999, 2261.717
1063.481, 2334.400
1063.963, 2411.164
1064.445, 2504.185
1064.927, 2635.745
1065.409, 2768.957
1065.891, 2879.392
1066.373, 2969.092
1066.855, 3072.473
1067.338, 3190.411
1067.820, 3311.446
1068.302, 3437.989
1068.784, 3557.042
1069.266, 3662.694
1069.748, 3749.592
1070.230, 3803.530
1070.712, 3822.772
1071.194, 3810.581
1071.677, 3766.598
1072.159, 3692.992
1072.641, 3585.080
1073.123, 3451.449
1073.605, 3311.991
1074.087, 3167.662
1074.569, 3023.328
1075.051, 2883.457
1075.533, 2740.510
1076.016, 2585.978
1076.498, 2424.877
1076.980, 2295.132
1077.462, 2194.686
1077.944, 2105.204
1078.426, 2023.250
1078.908, 1944.311
1079.390, 1863.680
1079.873, 1785.623
1080.355, 1716.179
1080.837, 1655.868
1081.319, 1604.479
1081.801, 1563.802
1082.283, 1525.815
1082.765, 1481.618
1083.247, 1435.608
1083.729, 1395.702
1084.212, 1362.156
1084.694, 1329.749
1085.176, 1291.898
1085.658, 1261.891
1086.140, 1246.704
1086.622, 1239.752
1087.104, 1226.103
1087.586, 1205.634
1088.068, 1175.898
1088.551, 1131.078
1089.033, 1090.409
1089.515, 1067.026
1089.997, 1054.413
1090.479, 1048.965
1090.961, 1054.550
1091.443, 1037.883
1091.925, 996.0060
1092.408, 957.0328
1092.890, 949.0925
1093.372, 949.3734
1093.854, 928.3315
1094.336, 891.4124
1094.818, 861.5989
1095.300, 844.0337
1095.782, 834.9912
1096.265, 838.6658
1096.747, 842.5096
1097.229, 821.0383
1097.711, 784.7546
1098.193, 764.6246
1098.675, 768.4714
1099.157, 767.6421
1099.639, 739.8994
1100.121, 712.7322
1100.604, 702.1375
1101.086, 705.5821
1101.568, 703.8224
1102.050, 696.9841
1102.532, 686.4467
1103.014, 669.9680
1103.496, 653.7794
1103.978, 640.4816
1104.460, 631.6786
1104.943, 630.7474
1105.425, 641.6616
1105.907, 647.2330
1106.389, 646.5501
1106.871, 641.0422
1107.353, 626.3503
1107.835, 610.9176
1108.317, 610.2238
1108.800, 623.2567
1109.282, 626.9530
1109.764, 605.5728
1110.246, 591.5117
1110.728, 594.6288
1111.210, 607.1594
1111.692, 612.5212
1112.174, 613.1989
1112.656, 618.0704
1113.139, 633.6742
1113.621, 639.7192
1114.103, 617.4875
1114.585, 590.8995
1115.067, 575.2158
1115.549, 570.3178
1116.031, 573.9549
1116.513, 585.5850
1116.995, 594.6522
1117.478, 590.6578
1117.960, 586.0642
1118.442, 591.7015
1118.924, 602.6982
1119.406, 607.9717
1119.888, 605.4361
1120.370, 604.9083
1120.852, 607.5673
1121.335, 611.0449
1121.817, 613.9067
1122.299, 615.4798
1122.781, 614.6766
1123.263, 611.4160
1123.745, 607.0103
1124.227, 599.9010
1124.709, 595.5894
1125.192, 597.1740
1125.674, 600.8130
1126.156, 597.7344
1126.638, 590.1871
1127.120, 583.2291
1127.602, 577.0473
1128.084, 575.1070
1128.566, 584.4979
1129.048, 592.1336
1129.531, 586.9986
1130.013, 570.9355
1130.495, 563.8474
1130.977, 565.3279
1131.459, 571.2888
1131.941, 590.1965
1132.423, 601.4017
1132.905, 588.4980
1133.387, 562.1310
1133.870, 538.1693
1134.352, 514.9764
1134.834, 515.2675
1135.316, 544.4130
1135.798, 572.5276
1136.280, 567.8177
1136.762, 551.7300
1137.244, 542.8496
1137.727, 542.9637
1138.209, 543.8550
1138.691, 545.9365
1139.173, 547.0916
1139.655, 546.6113
1140.137, 544.9297
1140.619, 541.9080
1141.101, 538.4330
1141.583, 535.9927
1142.066, 535.6335
1142.548, 534.6658
1143.030, 533.1617
1143.512, 530.5561
1143.994, 525.2752
1144.476, 518.8715
1144.958, 515.8683
1145.440, 515.8669
1145.922, 517.3494
1146.405, 520.1987
1146.887, 524.2883
1147.369, 533.7652
1147.851, 539.8807
1148.333, 525.9297
1148.815, 497.0235
1149.297, 482.1206
1149.779, 484.0451
1150.262, 492.4171
1150.744, 508.8851
1151.226, 521.6802
1151.708, 521.1659
1152.190, 512.4844
1152.672, 513.1204
1153.154, 522.7429
1153.636, 531.1953
1154.119, 536.9877
1154.601, 536.9054
1155.083, 518.3414
1155.565, 499.0593
1156.047, 500.1937
1156.529, 523.9626
1157.011, 537.8024
1157.493, 541.2084
1157.975, 539.1133
1158.458, 528.9526
1158.940, 520.0915
1159.422, 527.8069
1159.904, 543.0402
1160.386, 547.7914
1160.868, 533.1926
1161.350, 523.6060
1161.832, 520.0594
1162.314, 520.6089
1162.797, 528.3588
1163.279, 536.2758
1163.761, 529.8031
1164.243, 511.7974
1164.725, 502.8210
1165.207, 511.4425
1165.689, 524.1104
1166.171, 541.6906
1166.654, 556.6848
1167.136, 554.6367
1167.618, 542.3408
1168.100, 534.0981
1168.582, 532.4547
1169.064, 531.5151
1169.546, 527.5438
1170.028, 526.3295
1170.510, 530.0585
1170.993, 538.0107
1171.475, 552.6038
1171.957, 569.9249
1172.439, 576.1710
1172.921, 561.2228
1173.403, 546.9318
1173.885, 540.0941
1174.367, 539.0460
1174.849, 546.4290
1175.332, 560.5270
1175.814, 556.4594
1176.296, 537.2309
1176.778, 526.0565
1177.260, 546.1194
1177.742, 566.1199
1178.224, 571.6979
1178.706, 568.5699
1179.189, 560.3500
1179.671, 546.8445
1180.153, 552.1624
1180.635, 578.5613
1181.117, 601.0288
1181.599, 598.4078
1182.081, 588.3004
1182.563, 578.7777
1183.046, 571.9031
1183.528, 575.4067
1184.010, 590.7169
1184.492, 595.0374
1184.974, 581.8950
1185.456, 566.0589
1185.938, 556.4525
1186.420, 553.9194
1186.902, 562.9096
1187.385, 583.0841
1187.867, 592.9808
1188.349, 591.5687
1188.831, 587.1715
1189.313, 581.2730
1189.795, 577.0563
1190.277, 581.2018
1190.759, 587.9780
1191.241, 589.5742
1191.724, 584.6609
1192.206, 573.5187
1192.688, 553.3639
1193.170, 541.1639
1193.652, 557.7621
1194.134, 581.2941
1194.616, 579.7626
1195.098, 562.9320
1195.581, 553.8839
1196.063, 561.1407
1196.545, 564.6114
1197.027, 562.8165
1197.509, 559.0416
1197.991, 553.4675
1198.473, 549.5914
1198.955, 556.8138
1199.438, 572.1273
1199.920, 575.0863
1200.402, 551.0298
1200.884, 540.1630
1201.366, 552.9396
1201.848, 570.8304
1202.330, 568.0994
1202.812, 553.4521
1203.294, 538.7150
1203.776, 525.3543
1204.259, 518.7473
1204.741, 521.6962
1205.223, 527.1492
1205.705, 534.3960
1206.187, 540.7944
1206.669, 541.1636
1207.151, 536.8443
1207.633, 529.3477
1208.116, 516.7640
1208.598, 509.9791
1209.080, 512.2938
1209.562, 516.5033
1210.044, 521.3147
1210.526, 523.6840
1211.008, 512.2917
1211.490, 492.6690
1211.973, 478.9106
1212.455, 476.0229
1212.937, 479.6866
1213.419, 492.4988
1213.901, 505.1792
1214.383, 509.7157
1214.865, 508.7794
1215.347, 512.3245
1215.829, 517.9545
1216.312, 515.9846
1216.794, 490.5298
1217.276, 473.0096
1217.758, 464.5894
1218.240, 471.4270
1218.722, 518.9996
1219.204, 584.2396
1219.686, 594.9858
1220.168, 552.1447
1220.651, 510.7820
1221.133, 487.5751
1221.615, 478.3432
1222.097, 486.5439
1222.579, 501.0467
1223.061, 503.3196
1223.543, 497.2690
1224.025, 493.7440
1224.508, 494.4741
1224.990, 492.8564
1225.472, 484.0696
1225.954, 475.2141
1226.436, 467.9871
1226.918, 462.4246
1227.400, 457.0126
1227.882, 453.4793
1228.365, 458.3019
1228.847, 476.1133
1229.329, 488.0310
1229.811, 485.4003
1230.293, 479.7047
1230.775, 475.4024
1231.257, 472.1174
1231.739, 468.5652
1232.221, 465.1536
1232.703, 462.8065
1233.186, 461.0677
1233.668, 462.6352
1234.150, 471.4256
1234.632, 478.1623
1235.114, 474.1001
1235.596, 463.7458
1236.078, 463.8040
1236.560, 470.9208
1237.042, 473.6396
1237.525, 463.2747
1238.007, 453.6188
1238.489, 445.2569
1238.971, 440.3869
1239.453, 444.7804
1239.935, 453.4891
1240.417, 450.4933
1240.899, 438.0201
1241.382, 428.9834
1241.864, 425.2694
1242.346, 432.1094
1242.828, 454.4094
1243.310, 478.8003
1243.792, 489.0513
1244.274, 488.7502
1244.756, 483.1357
1245.239, 473.5469
1245.721, 467.5568
1246.203, 472.1206
1246.685, 473.5872
1247.167, 468.1737
1247.649, 461.3179
1248.131, 460.9659
1248.613, 464.9624
1249.095, 471.4845
1249.578, 480.4954
1250.060, 479.7297
1250.542, 461.3367
1251.024, 445.0038
1251.506, 435.3843
1251.988, 431.7820
1252.470, 436.1126
1252.952, 444.3422
1253.434, 450.4601
1253.917, 454.0304
1254.399, 449.7651
1254.881, 432.8961
1255.363, 421.4856
1255.845, 424.6223
1256.327, 433.7386
1256.809, 435.3125
1257.291, 432.9547
1257.774, 433.1694
1258.256, 439.8510
1258.738, 437.7850
1259.220, 423.7001
1259.702, 412.9732
1260.184, 416.8677
1260.666, 424.6579
1261.148, 421.8029
1261.630, 412.2000
1262.113, 401.2855
1262.595, 385.4112
1263.077, 384.3503
1263.559, 400.5620
1264.041, 417.2549
1264.523, 425.0854
1265.005, 425.7161
1265.487, 417.2582
1265.969, 403.7204
1266.452, 392.1989
1266.934, 381.3281
1267.416, 380.9596
1267.898, 392.1493
1268.380, 405.2455
1268.862, 417.9787
1269.344, 424.8784
1269.826, 416.8359
1270.309, 400.5524
1270.791, 391.7079
1271.273, 391.4692
1271.755, 389.1815
1272.237, 384.0207
1272.719, 379.2732
1273.201, 376.6354
1273.683, 376.1747
1274.166, 381.5505
1274.648, 387.8109
1275.130, 383.2006
1275.612, 368.1185
1276.094, 359.4612
1276.576, 359.1707
1277.058, 360.7364
1277.540, 359.0747
1278.022, 358.7956
1278.505, 362.4587
1278.987, 368.9839
1279.469, 377.5188
1279.951, 387.4095
1280.433, 395.1714
1280.915, 400.5121
1281.397, 400.1470
1281.879, 387.1216
1282.361, 373.9551
1282.844, 365.3370
1283.326, 359.8095
1283.808, 353.0409
1284.290, 346.4340
1284.772, 344.4871
1285.254, 348.2086
1285.736, 355.7130
##END=



