##NAMES=Tschermigite
##RRUFFID=R050276
##IDEAL CHEMISTRY=N^3-^H_4_Al(S^6+^O_4_)_2_&#183;12H_2_O
##LOCALITY=near Wamsutter, Wyoming, USA
##OWNER=RRUFF
##SOURCE=Marcus Origlieri
##DESCRIPTION=Colorless fibrous columnar aggregate
##STATUS=The identification of this mineral has been confirmed by X-ray diffraction.
##URL=rruff.info/R050276
97.01190, 160.3775
97.49402, 160.5474
97.97614, 160.1010
98.45825, 160.1174
98.94037, 161.1529
99.42249, 162.4998
99.90460, 163.1983
100.3867, 163.4178
100.8688, 163.3654
101.3510, 163.0818
101.8331, 162.3489
102.3152, 161.7837
102.7973, 161.9775
103.2794, 162.9657
103.7615, 163.8172
104.2437, 163.8399
104.7258, 163.6192
105.2079, 163.6189
105.6900, 163.9919
106.1721, 164.6246
106.6542, 165.2822
107.1364, 165.9595
107.6185, 166.5580
108.1006, 166.9329
108.5827, 167.2463
109.0648, 167.7041
109.5469, 168.4427
110.0291, 169.4525
110.5112, 170.5519
110.9933, 171.6739
111.4754, 172.9353
111.9575, 174.4043
112.4396, 176.0488
112.9218, 177.8084
113.4039, 179.6539
113.8860, 181.6447
114.3681, 183.3451
114.8502, 184.7870
115.3323, 185.9587
115.8144, 186.8158
116.2966, 187.3533
116.7787, 187.6605
117.2608, 187.9032
117.7429, 188.1340
118.2250, 187.8559
118.7071, 186.6184
119.1893, 184.7952
119.6714, 183.2248
120.1535, 182.2969
120.6356, 181.4039
121.1177, 179.8118
121.5998, 177.5174
122.0820, 175.2197
122.5641, 173.5940
123.0462, 172.6906
123.5283, 171.4714
124.0104, 169.0636
124.4925, 166.6253
124.9747, 164.8800
125.4568, 163.9888
125.9389, 163.5451
126.4210, 162.8624
126.9031, 161.6026
127.3852, 160.8376
127.8674, 160.8659
128.3495, 161.2573
128.8316, 161.6392
129.3137, 161.8403
129.7958, 161.9402
130.2780, 162.2215
130.7601, 162.7458
131.2422, 163.4118
131.7243, 164.4343
132.2064, 165.5704
132.6885, 166.3543
133.1707, 166.4064
133.6528, 165.8845
134.1349, 166.3720
134.6170, 168.8463
135.0991, 171.1782
135.5812, 172.1506
136.0633, 171.9508
136.5455, 171.8263
137.0276, 172.7615
137.5097, 174.6176
137.9918, 176.2853
138.4739, 177.6674
138.9560, 178.8470
139.4382, 179.8838
139.9203, 180.7672
140.4024, 181.5385
140.8845, 182.0531
141.3666, 182.4689
141.8487, 183.1210
142.3309, 184.3971
142.8130, 186.0488
143.2951, 187.1899
143.7772, 187.3833
144.2593, 187.6493
144.7414, 188.5309
145.2236, 189.8828
145.7057, 191.3411
146.1878, 192.6558
146.6699, 193.8203
147.1520, 194.9211
147.6341, 195.8043
148.1163, 196.7554
148.5984, 197.9914
149.0805, 199.4378
149.5626, 200.8168
150.0447, 201.7752
150.5268, 202.0706
151.0090, 202.6978
151.4911, 203.9378
151.9732, 205.2244
152.4553, 206.2069
152.9374, 206.8181
153.4195, 207.2410
153.9017, 207.7393
154.3838, 208.4387
154.8659, 208.9353
155.3480, 208.9942
155.8301, 208.9507
156.3122, 209.2386
156.7944, 210.0216
157.2765, 210.9366
157.7586, 211.2689
158.2407, 210.9449
158.7228, 210.5552
159.2049, 210.4063
159.6871, 210.3115
160.1692, 209.8229
160.6513, 208.7234
161.1334, 207.2398
161.6155, 205.7121
162.0976, 204.1108
162.5798, 202.6040
163.0619, 201.3736
163.5440, 200.3972
164.0261, 199.3624
164.5082, 198.1873
164.9903, 196.8948
165.4725, 195.4590
165.9546, 193.8679
166.4367, 192.2671
166.9188, 190.8454
167.4009, 189.6223
167.8830, 188.4832
168.3652, 187.4810
168.8473, 186.5000
169.3294, 185.3988
169.8115, 184.1282
170.2936, 182.8664
170.7757, 181.9888
171.2579, 181.7897
171.7400, 181.4543
172.2221, 180.8009
172.7042, 180.0192
173.1863, 179.2038
173.6684, 178.3971
174.1506, 177.7138
174.6327, 177.5072
175.1148, 178.2213
175.5969, 178.9682
176.0790, 179.6632
176.5611, 180.3582
177.0433, 181.0952
177.5254, 181.8842
178.0075, 182.7751
178.4896, 184.0479
178.9717, 186.2113
179.4538, 188.1379
179.9360, 189.2491
180.4181, 189.9185
180.9002, 190.9879
181.3823, 193.0254
181.8644, 195.7777
182.3465, 197.9384
182.8287, 199.1373
183.3108, 200.2066
183.7929, 201.5337
184.2750, 203.0732
184.7571, 204.6168
185.2392, 206.1139
185.7214, 207.4787
186.2035, 208.5697
186.6856, 209.2630
187.1677, 209.7923
187.6498, 210.2934
188.1319, 210.7617
188.6141, 211.3212
189.0962, 212.3696
189.5783, 213.4421
190.0604, 213.8914
190.5425, 213.5150
191.0246, 212.5255
191.5068, 211.1626
191.9889, 209.3862
192.4710, 207.3522
192.9531, 204.9218
193.4352, 202.3660
193.9173, 200.0185
194.3995, 198.1171
194.8816, 196.3479
195.3637, 193.9209
195.8458, 190.5378
196.3279, 187.0145
196.8100, 183.4929
197.2922, 180.0187
197.7743, 176.7162
198.2564, 173.6856
198.7385, 170.7896
199.2206, 167.4913
199.7027, 163.4714
200.1849, 159.4164
200.6670, 155.3735
201.1491, 151.4218
201.6312, 147.6832
202.1133, 144.2623
202.5954, 141.0940
203.0776, 137.7740
203.5597, 133.9879
204.0418, 130.4053
204.5239, 127.1694
205.0060, 124.2019
205.4881, 121.4254
205.9703, 118.7920
206.4524, 116.2928
206.9345, 113.9598
207.4166, 111.7682
207.8987, 109.7415
208.3808, 107.9175
208.8630, 106.2785
209.3451, 104.8131
209.8272, 103.5408
210.3093, 102.4274
210.7914, 101.1814
211.2735, 99.68842
211.7557, 98.21296
212.2378, 96.75780
212.7199, 95.38525
213.2020, 94.31600
213.6841, 93.80720
214.1662, 93.65252
214.6484, 92.93456
215.1305, 91.16669
215.6126, 89.35864
216.0947, 87.99843
216.5768, 87.06477
217.0589, 86.46609
217.5410, 86.29693
218.0232, 86.38500
218.5053, 86.24153
218.9874, 85.70936
219.4695, 85.12681
219.9516, 84.76927
220.4337, 84.63319
220.9159, 84.53144
221.3980, 84.43100
221.8801, 84.28172
222.3622, 84.00753
222.8443, 83.55882
223.3264, 83.05491
223.8086, 82.61719
224.2907, 82.25035
224.7728, 81.89771
225.2549, 81.53091
225.7370, 81.17198
226.2191, 80.84757
226.7013, 80.57120
227.1834, 80.30769
227.6655, 80.00414
228.1476, 79.64423
228.6297, 79.31299
229.1118, 79.14327
229.5940, 78.95547
230.0761, 78.55258
230.5582, 77.87051
231.0403, 77.14555
231.5224, 76.78858
232.0045, 76.97707
232.4867, 77.00642
232.9688, 76.77522
233.4509, 76.33723
233.9330, 75.62167
234.4151, 74.62680
234.8972, 73.59837
235.3794, 72.95409
235.8615, 72.86363
236.3436, 72.77966
236.8257, 72.73723
237.3078, 72.62852
237.7899, 72.36304
238.2721, 71.92139
238.7542, 71.36619
239.2363, 70.79155
239.7184, 70.16270
240.2005, 69.58252
240.6826, 69.11579
241.1648, 68.65019
241.6469, 68.10241
242.1290, 67.45802
242.6111, 66.76476
243.0932, 66.08603
243.5753, 65.33451
244.0575, 64.79756
244.5396, 64.73737
245.0217, 64.68916
245.5038, 64.28677
245.9859, 63.47585
246.4680, 62.49390
246.9502, 61.64607
247.4323, 60.97626
247.9144, 60.36485
248.3965, 59.94117
248.8786, 59.48343
249.3607, 58.77789
249.8429, 57.81450
250.3250, 56.80222
250.8071, 55.98647
251.2892, 55.43840
251.7713, 54.88154
252.2534, 54.38655
252.7356, 53.83966
253.2177, 53.11453
253.6998, 52.21655
254.1819, 51.29854
254.6640, 50.51572
255.1461, 49.90025
255.6283, 49.26655
256.1104, 48.53299
256.5925, 47.84398
257.0746, 47.32924
257.5567, 46.98832
258.0388, 46.69610
258.5210, 46.36275
259.0031, 45.98090
259.4852, 45.54597
259.9673, 44.96930
260.4494, 44.40377
260.9315, 44.01678
261.4137, 43.79512
261.8958, 43.50463
262.3779, 42.94270
262.8600, 42.15197
263.3421, 41.47678
263.8242, 40.94495
264.3064, 40.51421
264.7885, 40.15685
265.2706, 39.87344
265.7527, 39.70457
266.2348, 39.80103
266.7169, 39.98219
267.1991, 39.76597
267.6812, 38.84501
268.1633, 37.88422
268.6454, 37.40073
269.1275, 37.35467
269.6096, 37.33461
270.0918, 37.17994
270.5739, 36.91884
271.0560, 36.60838
271.5381, 36.20758
272.0202, 35.85251
272.5023, 35.65814
272.9845, 35.60872
273.4666, 35.60322
273.9487, 35.69172
274.4308, 35.72260
274.9129, 35.47207
275.3951, 34.88455
275.8772, 34.34612
276.3593, 34.16038
276.8414, 34.27607
277.3235, 34.36507
277.8056, 34.33717
278.2878, 34.27077
278.7699, 34.25549
279.2520, 34.28880
279.7341, 34.30379
280.2162, 34.25360
280.6983, 34.14724
281.1805, 34.03302
281.6626, 33.92950
282.1447, 33.79848
282.6268, 33.56086
283.1089, 33.25510
283.5910, 33.04645
284.0732, 33.07096
284.5553, 33.27437
285.0374, 33.47851
285.5195, 33.73583
286.0016, 33.87880
286.4837, 33.67312
286.9659, 33.29182
287.4480, 33.11502
287.9301, 33.47753
288.4122, 34.14322
288.8943, 34.43338
289.3764, 34.18771
289.8586, 33.90930
290.3407, 33.83101
290.8228, 33.86820
291.3049, 33.90775
291.7870, 33.89339
292.2691, 33.87139
292.7513, 33.94564
293.2334, 34.15928
293.7155, 34.34617
294.1976, 34.41594
294.6797, 34.44468
295.1618, 34.50288
295.6440, 34.61432
296.1261, 34.74921
296.6082, 34.86750
297.0903, 34.96816
297.5724, 35.05694
298.0545, 35.08788
298.5367, 35.13786
299.0188, 35.27936
299.5009, 35.52444
299.9830, 35.78969
300.4651, 35.94698
300.9472, 35.96516
301.4294, 36.12897
301.9115, 36.68134
302.3936, 37.23552
302.8757, 37.55396
303.3578, 37.65027
303.8399, 37.72493
304.3221, 37.96129
304.8042, 38.36173
305.2863, 38.76049
305.7684, 39.21545
306.2505, 39.59669
306.7326, 39.78796
307.2148, 39.85255
307.6969, 39.95429
308.1790, 40.21422
308.6611, 40.60890
309.1432, 41.00773
309.6253, 41.48405
310.1075, 41.84561
310.5896, 41.96117
311.0717, 41.94453
311.5538, 41.94737
312.0359, 42.02375
312.5180, 42.20088
313.0002, 42.57798
313.4823, 43.26165
313.9644, 43.93089
314.4465, 44.58429
314.9286, 45.14730
315.4107, 45.49009
315.8929, 45.55251
316.3750, 45.55109
316.8571, 45.88363
317.3392, 46.70111
317.8213, 47.36095
318.3034, 47.66092
318.7856, 47.81903
319.2677, 47.93306
319.7498, 48.03106
320.2319, 48.14734
320.7140, 48.34784
321.1961, 48.65422
321.6783, 48.86919
322.1604, 48.96502
322.6425, 48.96430
323.1246, 48.81376
323.6067, 48.55513
324.0888, 48.32633
324.5710, 48.23029
325.0531, 48.26326
325.5352, 48.38202
326.0173, 48.73318
326.4994, 48.97694
326.9815, 48.95075
327.4637, 48.73517
327.9458, 48.47612
328.4279, 48.25467
328.9100, 48.04519
329.3921, 47.77732
329.8742, 47.47764
330.3564, 47.05739
330.8385, 46.45434
331.3206, 45.74725
331.8027, 44.97024
332.2848, 44.11123
332.7669, 43.31696
333.2491, 42.89882
333.7312, 43.00246
334.2133, 42.90105
334.6954, 42.17832
335.1775, 41.34351
335.6596, 40.76588
336.1418, 40.48721
336.6239, 40.21592
337.1060, 39.55333
337.5881, 38.48032
338.0702, 37.74995
338.5523, 37.74766
339.0345, 37.80590
339.5165, 37.57056
339.9987, 37.06762
340.4808, 36.45774
340.9629, 35.79766
341.4450, 35.10532
341.9271, 34.49131
342.4092, 33.93362
342.8914, 33.50487
343.3735, 33.34575
343.8556, 33.30123
344.3377, 33.10699
344.8198, 32.57613
345.3019, 31.93410
345.7841, 31.65712
346.2662, 31.88054
346.7483, 31.93550
347.2304, 31.30497
347.7125, 30.49317
348.1946, 29.94184
348.6768, 29.76182
349.1589, 29.71304
349.6410, 29.58823
350.1231, 29.38812
350.6052, 29.11349
351.0873, 28.68680
351.5695, 28.26575
352.0516, 27.99782
352.5337, 27.87604
353.0158, 27.76034
353.4979, 27.53171
353.9800, 27.23670
354.4622, 27.06086
354.9443, 27.08948
355.4264, 27.08787
355.9085, 26.82163
356.3906, 26.39680
356.8727, 26.05073
357.3549, 25.87574
357.8370, 25.81891
358.3191, 25.87351
358.8012, 26.06996
359.2833, 26.10702
359.7654, 25.69590
360.2476, 25.07969
360.7297, 24.64520
361.2118, 24.47443
361.6939, 24.40152
362.1760, 24.34255
362.6581, 24.28817
363.1403, 24.15519
363.6224, 23.82159
364.1045, 23.53419
364.5866, 23.68837
365.0687, 24.30825
365.5508, 24.80982
366.0330, 24.92181
366.5151, 24.76818
366.9972, 24.50311
367.4793, 24.11390
367.9614, 23.81407
368.4435, 23.87862
368.9257, 24.24092
369.4078, 24.49500
369.8899, 24.56638
370.3720, 24.52169
370.8541, 24.34028
371.3362, 24.04869
371.8184, 23.87018
372.3005, 23.96441
372.7826, 24.24857
373.2647, 24.43200
373.7468, 24.50008
374.2289, 24.50770
374.7111, 24.44487
375.1932, 24.34102
375.6753, 24.23902
376.1574, 24.14643
376.6395, 24.09828
377.1216, 24.18173
377.6038, 24.46532
378.0859, 24.61095
378.5680, 24.48882
379.0501, 24.27404
379.5322, 24.08449
380.0143, 23.94822
380.4965, 23.91754
380.9786, 24.06846
381.4607, 24.40812
381.9428, 24.57500
382.4249, 24.40253
382.9070, 24.25518
383.3892, 24.26288
383.8713, 24.41094
384.3534, 24.69217
384.8355, 25.11926
385.3176, 25.59592
385.7997, 25.83307
386.2819, 25.54025
386.7640, 25.36195
387.2461, 25.36600
387.7282, 25.46610
388.2103, 25.58710
388.6924, 25.71011
389.1746, 25.86013
389.6567, 26.08152
390.1388, 26.42108
390.6209, 26.64015
391.1030, 26.61578
391.5851, 26.60867
392.0673, 26.75606
392.5494, 27.01934
393.0315, 27.28726
393.5136, 27.48810
393.9957, 27.62473
394.4778, 27.70835
394.9600, 27.65522
395.4421, 27.66388
395.9242, 27.82166
396.4063, 28.02395
396.8884, 28.12755
397.3705, 28.09460
397.8527, 28.07186
398.3348, 28.34136
398.8169, 29.05793
399.2990, 29.51930
399.7811, 29.50698
400.2632, 29.37595
400.7454, 29.19255
401.2275, 29.02036
401.7096, 28.99296
402.1917, 29.26679
402.6738, 29.77942
403.1559, 30.14896
403.6381, 30.26809
404.1202, 30.42947
404.6023, 30.77215
405.0844, 31.20594
405.5665, 31.63559
406.0486, 32.03703
406.5308, 32.39137
407.0129, 32.63958
407.4950, 32.76857
407.9771, 32.98429
408.4592, 33.38548
408.9413, 33.85784
409.4235, 34.31763
409.9056, 34.76154
410.3877, 35.16539
410.8698, 35.50295
411.3519, 35.79401
411.8340, 36.06056
412.3162, 36.26857
412.7983, 36.58617
413.2804, 37.25388
413.7625, 38.11902
414.2446, 38.82057
414.7267, 39.15259
415.2089, 39.45751
415.6910, 40.00252
416.1731, 40.76371
416.6552, 41.64711
417.1373, 42.68598
417.6194, 43.72871
418.1016, 44.44554
418.5837, 44.76847
419.0658, 45.17102
419.5479, 45.66737
420.0300, 46.36567
420.5121, 47.50659
420.9943, 49.10768
421.4764, 50.73451
421.9585, 51.96632
422.4406, 52.78844
422.9227, 53.84272
423.4048, 55.38955
423.8870, 56.87354
424.3691, 57.91600
424.8512, 58.71430
425.3333, 59.68586
425.8154, 61.02733
426.2975, 62.62431
426.7797, 64.24630
427.2618, 65.97341
427.7439, 67.57954
428.2260, 68.90494
428.7081, 70.22215
429.1902, 71.73302
429.6724, 73.46184
430.1545, 75.35761
430.6366, 77.41567
431.1187, 79.63754
431.6008, 81.61008
432.0829, 83.07984
432.5651, 84.56956
433.0472, 86.16602
433.5293, 87.85974
434.0114, 89.65552
434.4935, 91.54800
434.9756, 93.49354
435.4578, 95.45994
435.9399, 97.54336
436.4220, 99.30922
436.9041, 100.5654
437.3862, 101.5981
437.8683, 102.4108
438.3505, 103.0878
438.8326, 103.9059
439.3147, 105.2472
439.7968, 106.9140
440.2789, 108.0271
440.7610, 108.4126
441.2432, 108.6309
441.7253, 109.0115
442.2074, 109.3718
442.6895, 109.4179
443.1716, 108.9666
443.6537, 108.5155
444.1359, 108.5431
444.6180, 108.9936
445.1001, 109.5163
445.5822, 110.0386
446.0643, 110.5868
446.5464, 111.2130
447.0286, 111.9058
447.5107, 112.5621
447.9928, 113.0587
448.4749, 113.5653
448.9570, 114.2603
449.4391, 115.1493
449.9213, 116.1331
450.4034, 117.1158
450.8855, 118.1747
451.3676, 119.6105
451.8497, 121.7820
452.3318, 123.7193
452.8140, 125.1211
453.2961, 126.1834
453.7782, 127.1338
454.2603, 128.0317
454.7424, 128.7982
455.2245, 129.3107
455.7067, 129.4802
456.1888, 129.9261
456.6709, 131.0972
457.1530, 132.0327
457.6351, 132.3099
458.1172, 132.0703
458.5994, 131.6120
459.0815, 131.0846
459.5636, 130.4645
460.0457, 129.6872
460.5278, 128.7239
461.0099, 127.6541
461.4921, 126.4208
461.9742, 125.1374
462.4563, 123.9455
462.9384, 122.8013
463.4205, 121.4717
463.9026, 119.6935
464.3848, 117.5451
464.8669, 115.6350
465.3490, 114.0517
465.8311, 112.5468
466.3132, 111.2710
466.7953, 109.9103
467.2775, 107.9634
467.7596, 105.2025
468.2417, 102.4208
468.7238, 100.4681
469.2059, 99.23225
469.6880, 98.02458
470.1702, 96.76173
470.6523, 95.41541
471.1344, 94.01954
471.6165, 92.54580
472.0986, 90.82858
472.5807, 88.42433
473.0629, 86.04589
473.5450, 84.47107
474.0271, 83.58786
474.5092, 82.67521
474.9913, 81.38430
475.4734, 79.88308
475.9556, 78.58351
476.4377, 77.58038
476.9198, 76.50237
477.4019, 75.29567
477.8840, 73.99033
478.3661, 72.49661
478.8483, 70.87288
479.3304, 69.47605
479.8125, 68.62242
480.2946, 68.27843
480.7767, 67.76579
481.2589, 66.99391
481.7410, 66.15920
482.2231, 65.25031
482.7052, 64.31162
483.1873, 63.33862
483.6694, 62.34439
484.1516, 61.45682
484.6337, 60.87495
485.1158, 60.65235
485.5979, 60.40685
486.0800, 60.19786
486.5621, 59.89404
487.0443, 59.32487
487.5264, 58.64617
488.0085, 58.16739
488.4906, 58.08342
488.9727, 58.13191
489.4548, 57.86066
489.9370, 57.24422
490.4191, 56.74641
490.9012, 56.57283
491.3833, 56.47939
491.8654, 56.20556
492.3475, 55.76731
492.8297, 55.35139
493.3118, 55.09253
493.7939, 54.87125
494.2760, 54.43405
494.7581, 53.79128
495.2402, 53.40536
495.7224, 53.62265
496.2045, 54.21402
496.6866, 54.48469
497.1687, 54.37119
497.6508, 54.13650
498.1329, 53.64984
498.6151, 53.17403
499.0972, 53.11631
499.5793, 53.47523
500.0614, 53.74422
500.5435, 53.40977
501.0256, 52.48247
501.5078, 51.99620
501.9899, 52.39787
502.4720, 52.71284
502.9541, 52.66265
503.4362, 52.47358
503.9183, 52.48533
504.4004, 52.77335
504.8825, 53.01514
505.3647, 52.63838
505.8468, 51.48195
506.3289, 50.96772
506.8110, 51.55993
507.2931, 52.27782
507.7752, 52.79865
508.2574, 53.13276
508.7395, 53.29173
509.2216, 53.25233
509.7037, 53.11269
510.1858, 52.98187
510.6679, 52.85958
511.1501, 52.71211
511.6322, 52.45587
512.1143, 52.28724
512.5964, 52.50882
513.0786, 53.05866
513.5607, 53.48433
514.0428, 53.61525
514.5249, 53.61304
515.0070, 53.64890
515.4891, 53.69053
515.9713, 53.54230
516.4534, 53.07452
516.9355, 52.46259
517.4176, 52.08970
517.8997, 52.04039
518.3818, 52.07810
518.8640, 52.17137
519.3461, 52.37029
519.8282, 52.84939
520.3103, 53.49202
520.7924, 53.92188
521.2745, 53.85948
521.7567, 53.42682
522.2388, 53.14761
522.7209, 53.14695
523.2030, 53.06877
523.6851, 52.77594
524.1672, 52.46372
524.6494, 52.23956
525.1315, 52.13080
525.6136, 52.16136
526.0957, 52.46177
526.5778, 52.91338
527.0599, 53.04836
527.5421, 52.78363
528.0242, 52.48645
528.5063, 52.27446
528.9884, 52.15271
529.4705, 52.16413
529.9526, 52.35961
530.4348, 52.46598
530.9169, 52.25010
531.3990, 51.88212
531.8811, 51.69429
532.3632, 51.72761
532.8453, 51.66713
533.3275, 51.20834
533.8096, 50.43693
534.2917, 50.05001
534.7738, 50.38346
535.2559, 50.60678
535.7380, 50.55639
536.2202, 50.29102
536.7023, 49.74454
537.1844, 48.97808
537.6665, 48.35592
538.1486, 48.34090
538.6307, 48.94210
539.1129, 49.06150
539.5950, 48.27675
540.0771, 47.54233
540.5592, 47.10905
541.0413, 46.83305
541.5234, 46.56581
542.0056, 46.26670
542.4877, 45.94503
542.9698, 45.62791
543.4519, 45.30561
543.9340, 44.89313
544.4161, 44.34991
544.8983, 43.80143
545.3804, 43.37960
545.8625, 42.99856
546.3446, 42.45948
546.8267, 41.57789
547.3088, 40.83408
547.7910, 40.64091
548.2731, 40.75433
548.7552, 40.71925
549.2373, 40.43653
549.7194, 39.95622
550.2015, 39.27253
550.6837, 38.37701
551.1658, 37.74611
551.6479, 37.63960
552.1300, 37.44765
552.6121, 36.86717
553.0942, 36.16408
553.5764, 35.71123
554.0585, 35.59301
554.5406, 35.55447
555.0227, 35.27427
555.5048, 34.73035
555.9869, 34.27691
556.4691, 33.89252
556.9512, 33.63997
557.4333, 33.61080
557.9154, 33.67919
558.3975, 33.69983
558.8796, 33.63734
559.3618, 33.49342
559.8439, 33.20517
560.3260, 32.82833
560.8081, 32.59045
561.2902, 32.54507
561.7723, 32.53786
562.2545, 32.44120
562.7366, 32.28571
563.2187, 32.21300
563.7008, 32.27536
564.1829, 32.35604
564.6650, 32.37678
565.1472, 32.40307
565.6293, 32.58526
566.1114, 32.92973
566.5935, 33.19367
567.0756, 33.09660
567.5577, 32.64114
568.0399, 32.49279
568.5220, 32.95722
569.0041, 33.37432
569.4862, 33.68554
569.9683, 33.87527
570.4504, 33.86663
570.9326, 33.67458
571.4147, 33.51284
571.8968, 33.64487
572.3789, 34.01140
572.8610, 34.20985
573.3431, 34.18038
573.8253, 34.14924
574.3074, 34.15067
574.7895, 34.25673
575.2716, 34.59587
575.7537, 35.22280
576.2358, 35.88294
576.7180, 36.52238
577.2001, 37.08678
577.6822, 37.47562
578.1643, 37.68914
578.6464, 37.83571
579.1285, 37.98040
579.6107, 38.12524
580.0928, 38.27870
580.5749, 38.33285
581.0570, 38.54578
581.5391, 39.07317
582.0212, 39.65571
582.5034, 40.01756
582.9855, 40.21619
583.4676, 40.56623
583.9497, 41.33207
584.4318, 42.37181
584.9139, 43.20573
585.3961, 43.79159
585.8782, 44.32244
586.3602, 44.72856
586.8423, 45.19715
587.3245, 45.98042
587.8066, 47.02466
588.2887, 47.85316
588.7708, 47.92250
589.2529, 47.89231
589.7350, 48.65114
590.2172, 50.07655
590.6993, 51.34302
591.1814, 52.07304
591.6635, 52.66766
592.1456, 53.81057
592.6277, 55.76431
593.1099, 57.37475
593.5920, 58.42541
594.0741, 59.35865
594.5562, 60.24971
595.0383, 61.21670
595.5204, 62.48505
596.0026, 64.14457
596.4847, 65.95220
596.9668, 67.50658
597.4489, 68.73332
597.9310, 70.21049
598.4131, 72.16840
598.8953, 74.09578
599.3774, 75.66644
599.8595, 77.06734
600.3416, 78.63132
600.8237, 80.47984
601.3058, 82.39127
601.7880, 84.10364
602.2701, 85.76416
602.7522, 87.81747
603.2343, 90.34416
603.7164, 92.90701
604.1985, 95.11418
604.6807, 97.03690
605.1628, 99.27719
605.6449, 102.2651
606.1270, 104.9664
606.6091, 106.8751
607.0912, 108.6469
607.5734, 110.8590
608.0555, 113.5597
608.5376, 116.5019
609.0197, 119.5190
609.5018, 122.5635
609.9839, 125.5149
610.4661, 128.4659
610.9482, 131.0307
611.4303, 132.9751
611.9124, 134.5814
612.3945, 136.0062
612.8766, 137.2726
613.3588, 138.4916
613.8409, 139.9758
614.3230, 141.2493
614.8051, 141.7949
615.2872, 141.6604
615.7693, 140.9822
616.2515, 139.7590
616.7336, 138.2877
617.2157, 137.0383
617.6978, 136.1459
618.1799, 134.7475
618.6620, 132.5106
619.1442, 130.1901
619.6263, 127.9418
620.1084, 125.8432
620.5905, 124.0947
621.0726, 122.7174
621.5547, 121.3181
622.0369, 119.2685
622.5190, 116.6200
623.0011, 114.5535
623.4832, 113.3402
623.9653, 112.1237
624.4474, 110.4160
624.9296, 108.4998
625.4117, 106.7430
625.8938, 105.2015
626.3759, 103.7035
626.8580, 102.2735
627.3401, 100.7786
627.8223, 98.97127
628.3044, 96.89558
628.7865, 94.88718
629.2686, 93.12876
629.7507, 91.58729
630.2328, 90.22364
630.7150, 89.25098
631.1971, 88.01998
631.6792, 86.50632
632.1613, 84.80305
632.6434, 82.67034
633.1255, 80.42368
633.6077, 78.74274
634.0898, 78.01270
634.5719, 77.46971
635.0540, 76.00491
635.5361, 73.73293
636.0182, 71.74333
636.5004, 70.21606
636.9825, 68.88826
637.4646, 67.60853
637.9467, 66.36681
638.4288, 65.15285
638.9109, 63.99435
639.3931, 62.81259
639.8752, 61.55077
640.3573, 60.26545
640.8394, 59.05375
641.3215, 57.89622
641.8036, 56.65515
642.2858, 55.20776
642.7679, 53.66146
643.2500, 52.41856
643.7321, 51.59081
644.2142, 50.78878
644.6964, 49.99756
645.1785, 49.18607
645.6606, 48.27417
646.1427, 47.32093
646.6248, 46.50051
647.1069, 45.93719
647.5891, 45.45451
648.0712, 44.92310
648.5533, 44.33222
649.0354, 43.63771
649.5175, 42.82256
649.9996, 41.94614
650.4818, 41.01485
650.9639, 40.04637
651.4460, 39.37062
651.9281, 39.34253
652.4102, 39.12719
652.8923, 38.38556
653.3745, 37.56161
653.8566, 37.09173
654.3387, 36.95947
654.8208, 36.84027
655.3029, 36.52839
655.7850, 36.04359
656.2672, 35.33947
656.7493, 34.37842
657.2314, 33.68235
657.7135, 33.47164
658.1956, 33.44027
658.6777, 33.30381
659.1599, 33.07916
659.6420, 32.84207
660.1241, 32.63156
660.6062, 32.38068
661.0883, 31.99255
661.5704, 31.56820
662.0526, 31.29943
662.5347, 31.20220
663.0168, 31.06795
663.4989, 30.66745
663.9810, 30.06283
664.4631, 29.78903
664.9453, 30.10117
665.4274, 30.20179
665.9095, 29.76019
666.3916, 29.16733
666.8737, 28.58923
667.3558, 28.07989
667.8380, 27.80882
668.3201, 28.12185
668.8022, 28.45416
669.2843, 28.08668
669.7664, 27.25855
670.2485, 26.73346
670.7307, 26.72946
671.2128, 26.90616
671.6949, 26.91123
672.1770, 26.74603
672.6591, 26.68107
673.1412, 26.98379
673.6234, 27.04492
674.1055, 26.50877
674.5876, 25.89103
675.0697, 25.69951
675.5518, 25.91033
676.0339, 26.07492
676.5161, 25.85740
676.9982, 25.45530
677.4803, 25.22984
677.9624, 25.17219
678.4445, 25.09543
678.9266, 24.93721
679.4088, 24.77613
679.8909, 24.69206
680.3730, 24.68693
680.8551, 24.69606
681.3372, 24.79825
681.8193, 24.81726
682.3015, 24.66293
682.7836, 24.42195
683.2657, 24.17061
683.7478, 23.92840
684.2299, 23.69201
684.7120, 23.43332
685.1942, 23.20906
685.6763, 23.23489
686.1584, 23.56362
686.6405, 23.77789
687.1226, 23.75681
687.6047, 23.62819
688.0869, 23.48475
688.5690, 23.32937
689.0511, 23.17012
689.5332, 22.93334
690.0153, 22.78032
690.4974, 22.89523
690.9796, 23.08235
691.4617, 23.05013
691.9438, 22.78178
692.4259, 22.50601
692.9080, 22.40351
693.3901, 22.42636
693.8723, 22.39108
694.3544, 22.26991
694.8365, 22.17576
695.3186, 22.12380
695.8007, 22.10633
696.2828, 22.16450
696.7650, 22.25229
697.2471, 22.23044
697.7292, 21.98774
698.2113, 21.75810
698.6934, 21.73868
699.1755, 21.81552
699.6577, 21.80468
700.1398, 21.68319
700.6219, 21.51989
701.1040, 21.35868
701.5861, 21.20467
702.0682, 21.06927
702.5504, 20.93073
703.0325, 20.86174
703.5146, 20.95374
703.9967, 21.03247
704.4788, 21.02743
704.9609, 20.94786
705.4431, 20.79870
705.9252, 20.54701
706.4073, 20.35265
706.8894, 20.42301
707.3715, 20.60679
707.8536, 20.56627
708.3358, 20.29062
708.8179, 20.10289
709.3000, 20.21805
709.7821, 20.48628
710.2642, 20.52973
710.7463, 20.24680
711.2285, 19.96981
711.7106, 19.50704
712.1927, 19.25435
712.6748, 19.57550
713.1569, 20.13979
713.6390, 20.44815
714.1212, 20.35747
714.6033, 20.11249
715.0854, 19.84310
715.5675, 19.57804
716.0496, 19.35754
716.5317, 19.18841
717.0139, 19.13569
717.4960, 19.24765
717.9781, 19.43679
718.4602, 19.56768
718.9423, 19.65531
719.4244, 19.61713
719.9066, 19.28841
720.3887, 19.03675
720.8708, 19.04421
721.3529, 19.15050
721.8350, 19.15484
722.3171, 19.02694
722.7993, 18.90795
723.2814, 18.92531
723.7635, 19.00974
724.2456, 19.03758
724.7277, 19.01369
725.2098, 18.98467
725.6920, 18.97002
726.1741, 18.93255
726.6562, 18.81533
727.1383, 18.61195
727.6204, 18.48837
728.1025, 18.50198
728.5847, 18.51909
729.0668, 18.46183
729.5489, 18.43985
730.0310, 18.61773
730.5131, 18.94335
730.9952, 19.15429
731.4774, 19.06468
731.9595, 18.84407
732.4416, 18.72793
732.9237, 18.69182
733.4058, 18.58984
733.8879, 18.37863
734.3701, 18.25713
734.8522, 18.42633
735.3343, 18.80722
735.8164, 18.98708
736.2985, 18.69353
736.7806, 18.59081
737.2628, 18.93710
737.7449, 19.24365
738.2270, 19.16731
738.7091, 18.82293
739.1912, 18.47055
739.6733, 18.18857
740.1555, 18.04300
740.6376, 18.16522
741.1197, 18.46412
741.6018, 18.70969
742.0839, 18.88143
742.5660, 19.01650
743.0482, 19.14066
743.5303, 19.22306
744.0124, 19.19815
744.4945, 19.03849
744.9766, 18.85713
745.4587, 18.60981
745.9409, 18.39378
746.4230, 18.15515
746.9051, 18.01117
747.3872, 18.16775
747.8693, 18.63814
748.3514, 19.06848
748.8336, 19.22152
749.3157, 19.18584
749.7978, 19.03571
750.2799, 18.80331
750.7620, 18.65086
751.2441, 18.63531
751.7263, 18.63247
752.2084, 18.47268
752.6905, 18.16879
753.1726, 18.19676
753.6547, 19.02558
754.1368, 19.46437
754.6190, 18.94215
755.1011, 18.36002
755.5832, 18.43792
756.0653, 19.03031
756.5474, 19.49914
757.0295, 19.55438
757.5117, 19.49059
757.9938, 19.57208
758.4759, 19.71608
758.9580, 19.75413
759.4401, 19.67091
759.9222, 19.53832
760.4044, 19.38950
760.8865, 19.26940
761.3686, 19.31456
761.8507, 19.62269
762.3328, 19.79913
762.8149, 19.80697
763.2971, 19.71860
763.7792, 19.47488
764.2613, 19.19941
764.7434, 19.04493
765.2255, 19.03483
765.7076, 19.14699
766.1898, 19.51971
766.6719, 19.88812
767.1540, 19.99089
767.6361, 19.87940
768.1182, 19.67232
768.6003, 19.41881
769.0825, 19.20723
769.5646, 19.12492
770.0467, 19.17349
770.5288, 19.43029
771.0109, 20.04506
771.4930, 20.38669
771.9752, 20.17220
772.4573, 19.77317
772.9394, 19.39834
773.4215, 19.09246
773.9036, 19.06011
774.3857, 19.53581
774.8679, 19.99792
775.3500, 20.31897
775.8321, 20.47147
776.3142, 20.31680
776.7963, 19.95701
777.2784, 19.72058
777.7606, 19.79320
778.2427, 19.99232
778.7248, 20.00915
779.2069, 19.85913
779.6890, 19.79748
780.1711, 19.85937
780.6533, 19.91898
781.1354, 19.89626
781.6175, 19.85359
782.0996, 19.92772
782.5817, 20.17368
783.0638, 20.26707
783.5460, 20.07898
784.0281, 19.86865
784.5102, 19.70874
784.9923, 19.59992
785.4744, 19.53378
785.9565, 19.51072
786.4387, 19.54921
786.9208, 19.71120
787.4029, 19.88400
787.8850, 19.85955
788.3671, 19.67480
788.8492, 19.52041
789.3314, 19.43702
789.8135, 19.36834
790.2956, 19.26921
790.7777, 19.14981
791.2598, 19.04570
791.7419, 18.88974
792.2241, 18.87955
792.7062, 19.26660
793.1883, 19.53315
793.6704, 19.30317
794.1525, 18.84976
794.6346, 18.62015
795.1168, 18.72059
795.5989, 18.92571
796.0810, 19.25579
796.5631, 19.50947
797.0452, 19.34807
797.5273, 18.91443
798.0095, 18.64897
798.4916, 18.69121
798.9737, 18.84859
799.4558, 18.91732
799.9379, 18.91096
800.4200, 18.94243
800.9022, 19.04423
801.3843, 19.05640
801.8664, 18.84520
802.3485, 18.65894
802.8306, 18.80179
803.3127, 19.14457
803.7949, 19.26743
804.2770, 18.99163
804.7591, 18.74547
805.2412, 18.64800
805.7233, 18.63025
806.2054, 18.64016
806.6876, 18.68165
807.1697, 18.80491
807.6518, 19.02802
808.1339, 19.22464
808.6160, 19.23279
809.0981, 19.09963
809.5803, 18.98364
810.0624, 18.88757
810.5445, 18.74295
811.0266, 18.48312
811.5087, 18.32171
811.9908, 18.56869
812.4730, 19.23146
812.9551, 19.58794
813.4372, 19.49921
813.9193, 19.28936
814.4014, 18.75572
814.8835, 18.32491
815.3657, 18.43618
815.8478, 18.89328
816.3299, 19.08501
816.8120, 18.70527
817.2941, 18.36423
817.7762, 18.61285
818.2584, 19.07313
818.7405, 19.22372
819.2226, 19.09067
819.7047, 18.94317
820.1868, 18.89833
820.6689, 18.90310
821.1511, 18.87074
821.6332, 18.80881
822.1153, 18.89765
822.5974, 19.20726
823.0795, 19.39500
823.5616, 19.29428
824.0438, 19.11513
824.5259, 19.09959
825.0080, 19.22188
825.4901, 19.21912
825.9722, 18.81830
826.4543, 18.65273
826.9365, 19.15512
827.4186, 19.68610
827.9007, 19.62912
828.3828, 19.19127
828.8649, 18.97759
829.3470, 19.23664
829.8292, 19.60653
830.3113, 19.75138
830.7934, 19.74670
831.2755, 19.71230
831.7576, 19.66880
832.2397, 19.72664
832.7219, 19.93717
833.2040, 20.12427
833.6861, 20.05103
834.1682, 19.73898
834.6503, 19.58798
835.1324, 19.63253
835.6146, 19.76553
836.0967, 20.10246
836.5788, 20.38002
837.0609, 20.36897
837.5430, 20.16312
838.0251, 20.02138
838.5073, 19.97262
838.9894, 20.00303
839.4715, 20.19180
839.9536, 20.38336
840.4357, 20.39526
840.9178, 20.32724
841.4000, 20.42348
841.8821, 20.74738
842.3642, 21.06716
842.8463, 21.13540
843.3284, 21.04578
843.8105, 21.00761
844.2927, 21.02118
844.7748, 21.11397
845.2569, 21.30594
845.7390, 21.45565
846.2211, 21.42011
846.7032, 21.25634
847.1854, 21.22975
847.6675, 21.38655
848.1496, 21.58120
848.6317, 21.85317
849.1138, 22.11068
849.5959, 22.33601
850.0781, 22.51423
850.5602, 22.61145
851.0423, 22.61663
851.5244, 22.62674
852.0065, 22.81287
852.4886, 22.87292
852.9708, 22.37745
853.4529, 21.72899
853.9350, 21.60719
854.4171, 22.04444
854.8992, 22.48469
855.3813, 22.53594
855.8635, 22.37988
856.3456, 22.27155
856.8277, 22.22754
857.3098, 22.42159
857.7919, 22.89158
858.2740, 23.15739
858.7562, 22.89739
859.2383, 22.42327
859.7204, 22.31799
860.2025, 22.65557
860.6846, 22.94535
861.1667, 23.20554
861.6489, 23.38842
862.1310, 23.44498
862.6131, 23.45209
863.0952, 23.45714
863.5773, 23.46716
864.0594, 23.50369
864.5416, 23.63603
865.0237, 23.69370
865.5058, 23.53225
865.9879, 23.31645
866.4700, 23.18207
866.9521, 23.13526
867.4343, 23.15744
867.9164, 23.23939
868.3985, 23.33406
868.8806, 23.39767
869.3627, 23.43375
869.8448, 23.43207
870.3270, 23.40185
870.8091, 23.41034
871.2912, 23.47335
871.7733, 23.64610
872.2554, 24.02876
872.7375, 24.52277
873.2197, 24.61212
873.7018, 24.09287
874.1839, 23.75885
874.6660, 23.79420
875.1481, 23.84735
875.6302, 23.66757
876.1124, 23.42315
876.5945, 23.37885
877.0766, 23.57496
877.5587, 23.73972
878.0408, 23.81995
878.5229, 23.85746
879.0051, 23.85106
879.4872, 23.82640
879.9693, 23.83131
880.4514, 23.84999
880.9335, 23.78780
881.4156, 23.55700
881.8978, 23.34780
882.3799, 23.42720
882.8620, 23.65806
883.3441, 23.72724
883.8262, 23.64635
884.3083, 23.65208
884.7905, 23.84870
885.2726, 24.09833
885.7547, 24.24166
886.2368, 24.27374
886.7189, 24.07703
887.2010, 23.55569
887.6832, 23.29191
888.1653, 23.50788
888.6474, 23.82877
889.1295, 24.00046
889.6116, 24.03358
890.0938, 23.95873
890.5759, 23.68002
891.0580, 23.49096
891.5401, 23.49400
892.0222, 23.47967
892.5043, 23.28483
892.9865, 23.06361
893.4686, 23.05036
893.9507, 23.24717
894.4328, 23.37151
894.9149, 23.24499
895.3970, 23.05904
895.8792, 22.92413
896.3613, 22.82928
896.8434, 22.77731
897.3255, 22.75216
897.8076, 22.70225
898.2897, 22.60110
898.7719, 22.49611
899.2540, 22.41844
899.7361, 22.38844
900.2182, 22.52683
900.7003, 22.82398
901.1824, 23.03147
901.6646, 23.06699
902.1467, 23.05970
902.6288, 23.15038
903.1109, 23.29333
903.5930, 23.22040
904.0751, 22.77578
904.5573, 22.59204
905.0394, 22.98123
905.5215, 23.22858
906.0036, 22.71571
906.4857, 21.98017
906.9678, 21.94865
907.4500, 22.73325
907.9321, 23.13483
908.4142, 22.68747
908.8963, 22.24039
909.3784, 22.06297
909.8605, 22.03347
910.3427, 22.10731
910.8248, 22.21447
911.3069, 22.19881
911.7890, 21.97817
912.2711, 21.73497
912.7532, 21.53105
913.2354, 21.43522
913.7175, 21.62498
914.1996, 21.98383
914.6817, 22.21505
915.1638, 22.23573
915.6459, 22.14098
916.1280, 21.98160
916.6101, 21.82130
917.0922, 21.84046
917.5743, 22.01850
918.0565, 22.17880
918.5386, 22.30608
919.0207, 22.27237
919.5028, 21.96072
919.9849, 21.59768
920.4670, 21.59166
920.9492, 21.97966
921.4313, 22.26792
921.9134, 22.44848
922.3955, 22.54404
922.8776, 22.51991
923.3597, 22.45499
923.8419, 22.40834
924.3240, 22.37151
924.8061, 22.32466
925.2882, 22.29813
925.7703, 22.18783
926.2524, 21.88272
926.7346, 21.59742
927.2167, 21.36913
927.6988, 21.26496
928.1809, 21.43153
928.6630, 21.83410
929.1451, 22.15361
929.6273, 22.19330
930.1094, 22.18096
930.5915, 22.25840
931.0736, 22.39808
931.5557, 22.59087
932.0378, 22.81166
932.5200, 23.02222
933.0021, 23.20422
933.4842, 23.29470
933.9663, 23.13559
934.4484, 22.88642
934.9305, 23.00734
935.4127, 23.41310
935.8948, 23.61400
936.3769, 23.51561
936.8590, 23.39362
937.3411, 23.43036
937.8232, 23.58714
938.3054, 23.81029
938.7875, 24.11628
939.2696, 24.28983
939.7517, 24.28544
940.2338, 24.31219
940.7159, 24.44563
941.1981, 24.62167
941.6802, 24.76006
942.1623, 24.87794
942.6444, 25.10942
943.1265, 25.64802
943.6086, 25.97902
944.0908, 25.81717
944.5729, 25.76759
945.0550, 26.25082
945.5371, 26.89867
946.0192, 27.16055
946.5013, 27.00500
946.9835, 27.04373
947.4656, 27.51441
947.9477, 28.09773
948.4298, 28.72633
948.9119, 29.36005
949.3940, 29.99012
949.8762, 30.59470
950.3583, 31.13196
950.8404, 31.58853
951.3225, 32.00661
951.8046, 32.33791
952.2867, 32.71400
952.7689, 33.30193
953.2510, 34.03579
953.7331, 34.81686
954.2152, 35.60884
954.6973, 36.35470
955.1794, 37.01336
955.6616, 37.69381
956.1437, 38.52203
956.6258, 39.50934
957.1079, 40.76812
957.5900, 42.27325
958.0721, 43.62399
958.5543, 44.69299
959.0364, 45.84817
959.5185, 47.43756
960.0006, 49.36129
960.4827, 51.30882
960.9648, 53.28190
961.4470, 55.14072
961.9291, 56.74198
962.4112, 58.72475
962.8933, 61.50669
963.3754, 64.52463
963.8575, 66.91785
964.3397, 68.71685
964.8218, 71.46017
965.3039, 75.66652
965.7860, 79.85334
966.2681, 83.64885
966.7502, 87.64902
967.2324, 92.17232
967.7145, 97.10591
968.1966, 102.1919
968.6787, 107.3821
969.1608, 113.1812
969.6429, 119.8231
970.1251, 126.9095
970.6072, 134.1145
971.0893, 141.9204
971.5714, 150.6262
972.0535, 160.3137
972.5356, 171.0834
973.0178, 182.9442
973.4999, 195.8242
973.9820, 209.4718
974.4641, 224.4303
974.9462, 241.4731
975.4283, 259.8212
975.9105, 278.3210
976.3926, 296.9533
976.8747, 316.7496
977.3568, 338.3216
977.8389, 360.1706
978.3210, 381.1326
978.8032, 401.2085
979.2853, 420.4010
979.7674, 438.9886
980.2495, 456.9670
980.7316, 474.7777
981.2137, 494.5574
981.6959, 517.6323
982.1780, 544.1121
982.6601, 573.9410
983.1422, 606.9659
983.6243, 642.4853
984.1064, 680.5030
984.5886, 722.7844
985.0707, 769.7987
985.5528, 822.7391
986.0349, 882.6571
986.5170, 949.6662
986.9991, 1022.635
987.4813, 1101.282
987.9634, 1193.037
988.4455, 1301.865
988.9276, 1408.381
989.4097, 1508.485
989.8918, 1592.740
990.3740, 1653.309
990.8561, 1688.747
991.3382, 1670.052
991.8203, 1588.832
992.3024, 1472.960
992.7845, 1309.011
993.2667, 1137.267
993.7488, 969.9717
994.2309, 813.4601
994.7130, 678.6472
995.1951, 565.9996
995.6772, 471.2731
996.1594, 398.3560
996.6415, 336.9193
997.1236, 288.1057
997.6057, 247.9436
998.0878, 215.7963
998.5699, 190.0010
999.0521, 168.4727
999.5342, 151.3555
1000.016, 136.2928
1000.498, 123.1070
1000.981, 111.5690
1001.463, 101.8243
1001.945, 93.50511
1002.427, 86.43061
1002.909, 80.47012
1003.391, 75.43515
1003.873, 71.39360
1004.355, 67.54126
1004.837, 63.39173
1005.320, 59.43999
1005.802, 55.95012
1006.284, 52.85090
1006.766, 50.03769
1007.248, 47.51261
1007.730, 45.35896
1008.212, 43.61446
1008.694, 42.09569
1009.177, 40.75380
1009.659, 39.48849
1010.141, 38.15963
1010.623, 36.83388
1011.105, 35.68390
1011.587, 34.68979
1012.069, 33.65423
1012.551, 32.45569
1013.033, 31.32617
1013.516, 30.60198
1013.998, 30.06208
1014.480, 29.25023
1014.962, 28.30054
1015.444, 27.70190
1015.926, 27.49207
1016.408, 27.21370
1016.890, 26.56417
1017.372, 25.76721
1017.855, 25.07296
1018.337, 24.51691
1018.819, 24.33880
1019.301, 24.45232
1019.783, 24.31348
1020.265, 23.79330
1020.747, 23.11061
1021.229, 22.40102
1021.712, 21.79816
1022.194, 21.66146
1022.676, 21.92075
1023.158, 21.98408
1023.640, 21.83588
1024.122, 21.60469
1024.604, 21.32658
1025.086, 20.97305
1025.568, 20.49317
1026.051, 19.99039
1026.533, 19.75451
1027.015, 19.79816
1027.497, 19.84290
1027.979, 19.88331
1028.461, 19.93464
1028.943, 20.01962
1029.425, 20.03997
1029.908, 19.89112
1030.390, 19.63183
1030.872, 19.45825
1031.354, 19.38764
1031.836, 19.31903
1032.318, 19.24642
1032.800, 19.18946
1033.282, 19.14407
1033.765, 19.14681
1034.247, 19.27424
1034.729, 19.45712
1035.211, 19.40233
1035.693, 18.97663
1036.175, 18.71966
1036.657, 18.69993
1037.139, 18.71266
1037.621, 18.71042
1038.104, 18.69683
1038.586, 18.68776
1039.068, 18.66921
1039.550, 18.57173
1040.032, 18.31558
1040.514, 18.17741
1040.996, 18.24175
1041.478, 18.29971
1041.960, 18.26895
1042.443, 18.22550
1042.925, 18.23103
1043.407, 18.28138
1043.889, 18.36022
1044.371, 18.47854
1044.853, 18.60058
1045.335, 18.88681
1045.817, 18.97010
1046.300, 18.55923
1046.782, 18.05144
1047.264, 17.73436
1047.746, 17.61473
1048.228, 17.70370
1048.710, 18.13289
1049.192, 18.41576
1049.674, 18.38818
1050.156, 18.34557
1050.639, 18.41483
1051.121, 18.49352
1051.603, 18.44639
1052.085, 18.32996
1052.567, 18.34765
1053.049, 18.57907
1053.531, 18.76314
1054.013, 18.82112
1054.495, 18.86150
1054.978, 18.91491
1055.460, 18.98074
1055.942, 19.10096
1056.424, 19.22659
1056.906, 19.18748
1057.388, 18.87817
1057.870, 18.75862
1058.352, 19.13978
1058.835, 19.50056
1059.317, 19.70383
1059.799, 19.70889
1060.281, 19.27760
1060.763, 18.66662
1061.245, 18.51476
1061.727, 19.01208
1062.209, 19.55864
1062.692, 20.05124
1063.174, 20.42574
1063.656, 20.62931
1064.138, 20.72079
1064.620, 20.68753
1065.102, 20.60308
1065.584, 20.60837
1066.066, 20.73568
1066.548, 20.91768
1067.031, 21.14896
1067.513, 21.40305
1067.995, 21.69855
1068.477, 21.98377
1068.959, 22.19036
1069.441, 22.35638
1069.923, 22.56979
1070.405, 22.84801
1070.887, 23.12534
1071.370, 23.34909
1071.852, 23.59572
1072.334, 23.94674
1072.816, 24.29449
1073.298, 24.47278
1073.780, 24.60441
1074.262, 24.97006
1074.744, 25.59414
1075.227, 26.09632
1075.709, 26.20110
1076.191, 26.30237
1076.673, 26.58188
1077.155, 26.93892
1077.637, 27.27742
1078.119, 27.64405
1078.601, 28.16162
1079.083, 28.82120
1079.566, 29.40956
1080.048, 29.77255
1080.530, 30.18652
1081.012, 30.87601
1081.494, 31.57680
1081.976, 32.01709
1082.458, 32.37789
1082.940, 32.98642
1083.422, 33.81108
1083.905, 34.42528
1084.387, 34.53350
1084.869, 34.80371
1085.351, 35.75273
1085.833, 36.74376
1086.315, 37.24493
1086.797, 37.59890
1087.279, 38.32426
1087.761, 39.33905
1088.244, 40.08350
1088.726, 40.27272
1089.208, 40.65316
1089.690, 41.74469
1090.172, 42.88498
1090.654, 43.75646
1091.136, 44.41630
1091.618, 44.79240
1092.101, 45.05470
1092.583, 45.68967
1093.065, 46.89054
1093.547, 47.81726
1094.029, 47.81504
1094.511, 47.87794
1094.993, 48.69756
1095.475, 49.60638
1095.958, 49.87988
1096.440, 49.80553
1096.922, 50.14837
1097.404, 51.06192
1097.886, 51.65258
1098.368, 51.38734
1098.850, 51.07529
1099.332, 50.94672
1099.814, 50.94004
1100.297, 51.08008
1100.779, 51.27265
1101.261, 51.39283
1101.743, 51.42550
1102.225, 51.39645
1102.707, 51.21561
1103.189, 51.12474
1103.671, 51.33479
1104.153, 51.48253
1104.636, 51.25042
1105.118, 50.91542
1105.600, 50.83518
1106.082, 50.99143
1106.564, 51.11769
1107.046, 51.14336
1107.528, 51.19725
1108.010, 51.21210
1108.493, 51.37003
1108.975, 51.93947
1109.457, 52.52267
1109.939, 52.61175
1110.421, 52.41091
1110.903, 52.63506
1111.385, 53.49910
1111.867, 54.23175
1112.349, 54.86054
1112.832, 55.22207
1113.314, 55.00549
1113.796, 54.78235
1114.278, 54.89812
1114.760, 55.30187
1115.242, 55.91882
1115.724, 56.78227
1116.206, 57.61401
1116.688, 58.36065
1117.171, 59.16152
1117.653, 59.99248
1118.135, 60.92427
1118.617, 61.86454
1119.099, 63.03150
1119.581, 64.85924
1120.063, 67.27884
1120.545, 69.18510
1121.028, 70.30254
1121.510, 71.52580
1121.992, 72.82307
1122.474, 74.35773
1122.956, 76.27050
1123.438, 78.32197
1123.920, 80.31602
1124.402, 82.25842
1124.885, 84.17565
1125.367, 86.08048
1125.849, 87.97843
1126.331, 89.90036
1126.813, 91.69962
1127.295, 93.29710
1127.777, 94.91288
1128.259, 96.77036
1128.741, 98.59584
1129.224, 99.84570
1129.706, 100.5210
1130.188, 100.9950
1130.670, 101.2528
1131.152, 101.4542
1131.634, 101.6523
1132.116, 101.6266
1132.598, 101.3062
1133.080, 100.4546
1133.563, 98.63123
1134.045, 96.19131
1134.527, 94.83609
1135.009, 94.44768
1135.491, 92.58421
1135.973, 89.10461
1136.455, 85.83060
1136.937, 83.37200
1137.420, 80.93044
1137.902, 77.82298
1138.384, 74.44083
1138.866, 71.59988
1139.348, 69.13517
1139.830, 66.29678
1140.312, 63.19385
1140.794, 60.48840
1141.276, 58.28646
1141.759, 56.19448
1142.241, 53.99985
1142.723, 51.82811
1143.205, 49.86353
1143.687, 48.01226
1144.169, 46.04104
1144.651, 44.07135
1145.133, 42.32490
1145.615, 40.84348
1146.098, 39.81272
1146.580, 39.21328
1147.062, 38.32720
1147.544, 36.38357
1148.026, 34.42891
1148.508, 33.71857
1148.990, 33.52264
1149.472, 32.95393
1149.955, 32.13036
1150.437, 31.42903
1150.919, 30.86765
1151.401, 30.15436
1151.883, 29.12578
1152.365, 28.13683
1152.847, 27.34793
1153.329, 26.76010
1153.812, 26.58280
1154.294, 26.45276
1154.776, 25.90625
1155.258, 25.08879
1155.740, 24.42267
1156.222, 24.00293
1156.704, 23.61311
1157.186, 23.17378
1157.668, 22.76116
1158.151, 22.35452
1158.633, 22.03063
1159.115, 21.94423
1159.597, 21.89893
1160.079, 21.58104
1160.561, 21.02952
1161.043, 20.65450
1161.525, 20.64223
1162.007, 20.50391
1162.490, 20.08104
1162.972, 19.70556
1163.454, 19.47639
1163.936, 19.31784
1164.418, 19.21935
1164.900, 19.12425
1165.382, 18.87150
1165.864, 18.42361
1166.347, 18.25517
1166.829, 18.52097
1167.311, 18.58478
1167.793, 18.28040
1168.275, 18.02183
1168.757, 18.03433
1169.239, 18.09467
1169.721, 17.93702
1170.203, 17.61657
1170.686, 17.34344
1171.168, 17.11422
1171.650, 17.05973
1172.132, 17.19211
1172.614, 17.20028
1173.096, 16.99914
1173.578, 16.69009
1174.060, 16.32218
1174.542, 16.04073
1175.025, 16.17411
1175.507, 16.53543
1175.989, 16.41875
1176.471, 15.97619
1176.953, 15.81196
1177.435, 15.93513
1177.917, 15.95069
1178.399, 15.72546
1178.882, 15.50414
1179.364, 15.49395
1179.846, 15.55493
1180.328, 15.52362
1180.810, 15.44720
1181.292, 15.40257
1181.774, 15.36223
1182.256, 15.25636
1182.739, 15.09059
1183.221, 14.94290
1183.703, 14.85303
1184.185, 14.70309
1184.667, 14.29932
1185.149, 13.96376
1185.631, 13.94133
1186.113, 14.04458
1186.595, 14.14389
1187.078, 14.21603
1187.560, 14.25686
1188.042, 14.26390
1188.524, 14.21716
1189.006, 14.05755
1189.488, 13.93990
1189.970, 13.90145
1190.452, 13.89449
1190.934, 13.95832
1191.417, 13.99161
1191.899, 13.87419
1192.381, 13.67352
1192.863, 13.56347
1193.345, 13.56137
1193.827, 13.51948
1194.309, 13.42081
1194.791, 13.32898
1195.274, 13.24710
1195.756, 13.19788
1196.238, 13.21103
1196.720, 13.19911
1197.202, 13.04871
1197.684, 12.81793
1198.166, 12.72058
1198.648, 12.74940
1199.130, 12.68470
1199.613, 12.52503
1200.095, 12.35498
1200.577, 12.19997
1201.059, 12.18552
1201.541, 12.38957
1202.023, 12.60401
1202.505, 12.55124
1202.987, 12.36171
1203.469, 12.26497
1203.952, 12.23752
1204.434, 12.28942
1204.916, 12.35424
1205.398, 12.20493
1205.880, 11.84079
1206.362, 11.62904
1206.844, 11.82425
1207.326, 11.97780
1207.809, 11.64052
1208.291, 11.26034
1208.773, 11.16338
1209.255, 11.24820
1209.737, 11.50469
1210.219, 11.79925
1210.701, 11.82734
1211.183, 11.53737
1211.666, 11.40795
1212.148, 11.79049
1212.630, 11.97028
1213.112, 11.57611
1213.594, 11.25293
1214.076, 11.38578
1214.558, 11.61322
1215.040, 11.57936
1215.522, 11.40121
1216.005, 11.43901
1216.487, 11.74227
1216.969, 11.84429
1217.451, 11.68987
1217.933, 11.55476
1218.415, 11.47781
1218.897, 11.43294
1219.379, 11.40530
1219.861, 11.43135
1220.344, 11.57664
1220.826, 11.74047
1221.308, 11.59772
1221.790, 11.23828
1222.272, 11.13301
1222.754, 11.24128
1223.236, 11.28690
1223.718, 11.23132
1224.201, 11.22091
1224.683, 11.32363
1225.165, 11.41393
1225.647, 11.37301
1226.129, 11.26976
1226.611, 11.11496
1227.093, 10.99675
1227.575, 11.06534
1228.057, 11.22869
1228.540, 11.33401
1229.022, 11.35676
1229.504, 11.30602
1229.986, 11.14437
1230.468, 11.09910
1230.950, 11.47598
1231.432, 11.66783
1231.914, 11.22503
1232.396, 10.76685
1232.879, 10.77045
1233.361, 10.98058
1233.843, 11.00068
1234.325, 10.86454
1234.807, 10.84356
1235.289, 10.99846
1235.771, 11.07096
1236.253, 11.03391
1236.736, 11.01401
1237.218, 11.04875
1237.700, 11.06744
1238.182, 11.02433
1238.664, 10.95312
1239.146, 10.89740
1239.628, 10.85615
1240.110, 10.83016
1240.593, 10.81491
1241.075, 10.80623
1241.557, 10.79071
1242.039, 10.69741
1242.521, 10.52814
1243.003, 10.39503
1243.485, 10.35878
1243.967, 10.36771
1244.449, 10.35622
1244.932, 10.39098
1245.414, 10.61375
1245.896, 10.84675
1246.378, 10.88351
1246.860, 10.78920
1247.342, 10.65631
1247.824, 10.52589
1248.306, 10.53436
1248.788, 10.84111
1249.271, 10.93131
1249.753, 10.45220
1250.235, 10.12689
1250.717, 10.23595
1251.199, 10.42216
1251.681, 10.51631
1252.163, 10.53469
1252.645, 10.48495
1253.128, 10.38476
1253.610, 10.35748
1254.092, 10.41754
1254.574, 10.32832
1255.056, 10.07403
1255.538, 10.04365
1256.020, 10.31854
1256.502, 10.50609
1256.984, 10.38351
1257.467, 10.20135
1257.949, 10.25143
1258.431, 10.40591
1258.913, 10.51379
1259.395, 10.53431
1259.877, 10.26747
1260.359, 9.910998
1260.841, 9.943471
1261.323, 10.32862
1261.806, 10.59034
1262.288, 10.55021
1262.770, 10.49251
1263.252, 10.62992
1263.734, 10.65658
1264.216, 10.27542
1264.698, 9.941621
1265.180, 9.984888
1265.663, 10.20036
1266.145, 10.40207
1266.627, 10.54240
1267.109, 10.43071
1267.591, 9.991162
1268.073, 9.757163
1268.555, 9.763373
1269.037, 9.811233
1269.520, 9.873744
1270.002, 9.966343
1270.484, 10.10206
1270.966, 10.17322
1271.448, 10.06110
1271.930, 9.889399
1272.412, 9.906965
1272.894, 10.02674
1273.376, 10.03162
1273.859, 9.974465
1274.341, 9.983898
1274.823, 10.06325
1275.305, 10.19157
1275.787, 10.34448
1276.269, 10.37240
1276.751, 10.09769
1277.233, 9.915150
1277.715, 10.17914
1278.198, 10.38890
##END=



