##NAMES=Tsumoite
##RRUFFID=R080089
##IDEAL CHEMISTRY=BiTe
##LOCALITY=Sredniy Skarn, Tyrnyauz Mo-W Deposit, Baksan Valley, Kabardino-Balkarian Republic, Northern Caucasus Region, Russia
##OWNER=RRUFF
##SOURCE=Michael Scott
##DESCRIPTION=Aggregates of metallic grey platelets associated with orange grossular
##STATUS=The identification of this mineral has been confirmed only by single crystal X-ray diffraction.
##URL=rruff.info/R080089
91.87140, 0.0000000E+00
92.35352, 15.65741
92.83563, 14.07997
93.31775, 13.40820
93.79987, 13.96038
94.28198, 15.46073
94.76410, 17.14411
95.24622, 18.87804
95.72833, 20.69122
96.21045, 22.60678
96.69257, 24.63526
97.17468, 26.74035
97.65680, 28.76073
98.13892, 30.71231
98.62103, 33.02790
99.10315, 35.67427
99.58527, 38.72259
100.0674, 42.62184
100.5495, 47.43502
101.0316, 52.88948
101.5137, 58.45971
101.9958, 63.97640
102.4780, 70.33830
102.9601, 77.88289
103.4422, 86.74075
103.9243, 95.92945
104.4064, 105.7034
104.8885, 115.6964
105.3707, 125.5131
105.8528, 135.1611
106.3349, 144.5008
106.8170, 153.3664
107.2991, 161.4397
107.7813, 169.6521
108.2634, 178.2448
108.7455, 187.0522
109.2276, 195.2075
109.7097, 202.3365
110.1918, 209.1550
110.6740, 215.9701
111.1561, 222.5889
111.6382, 229.4292
112.1203, 235.7645
112.6024, 242.0107
113.0845, 250.3626
113.5667, 262.6593
114.0488, 276.3059
114.5309, 289.6995
115.0130, 302.6585
115.4951, 315.0324
115.9772, 326.7226
116.4594, 337.8418
116.9415, 348.6905
117.4236, 359.1744
117.9057, 369.5273
118.3878, 379.9542
118.8699, 391.8294
119.3521, 402.9545
119.8342, 411.9608
120.3163, 418.6266
120.7984, 424.6738
121.2805, 430.6712
121.7626, 436.7899
122.2448, 443.3224
122.7269, 451.3500
123.2090, 459.4012
123.6911, 465.7270
124.1732, 469.7910
124.6553, 473.6055
125.1375, 479.3029
125.6196, 486.3704
126.1017, 493.1839
126.5838, 497.4891
127.0659, 501.1015
127.5480, 507.5807
128.0302, 518.0930
128.5123, 530.3095
128.9944, 541.1716
129.4765, 550.7922
129.9586, 560.2310
130.4407, 569.9495
130.9229, 580.0363
131.4050, 590.9835
131.8871, 602.7803
132.3692, 615.2924
132.8513, 628.3828
133.3334, 641.1382
133.8156, 650.4394
134.2977, 655.4581
134.7798, 658.5615
135.2619, 662.2565
135.7440, 667.6526
136.2261, 674.0417
136.7083, 678.6853
137.1904, 681.7899
137.6725, 682.8477
138.1546, 680.9781
138.6367, 675.7994
139.1188, 670.0868
139.6010, 664.8279
140.0831, 660.0657
140.5652, 652.7101
141.0473, 641.7822
141.5294, 629.5449
142.0115, 619.1553
142.4937, 611.1973
142.9758, 603.4002
143.4579, 595.0847
143.9400, 586.2810
144.4221, 576.8620
144.9042, 566.4369
145.3864, 555.5695
145.8685, 545.5276
146.3506, 536.8743
146.8327, 528.1244
147.3148, 518.6072
147.7969, 507.7808
148.2791, 497.5338
148.7612, 487.9360
149.2433, 478.9398
149.7254, 470.2765
150.2075, 461.9406
150.6896, 454.0045
151.1718, 446.5981
151.6539, 440.3163
152.1360, 433.6888
152.6181, 425.9265
153.1002, 417.6762
153.5823, 410.9124
154.0645, 406.8083
154.5466, 403.3670
155.0287, 399.6748
155.5108, 395.5720
155.9929, 391.2018
156.4750, 386.5526
156.9572, 381.6438
157.4393, 376.6637
157.9214, 370.6141
158.4035, 365.0673
158.8856, 360.9811
159.3677, 360.1327
159.8499, 359.1757
160.3320, 356.9133
160.8141, 353.6001
161.2962, 350.7472
161.7783, 349.7078
162.2604, 349.0008
162.7426, 347.4047
163.2247, 343.3321
163.7068, 339.3726
164.1889, 336.9625
164.6710, 336.0089
165.1531, 334.7690
165.6353, 331.9467
166.1174, 328.5415
166.5995, 325.6298
167.0816, 323.8773
167.5637, 322.5229
168.0458, 321.1856
168.5280, 319.8636
169.0101, 318.4046
169.4922, 316.7186
169.9743, 314.8479
170.4564, 312.8615
170.9385, 310.5786
171.4207, 308.3158
171.9028, 306.3533
172.3849, 304.7173
172.8670, 303.2572
173.3491, 302.0808
173.8312, 300.9838
174.3134, 299.5664
174.7955, 297.4946
175.2776, 295.0903
175.7597, 292.5933
176.2418, 289.9453
176.7239, 287.6454
177.2061, 286.3593
177.6882, 285.7777
178.1703, 285.0823
178.6524, 283.9284
179.1345, 282.3833
179.6166, 280.4022
180.0988, 277.8546
180.5809, 275.4488
181.0630, 274.3174
181.5451, 274.1292
182.0272, 273.6051
182.5093, 271.5386
182.9915, 268.6582
183.4736, 266.9542
183.9557, 266.7645
184.4378, 266.9420
184.9199, 265.7539
185.4020, 263.4034
185.8842, 261.1778
186.3663, 260.0256
186.8484, 259.6253
187.3305, 258.7856
187.8126, 257.2974
188.2947, 255.6451
188.7769, 254.5747
189.2590, 254.0705
189.7411, 253.8045
190.2232, 253.8853
190.7053, 254.1724
191.1874, 253.6135
191.6696, 251.8790
192.1517, 249.7279
192.6338, 248.6334
193.1159, 248.6279
193.5980, 248.7900
194.0801, 248.6802
194.5623, 248.2993
195.0444, 247.5080
195.5265, 246.1129
196.0086, 244.5606
196.4907, 243.9251
196.9728, 244.3045
197.4550, 244.7596
197.9371, 244.6466
198.4192, 243.9526
198.9013, 243.5088
199.3834, 243.4651
199.8655, 243.6299
200.3477, 243.5247
200.8298, 243.1082
201.3119, 242.6060
201.7940, 242.2029
202.2761, 241.9320
202.7582, 241.3205
203.2404, 240.1161
203.7225, 238.7040
204.2046, 238.2887
204.6867, 239.1211
205.1688, 240.0956
205.6509, 240.5622
206.1331, 240.4915
206.6152, 240.1189
207.0973, 239.3813
207.5794, 238.3976
208.0615, 237.4362
208.5436, 236.3551
209.0258, 235.6660
209.5079, 235.9372
209.9900, 237.5354
210.4721, 238.3011
210.9542, 237.8082
211.4363, 236.4505
211.9185, 235.5571
212.4006, 235.2366
212.8827, 235.1381
213.3648, 235.1173
213.8469, 235.2625
214.3290, 235.1376
214.8112, 234.6102
215.2933, 233.8099
215.7754, 233.1617
216.2575, 232.6413
216.7396, 232.3135
217.2217, 232.2972
217.7039, 232.7920
218.1860, 232.9791
218.6681, 232.7542
219.1502, 232.1920
219.6323, 231.5382
220.1144, 230.7562
220.5966, 229.9603
221.0787, 229.2025
221.5608, 228.4408
222.0429, 227.8570
222.5250, 227.5433
223.0071, 227.4117
223.4893, 227.1312
223.9714, 226.5996
224.4535, 226.0829
224.9356, 225.7391
225.4177, 225.6814
225.8998, 225.5356
226.3820, 225.2903
226.8641, 224.9430
227.3462, 224.4332
227.8283, 223.4917
228.3104, 222.7934
228.7925, 222.8440
229.2747, 224.4321
229.7568, 224.9152
230.2389, 223.7785
230.7210, 221.5456
231.2031, 219.9221
231.6852, 219.1514
232.1674, 218.6265
232.6495, 218.0743
233.1316, 217.4753
233.6137, 216.8746
234.0958, 216.1726
234.5779, 215.4972
235.0601, 215.2899
235.5422, 215.9861
236.0243, 216.5184
236.5064, 216.3433
236.9885, 214.9609
237.4706, 214.0125
237.9528, 213.7901
238.4349, 213.9357
238.9170, 213.4945
239.3991, 211.9761
239.8812, 210.6037
240.3633, 209.9709
240.8455, 210.5696
241.3276, 210.6775
241.8097, 210.1344
242.2918, 209.1587
242.7739, 208.1891
243.2560, 207.0815
243.7382, 206.2042
244.2203, 205.7304
244.7024, 205.8100
245.1845, 205.8984
245.6666, 206.1306
246.1487, 206.3080
246.6309, 206.0045
247.1130, 204.9239
247.5951, 203.8380
248.0772, 202.9631
248.5593, 202.2124
249.0414, 202.0143
249.5236, 202.6904
250.0057, 203.7142
250.4878, 204.2099
250.9699, 203.9404
251.4520, 203.5572
251.9341, 203.2395
252.4163, 202.9774
252.8984, 202.8647
253.3805, 203.1461
253.8626, 203.3852
254.3447, 202.8754
254.8268, 201.2242
255.3090, 199.6077
255.7911, 198.3385
256.2732, 197.4183
256.7553, 196.8120
257.2374, 196.7175
257.7195, 196.7412
258.2017, 196.3774
258.6838, 195.4622
259.1659, 194.5229
259.6480, 193.6474
260.1301, 192.8403
260.6122, 192.2082
261.0944, 191.8558
261.5765, 191.5470
262.0586, 191.0165
262.5407, 190.1955
263.0228, 189.3484
263.5049, 188.5183
263.9871, 187.7017
264.4692, 187.0107
264.9513, 186.5331
265.4334, 186.0333
265.9155, 185.2058
266.3976, 183.8895
266.8798, 182.8725
267.3619, 182.4699
267.8440, 182.5452
268.3261, 181.8804
268.8082, 180.1058
269.2903, 178.3706
269.7725, 177.8028
270.2546, 178.7735
270.7367, 179.1639
271.2188, 178.4111
271.7009, 176.9022
272.1830, 176.4059
272.6652, 177.2651
273.1473, 178.2061
273.6294, 178.3447
274.1115, 177.5651
274.5936, 176.6412
275.0757, 175.6165
275.5579, 174.5102
276.0400, 173.3079
276.5221, 171.9061
277.0042, 170.8200
277.4863, 170.4821
277.9684, 170.9567
278.4506, 171.3199
278.9327, 171.5703
279.4148, 171.6039
279.8969, 171.1055
280.3790, 170.0088
280.8611, 168.8580
281.3433, 167.8946
281.8254, 167.1161
282.3075, 166.5153
282.7896, 166.1117
283.2717, 165.8338
283.7538, 165.6438
284.2360, 165.5524
284.7181, 165.2979
285.2002, 164.5927
285.6823, 163.5261
286.1644, 163.0059
286.6465, 163.1434
287.1287, 163.4365
287.6108, 163.1434
288.0929, 162.3023
288.5750, 161.6446
289.0571, 161.5957
289.5392, 161.9497
290.0214, 161.8659
290.5035, 161.3153
290.9856, 160.5832
291.4677, 159.8521
291.9498, 159.1511
292.4319, 158.7046
292.9141, 158.7401
293.3962, 158.9827
293.8783, 158.6880
294.3604, 157.8499
294.8425, 157.0231
295.3246, 156.7473
295.8068, 156.8817
296.2889, 156.9675
296.7710, 156.9212
297.2531, 156.7461
297.7352, 156.4495
298.2173, 156.0327
298.6995, 155.4848
299.1816, 154.5358
299.6637, 153.4707
300.1458, 152.9805
300.6279, 153.3336
301.1100, 153.9609
301.5922, 154.2746
302.0743, 154.2826
302.5564, 154.0248
303.0385, 153.3318
303.5206, 152.4463
304.0027, 151.7073
304.4849, 151.1800
304.9670, 150.7321
305.4491, 150.0743
305.9312, 149.3904
306.4133, 149.1210
306.8954, 150.2144
307.3776, 151.4435
307.8597, 151.3299
308.3418, 149.6722
308.8239, 147.9745
309.3060, 147.3569
309.7881, 147.4271
310.2703, 147.5819
310.7524, 147.6729
311.2345, 147.6883
311.7166, 147.6247
312.1987, 147.4812
312.6808, 147.2408
313.1630, 146.6607
313.6451, 146.0617
314.1272, 145.7884
314.6093, 146.4594
315.0914, 147.0042
315.5735, 146.8713
316.0557, 146.1362
316.5378, 145.2038
317.0199, 143.7899
317.5020, 142.5137
317.9841, 141.8302
318.4662, 142.0926
318.9484, 142.6116
319.4305, 143.4068
319.9126, 144.3148
320.3947, 144.9056
320.8768, 145.0730
321.3589, 144.8795
321.8411, 144.2510
322.3232, 142.8697
322.8053, 141.8344
323.2874, 141.5493
323.7695, 141.7014
324.2516, 141.7946
324.7338, 141.7021
325.2159, 141.5861
325.6980, 141.4787
326.1801, 141.3665
326.6622, 141.3298
327.1443, 141.7396
327.6265, 142.0714
328.1086, 141.7874
328.5907, 139.8627
329.0728, 138.4746
329.5549, 138.1645
330.0370, 138.9464
330.5192, 139.3830
331.0013, 139.2452
331.4834, 138.9617
331.9655, 138.8401
332.4476, 139.0953
332.9297, 139.1359
333.4119, 138.8335
333.8940, 138.2695
334.3761, 137.7959
334.8582, 137.4263
335.3403, 137.1377
335.8224, 136.9290
336.3046, 136.8210
336.7867, 136.7026
337.2688, 136.4895
337.7509, 136.3240
338.2330, 136.6194
338.7151, 137.6205
339.1973, 138.3048
339.6794, 138.1897
340.1615, 137.2379
340.6436, 136.3177
341.1257, 135.3784
341.6078, 134.6065
342.0900, 134.3598
342.5721, 134.6920
343.0542, 134.8966
343.5363, 134.7188
344.0184, 134.2554
344.5005, 133.8483
344.9827, 133.4783
345.4648, 133.3312
345.9469, 133.7658
346.4290, 134.6864
346.9111, 135.3063
347.3932, 135.4726
347.8754, 135.2688
348.3575, 134.6458
348.8396, 133.6541
349.3217, 132.8685
349.8038, 132.8945
350.2859, 133.4091
350.7681, 133.5992
351.2502, 133.3183
351.7323, 132.8985
352.2144, 132.7092
352.6965, 132.6937
353.1786, 132.6867
353.6608, 132.4733
354.1429, 132.2859
354.6250, 132.6297
355.1071, 133.5531
355.5892, 134.1255
356.0714, 133.0217
356.5535, 131.2355
357.0356, 130.2461
357.5177, 131.4736
357.9998, 132.9468
358.4819, 133.0872
358.9641, 132.1160
359.4462, 131.2553
359.9283, 131.1940
360.4104, 131.4893
360.8925, 131.7972
361.3746, 132.1261
361.8568, 132.3055
362.3389, 132.1619
362.8210, 131.8133
363.3031, 131.5259
363.7852, 131.5657
364.2673, 131.5374
364.7495, 131.2066
365.2316, 130.4380
365.7137, 129.7745
366.1958, 129.2978
366.6779, 128.9959
367.1600, 128.8508
367.6422, 128.9568
368.1243, 129.1202
368.6064, 129.2894
369.0885, 129.4618
369.5706, 129.7561
370.0527, 130.8039
370.5349, 131.4912
371.0170, 130.9713
371.4991, 127.7485
371.9812, 125.9186
372.4633, 126.3530
372.9454, 128.3513
373.4276, 129.4521
373.9097, 129.4369
374.3918, 128.9204
374.8739, 128.0234
375.3560, 126.4982
375.8381, 125.7278
376.3203, 125.9581
376.8024, 126.6318
377.2845, 126.8630
377.7666, 126.5494
378.2487, 126.3520
378.7308, 126.5987
379.2130, 127.1763
379.6951, 127.1879
380.1772, 126.5281
380.6593, 125.8417
381.1414, 125.7904
381.6235, 126.3080
382.1057, 126.8054
382.5878, 127.2242
383.0699, 127.4717
383.5520, 127.2873
384.0341, 126.7041
384.5162, 126.0744
384.9984, 125.5985
385.4805, 125.2363
385.9626, 124.8521
386.4447, 124.3994
386.9268, 124.1021
387.4089, 124.4026
387.8911, 125.0398
388.3732, 125.4190
388.8553, 125.0295
389.3374, 124.4152
389.8195, 124.0950
390.3016, 124.0658
390.7838, 124.0890
391.2659, 123.9374
391.7480, 123.7974
392.2301, 123.8875
392.7122, 124.5186
393.1943, 125.0460
393.6765, 125.2182
394.1586, 125.0536
394.6407, 124.6041
395.1228, 123.2890
395.6049, 122.1688
396.0870, 121.8918
396.5692, 122.8775
397.0513, 123.5859
397.5334, 123.5143
398.0155, 123.0758
398.4976, 122.7891
398.9797, 122.7568
399.4619, 122.8222
399.9440, 123.0667
400.4261, 123.4868
400.9082, 123.5605
401.3903, 123.0658
401.8724, 122.4318
402.3546, 121.8911
402.8367, 121.3243
403.3188, 121.1512
403.8009, 121.5744
404.2830, 122.3268
404.7651, 122.7384
405.2473, 122.7583
405.7294, 122.5671
406.2115, 122.0962
406.6936, 121.3276
407.1757, 121.1772
407.6578, 121.8224
408.1400, 122.6073
408.6221, 122.7195
409.1042, 122.1745
409.5863, 121.6611
410.0684, 121.3834
410.5505, 121.2356
411.0327, 120.8014
411.5148, 120.1000
411.9969, 119.7412
412.4790, 120.6465
412.9611, 122.1874
413.4432, 122.6985
413.9254, 121.7705
414.4075, 120.5635
414.8896, 120.4394
415.3717, 121.0096
415.8538, 121.3625
416.3359, 120.8558
416.8181, 120.0681
417.3002, 119.4240
417.7823, 118.9349
418.2644, 118.7277
418.7465, 119.0855
419.2286, 119.6520
419.7108, 120.0782
420.1929, 120.2179
420.6750, 120.2825
421.1571, 120.3542
421.6392, 120.4116
422.1213, 120.3982
422.6035, 120.3069
423.0856, 120.1358
423.5677, 119.8839
424.0498, 119.5544
424.5319, 119.1415
425.0140, 118.4061
425.4962, 117.7004
425.9783, 117.3878
426.4604, 117.7673
426.9425, 118.1162
427.4246, 118.4066
427.9067, 118.6103
428.3889, 118.4408
428.8710, 117.6187
429.3531, 116.9174
429.8352, 116.8622
430.3173, 117.6431
430.7994, 118.0667
431.2816, 118.0037
431.7637, 117.7286
432.2458, 117.6506
432.7279, 117.7713
433.2100, 118.0558
433.6921, 118.6432
434.1743, 119.3611
434.6564, 119.5373
435.1385, 119.1651
435.6206, 118.5497
436.1027, 117.7534
436.5848, 116.9123
437.0670, 116.4427
437.5491, 116.5110
438.0312, 116.7521
438.5133, 116.8286
438.9954, 116.7516
439.4775, 116.5487
439.9597, 115.9750
440.4418, 115.4490
440.9239, 115.4919
441.4060, 116.1349
441.8881, 116.6129
442.3702, 116.3849
442.8524, 115.8250
443.3345, 115.2838
443.8166, 114.6817
444.2987, 114.3130
444.7808, 114.4651
445.2629, 114.9438
445.7451, 115.1833
446.2272, 114.7022
446.7093, 114.2742
447.1914, 114.2970
447.6735, 115.0840
448.1556, 115.2833
448.6378, 114.2783
449.1199, 113.0982
449.6020, 112.8750
450.0841, 114.3020
450.5662, 115.2322
451.0483, 115.2437
451.5305, 114.5176
452.0126, 113.7640
452.4947, 112.8435
452.9768, 112.3049
453.4589, 112.6813
453.9410, 114.0090
454.4232, 114.7273
454.9053, 114.7458
455.3874, 114.3653
455.8695, 113.8399
456.3516, 113.2002
456.8337, 112.6823
457.3159, 112.3150
457.7980, 112.1467
458.2801, 112.4288
458.7622, 113.0845
459.2443, 113.5778
459.7264, 113.4522
460.2086, 112.9779
460.6907, 112.4590
461.1728, 111.9091
461.6549, 111.4716
462.1370, 111.4303
462.6191, 111.5369
463.1013, 111.4270
463.5834, 110.6020
464.0655, 109.8694
464.5476, 109.5733
465.0297, 109.6985
465.5118, 110.0519
465.9940, 111.0798
466.4761, 111.9537
466.9582, 112.1952
467.4403, 111.4178
467.9224, 110.6214
468.4045, 109.6531
468.8867, 108.7555
469.3688, 108.2986
469.8509, 108.5527
470.3330, 108.7787
470.8151, 108.8381
471.2972, 108.7348
471.7794, 108.4420
472.2615, 107.8541
472.7436, 107.3598
473.2257, 107.3366
473.7078, 107.7965
474.1899, 107.9458
474.6721, 107.6756
475.1542, 107.2212
475.6363, 106.8346
476.1184, 106.5352
476.6005, 106.4560
477.0826, 106.7334
477.5648, 107.2123
478.0469, 107.7561
478.5290, 108.3349
479.0111, 108.6765
479.4932, 108.3852
479.9753, 107.8371
480.4575, 107.5295
480.9396, 107.6653
481.4217, 107.6610
481.9038, 106.7791
482.3859, 105.6148
482.8680, 105.0573
483.3502, 106.0864
483.8323, 107.1024
484.3144, 107.4905
484.7965, 107.2705
485.2786, 107.0521
485.7607, 106.8300
486.2429, 106.7056
486.7250, 106.7627
487.2071, 107.2439
487.6892, 107.3612
488.1713, 106.8779
488.6534, 106.1980
489.1356, 105.9474
489.6177, 106.3152
490.0998, 106.5798
490.5819, 106.6398
491.0640, 106.4590
491.5461, 105.6756
492.0283, 104.1791
492.5104, 102.8741
492.9925, 102.4983
493.4746, 102.8938
493.9567, 103.3020
494.4388, 103.6870
494.9210, 104.0005
495.4031, 104.1764
495.8852, 104.2377
496.3673, 104.2514
496.8494, 104.2805
497.3315, 104.2296
497.8137, 103.9499
498.2958, 103.4884
498.7779, 103.0551
499.2600, 102.5649
499.7421, 102.2713
500.2242, 102.4330
500.7064, 103.2039
501.1885, 103.8750
501.6706, 104.3385
502.1527, 104.5523
502.6348, 104.4621
503.1169, 103.8044
503.5991, 103.1452
504.0812, 102.4457
504.5633, 101.7835
505.0454, 101.4848
505.5275, 101.8254
506.0096, 102.0570
506.4918, 101.7704
506.9739, 100.8785
507.4560, 100.5717
507.9381, 100.9960
508.4202, 101.6102
508.9023, 101.8442
509.3845, 101.7203
509.8666, 101.6479
510.3487, 101.7444
510.8308, 101.8498
511.3129, 101.6383
511.7950, 101.1733
512.2772, 100.7485
512.7593, 100.5697
513.2414, 100.4900
513.7235, 100.2709
514.2056, 99.92121
514.6877, 99.71894
515.1699, 99.91277
515.6520, 100.2974
516.1341, 100.6940
516.6162, 101.0915
517.0983, 101.4414
517.5804, 101.8998
518.0626, 102.2685
518.5447, 102.2233
519.0268, 100.9706
519.5089, 100.0972
519.9910, 100.1471
520.4731, 101.0403
520.9553, 101.5417
521.4374, 101.5696
521.9195, 101.3239
522.4016, 100.8199
522.8837, 99.95129
523.3658, 99.47047
523.8480, 99.50304
524.3301, 99.67270
524.8122, 99.39869
525.2943, 98.71926
525.7764, 98.21577
526.2585, 98.03977
526.7407, 98.13673
527.2228, 98.53688
527.7049, 99.18114
528.1870, 99.71070
528.6691, 99.94988
529.1512, 99.93974
529.6334, 99.67796
530.1155, 99.15573
530.5976, 98.58486
531.0797, 97.69225
531.5618, 96.99339
532.0439, 97.06491
532.5261, 99.01328
533.0082, 100.3532
533.4903, 99.96607
533.9724, 98.59445
534.4545, 97.82331
534.9366, 98.36148
535.4188, 98.86171
535.9009, 98.96974
536.3830, 98.69991
536.8651, 98.69302
537.3472, 99.10787
537.8293, 99.47740
538.3115, 99.40752
538.7936, 98.84984
539.2757, 98.64359
539.7578, 98.94863
540.2399, 99.27477
540.7220, 98.74608
541.2042, 97.55361
541.6863, 96.76305
542.1684, 96.77814
542.6505, 97.25893
543.1326, 97.95741
543.6147, 98.76228
544.0969, 99.26203
544.5790, 99.06127
545.0611, 98.54237
545.5432, 97.95858
546.0253, 97.32877
546.5074, 96.75597
546.9896, 96.23448
547.4717, 95.82217
547.9538, 95.56766
548.4359, 95.56141
548.9180, 95.60580
549.4001, 95.81426
549.8823, 96.02664
550.3644, 95.93364
550.8465, 95.27851
551.3286, 94.79911
551.8107, 94.67896
552.2928, 94.89221
552.7750, 95.32165
553.2571, 96.03938
553.7392, 96.63330
554.2213, 96.74680
554.7034, 96.46896
555.1855, 96.34118
555.6677, 96.40463
556.1498, 96.49706
556.6319, 96.41487
557.1140, 96.23752
557.5961, 96.13673
558.0782, 96.20223
558.5604, 96.28915
559.0425, 96.31477
559.5246, 96.27242
560.0067, 96.14573
560.4888, 95.86216
560.9709, 95.55320
561.4531, 95.28739
561.9352, 95.06606
562.4173, 94.81535
562.8994, 94.45922
563.3815, 94.12577
563.8636, 93.83488
564.3458, 93.43541
564.8279, 93.54599
565.3100, 94.38722
565.7921, 95.46289
566.2742, 96.17250
566.7563, 96.51383
567.2385, 96.55161
567.7206, 96.25728
568.2027, 95.71699
568.6848, 94.93260
569.1669, 93.97011
569.6490, 93.41245
570.1312, 93.97208
570.6133, 94.93513
571.0954, 95.18272
571.5775, 94.73750
572.0596, 94.28591
572.5417, 94.30345
573.0239, 94.48812
573.5060, 94.54283
573.9881, 94.29145
574.4702, 94.25363
574.9523, 95.01961
575.4344, 95.92735
575.9166, 96.12078
576.3987, 94.49129
576.8808, 93.58662
577.3629, 94.10588
577.8450, 95.49421
578.3271, 95.79881
578.8093, 94.59859
579.2914, 93.57215
579.7735, 93.54725
580.2556, 94.35666
580.7377, 94.61208
581.2198, 94.25530
581.7020, 93.94978
582.1841, 94.45994
582.6662, 95.41637
583.1483, 95.91714
583.6304, 95.79382
584.1125, 95.43874
584.5947, 95.06076
585.0768, 94.70960
585.5589, 94.45991
586.0410, 94.43520
586.5231, 94.41058
587.0052, 94.34831
587.4874, 94.22111
587.9695, 93.95570
588.4516, 93.13010
588.9337, 92.59413
589.4158, 92.67232
589.8979, 93.36900
590.3801, 93.94758
590.8622, 94.39040
591.3443, 94.74583
591.8264, 95.07592
592.3085, 95.39599
592.7906, 95.40833
593.2728, 95.04675
593.7549, 94.57202
594.2370, 94.29565
594.7191, 94.16423
595.2012, 93.96629
595.6833, 93.59764
596.1655, 93.24149
596.6476, 93.03623
597.1297, 93.00068
597.6118, 93.17277
598.0939, 93.98982
598.5760, 94.64847
599.0582, 94.51322
599.5403, 93.68822
600.0224, 93.17527
600.5045, 93.48282
600.9866, 93.91120
601.4688, 94.15706
601.9509, 94.19320
602.4330, 94.16483
602.9151, 94.07641
603.3972, 93.91704
603.8793, 93.64163
604.3615, 93.22807
604.8436, 92.88567
605.3257, 92.60508
605.8078, 92.48478
606.2899, 92.78782
606.7720, 93.42919
607.2542, 94.01404
607.7363, 94.48223
608.2184, 94.73229
608.7005, 94.48583
609.1826, 93.87711
609.6647, 93.38131
610.1469, 93.34922
610.6290, 93.41047
611.1111, 93.28352
611.5932, 92.94041
612.0753, 92.81998
612.5574, 93.22676
613.0396, 93.71433
613.5217, 94.02976
614.0038, 94.12471
614.4859, 94.17287
614.9680, 94.15639
615.4501, 94.11604
615.9323, 94.09637
616.4144, 94.09689
616.8965, 94.15135
617.3786, 94.34709
617.8607, 94.44579
618.3428, 93.82664
618.8250, 92.68093
619.3071, 91.81056
619.7892, 91.90555
620.2713, 92.23079
620.7534, 91.86458
621.2355, 91.00111
621.7177, 90.55443
622.1998, 91.36801
622.6819, 92.40099
623.1640, 93.15227
623.6461, 93.59292
624.1282, 93.63195
624.6104, 93.07700
625.0925, 92.28289
625.5746, 91.35703
626.0567, 89.92727
626.5388, 89.51476
627.0209, 90.46455
627.5031, 91.90461
627.9852, 92.71368
628.4673, 92.90255
628.9494, 92.81647
629.4315, 92.48010
629.9136, 92.00369
630.3958, 91.42896
630.8779, 90.83988
631.3600, 90.49836
631.8421, 90.76115
632.3242, 91.13544
632.8063, 91.25206
633.2885, 91.14516
633.7706, 91.03662
634.2527, 90.99332
634.7348, 90.97703
635.2169, 91.02522
635.6990, 91.19212
636.1812, 91.04646
636.6633, 90.34191
637.1454, 89.63352
637.6275, 89.32442
638.1096, 89.45324
638.5917, 89.75768
639.0739, 90.30891
639.5560, 90.79073
640.0381, 90.63936
640.5202, 90.02679
641.0023, 89.76260
641.4844, 90.21308
641.9666, 90.75452
642.4487, 90.63966
642.9308, 90.11633
643.4129, 89.72640
643.8950, 89.89510
644.3771, 90.05799
644.8593, 89.81187
645.3414, 89.27708
645.8235, 89.10307
646.3056, 89.99088
646.7877, 90.62946
647.2698, 90.47746
647.7520, 89.49332
648.2341, 88.90279
648.7162, 88.71179
649.1983, 88.89378
649.6804, 89.73103
650.1625, 91.08690
650.6447, 91.59042
651.1268, 91.11744
651.6089, 90.22813
652.0910, 89.12727
652.5731, 88.10184
653.0552, 87.72596
653.5374, 88.37698
654.0195, 89.12753
654.5016, 89.35817
654.9837, 89.34279
655.4658, 89.48548
655.9479, 90.31928
656.4301, 90.82567
656.9122, 90.64029
657.3943, 89.99255
657.8764, 89.47147
658.3585, 89.04905
658.8406, 88.81371
659.3228, 88.82816
659.8049, 89.04861
660.2870, 89.24802
660.7691, 89.42181
661.2512, 89.64799
661.7333, 90.11497
662.2155, 90.62276
662.6976, 90.70074
663.1797, 90.34532
663.6618, 90.01192
664.1439, 90.08200
664.6260, 90.27628
665.1082, 90.33332
665.5903, 90.15795
666.0724, 90.03435
666.5545, 90.16586
667.0366, 90.30416
667.5187, 90.22156
668.0009, 89.82790
668.4830, 89.38435
668.9651, 88.83569
669.4472, 88.33350
669.9293, 88.18279
670.4114, 88.38899
670.8936, 88.48227
671.3757, 88.28529
671.8578, 87.99246
672.3399, 87.90023
672.8220, 87.98092
673.3041, 88.14210
673.7863, 88.36468
674.2684, 88.62434
674.7505, 89.02433
675.2326, 89.48876
675.7147, 89.64893
676.1968, 88.99991
676.6790, 88.38578
677.1611, 88.24254
677.6432, 88.59670
678.1253, 88.70439
678.6074, 88.38253
679.0895, 88.15528
679.5717, 88.49765
680.0538, 89.41233
680.5359, 89.75732
681.0180, 89.46015
681.5001, 88.98901
681.9822, 88.78189
682.4644, 88.74362
682.9465, 88.70633
683.4286, 88.65812
683.9107, 88.52856
684.3928, 88.18352
684.8749, 87.76052
685.3571, 87.42127
685.8392, 87.16415
686.3213, 87.04178
686.8034, 87.16138
687.2855, 87.38950
687.7676, 87.50637
688.2498, 87.43975
688.7319, 87.46696
689.2140, 87.70517
689.6961, 88.02444
690.1782, 87.93999
690.6603, 87.48560
691.1425, 87.31982
691.6246, 88.07817
692.1067, 89.09268
692.5888, 89.25414
693.0709, 88.71533
693.5530, 88.12814
694.0352, 87.65633
694.5173, 87.41050
694.9994, 87.60310
695.4815, 88.25686
695.9636, 88.60420
696.4457, 88.14928
696.9279, 87.73820
697.4100, 87.82944
697.8921, 88.55452
698.3742, 88.88955
698.8563, 88.79601
699.3384, 88.42993
699.8206, 87.66531
700.3027, 86.68864
700.7848, 86.46024
701.2669, 87.15585
701.7490, 88.02427
702.2311, 88.49966
702.7133, 88.64863
703.1954, 88.49377
703.6775, 87.75002
704.1596, 87.32577
704.6417, 88.03536
705.1238, 89.10414
705.6060, 89.41999
706.0881, 88.39919
706.5702, 87.49711
707.0523, 86.77049
707.5344, 86.28767
708.0165, 86.33706
708.4987, 86.96861
708.9808, 87.29967
709.4629, 86.87005
709.9450, 86.23470
710.4271, 86.63847
710.9092, 87.79960
711.3914, 88.68760
711.8735, 88.56657
712.3556, 88.14192
712.8377, 87.80398
713.3198, 87.56921
713.8019, 87.47186
714.2841, 87.56119
714.7662, 87.75733
715.2483, 88.15683
715.7304, 88.73711
716.2125, 88.69289
716.6946, 87.72788
717.1768, 86.94885
717.6589, 87.21133
718.1410, 88.32870
718.6231, 88.78592
719.1052, 88.57418
719.5873, 88.24789
720.0695, 88.25227
720.5516, 88.40456
721.0337, 88.51906
721.5158, 88.58775
721.9979, 88.44793
722.4800, 87.82278
722.9622, 87.08302
723.4443, 86.50114
723.9264, 86.01548
724.4085, 85.91988
724.8906, 86.40763
725.3727, 87.05726
725.8549, 87.41153
726.3370, 87.44496
726.8191, 87.65175
727.3012, 88.13730
727.7833, 88.62118
728.2654, 88.70383
728.7476, 88.49707
729.2297, 88.26012
729.7118, 88.05721
730.1939, 87.86299
730.6760, 87.61390
731.1581, 87.37794
731.6403, 87.25535
732.1224, 87.48238
732.6045, 87.54842
733.0866, 87.16483
733.5687, 86.65998
734.0508, 86.83825
734.5330, 87.94685
735.0151, 88.69598
735.4972, 88.67587
735.9793, 88.18335
736.4614, 87.79501
736.9435, 87.51183
737.4257, 87.33862
737.9078, 87.37534
738.3899, 87.44691
738.8720, 87.23471
739.3541, 86.88743
739.8362, 86.93572
740.3184, 88.14143
740.8005, 89.20683
741.2826, 89.63990
741.7647, 89.48479
742.2468, 88.94938
742.7289, 87.76997
743.2111, 86.88246
743.6932, 86.84947
744.1753, 87.49269
744.6574, 87.78454
745.1395, 87.73087
745.6216, 87.61064
746.1038, 87.56477
746.5859, 87.59315
747.0680, 87.78411
747.5501, 88.12430
748.0322, 88.26144
748.5143, 87.76266
748.9965, 87.22703
749.4786, 87.06601
749.9607, 87.41575
750.4428, 87.53411
750.9249, 87.34850
751.4070, 87.05808
751.8892, 86.73795
752.3713, 86.38985
752.8534, 86.36586
753.3355, 86.71542
753.8176, 87.00071
754.2997, 86.61332
754.7819, 85.96639
755.2640, 85.77536
755.7461, 86.23770
756.2282, 86.58674
756.7103, 86.31558
757.1924, 85.81271
757.6746, 85.41705
758.1567, 85.28550
758.6388, 84.99219
759.1209, 84.28725
759.6030, 83.71898
760.0851, 83.98666
760.5673, 85.12717
761.0494, 86.05337
761.5315, 86.68439
762.0136, 86.91155
762.4957, 86.26002
762.9778, 85.18199
763.4600, 84.55062
763.9421, 84.72417
764.4242, 85.04919
764.9063, 85.38667
765.3884, 85.58408
765.8705, 85.44530
766.3527, 84.37694
766.8348, 83.84472
767.3169, 84.23689
767.7990, 84.89011
768.2811, 84.64053
768.7632, 83.42245
769.2454, 82.72946
769.7275, 82.98975
770.2096, 83.57533
770.6917, 83.54864
771.1738, 83.17075
771.6559, 83.04013
772.1381, 83.66859
772.6202, 84.17284
773.1023, 83.78757
773.5844, 83.02056
774.0665, 82.79036
774.5486, 83.81036
775.0308, 84.49894
775.5129, 84.64034
775.9950, 84.35613
776.4771, 83.73085
776.9592, 82.73200
777.4413, 82.27943
777.9235, 82.83201
778.4056, 83.75298
778.8877, 84.20304
779.3698, 84.23261
779.8519, 83.96907
780.3340, 82.98872
780.8162, 82.22954
781.2983, 82.38297
781.7804, 83.08733
782.2625, 83.32455
782.7446, 82.51552
783.2267, 82.12347
783.7089, 82.68136
784.1910, 83.71074
784.6731, 83.68028
785.1552, 82.60191
785.6373, 81.73991
786.1194, 81.65380
786.6016, 81.99015
787.0837, 82.43320
787.5658, 82.89046
788.0479, 83.09913
788.5300, 82.64426
789.0121, 82.20770
789.4943, 82.12162
789.9764, 82.30869
790.4585, 82.44627
790.9406, 82.57957
791.4227, 82.53983
791.9048, 82.18534
792.3870, 81.67678
792.8691, 81.59960
793.3512, 81.92385
793.8333, 82.19824
794.3154, 82.22038
794.7975, 82.07349
795.2797, 81.79662
795.7618, 81.42471
796.2439, 81.08210
796.7260, 80.68288
797.2081, 80.46066
797.6902, 80.72390
798.1724, 81.27486
798.6545, 81.29212
799.1366, 80.54403
799.6187, 79.86743
800.1008, 79.49876
800.5829, 79.41542
801.0651, 79.69590
801.5472, 80.26791
802.0293, 80.67284
802.5114, 80.46679
802.9935, 80.13430
803.4756, 80.13171
803.9578, 80.37849
804.4399, 80.60088
804.9220, 80.71140
805.4041, 80.78922
805.8862, 80.83111
806.3683, 80.85909
806.8505, 80.98753
807.3326, 81.24893
807.8147, 81.45904
808.2968, 81.57380
808.7789, 81.57430
809.2610, 81.31602
809.7432, 80.87700
810.2253, 80.57460
810.7074, 80.80225
811.1895, 81.01013
811.6716, 80.74567
812.1537, 80.15280
812.6359, 79.77963
813.1180, 79.90788
813.6001, 79.98567
814.0822, 79.85751
814.5643, 79.59988
815.0464, 79.51917
815.5286, 79.61983
816.0107, 79.65461
816.4928, 79.40545
816.9749, 79.15578
817.4570, 79.42851
817.9391, 80.06705
818.4213, 80.62858
818.9034, 80.97227
819.3855, 81.12864
819.8676, 81.03774
820.3497, 80.75559
820.8318, 80.45493
821.3140, 80.02876
821.7961, 79.86570
822.2782, 80.16663
822.7603, 80.68896
823.2424, 80.81148
823.7245, 80.59344
824.2067, 80.42976
824.6888, 80.62289
825.1709, 80.75861
825.6530, 80.27267
826.1351, 79.45029
826.6172, 78.93994
827.0994, 79.32403
827.5815, 79.54044
828.0636, 79.24461
828.5457, 78.71806
829.0278, 78.58433
829.5099, 78.91444
829.9921, 79.16380
830.4742, 79.17119
830.9563, 79.09234
831.4384, 79.13664
831.9205, 79.29719
832.4026, 79.56199
832.8848, 80.01969
833.3669, 80.44960
833.8490, 80.81225
834.3311, 81.05384
834.8132, 81.06352
835.2953, 80.74144
835.7775, 80.37429
836.2596, 79.93172
836.7417, 79.53408
837.2238, 79.39746
837.7059, 79.50098
838.1880, 79.70459
838.6702, 80.04319
839.1523, 80.26454
839.6344, 79.90297
840.1165, 79.33149
840.5986, 79.09708
841.0807, 79.55501
841.5629, 80.02084
842.0450, 80.52660
842.5271, 80.86241
843.0092, 80.76479
843.4913, 80.15716
843.9734, 79.47681
844.4556, 78.68472
844.9377, 78.11690
845.4198, 78.38341
845.9019, 79.13252
846.3840, 79.65539
846.8661, 79.82272
847.3483, 79.73760
847.8304, 79.07531
848.3125, 78.41928
848.7946, 78.37647
849.2767, 79.41148
849.7589, 79.89980
850.2410, 79.70339
850.7231, 79.22056
851.2052, 78.64036
851.6873, 78.03378
852.1694, 77.94694
852.6516, 78.43415
853.1337, 78.92038
853.6158, 78.98851
854.0979, 78.79162
854.5800, 78.39869
855.0621, 77.77743
855.5443, 77.35099
856.0264, 77.20592
856.5085, 77.28963
856.9906, 77.68547
857.4727, 78.39377
857.9548, 78.68990
858.4370, 78.54946
858.9191, 78.27571
859.4012, 78.00264
859.8833, 77.76942
860.3654, 77.65419
860.8475, 77.65005
861.3297, 77.67986
861.8118, 77.66885
862.2939, 77.72023
862.7760, 78.04516
863.2581, 78.55395
863.7402, 78.41978
864.2224, 77.37136
864.7045, 76.61210
865.1866, 76.73463
865.6687, 77.42667
866.1508, 78.04906
866.6329, 78.56445
867.1151, 78.78873
867.5972, 78.36253
868.0793, 77.87217
868.5614, 77.69753
869.0435, 77.73909
869.5256, 77.66920
870.0078, 77.29545
870.4899, 77.11966
870.9720, 77.28938
871.4541, 77.65239
871.9362, 77.88256
872.4183, 77.99427
872.9005, 78.11118
873.3826, 78.31425
873.8647, 78.44611
874.3468, 78.29601
874.8289, 77.99182
875.3110, 77.72781
875.7932, 77.59272
876.2753, 77.45403
876.7574, 77.22828
877.2395, 77.05662
877.7216, 77.19218
878.2037, 77.66805
878.6859, 77.77037
879.1680, 77.34129
879.6501, 76.90903
880.1322, 77.23769
880.6143, 77.85500
881.0964, 78.02440
881.5786, 77.51174
882.0607, 77.02272
882.5428, 76.83487
883.0249, 76.73511
883.5070, 76.56248
883.9891, 76.28069
884.4713, 76.16123
884.9534, 76.22925
885.4355, 76.33355
885.9176, 76.29504
886.3997, 76.22587
886.8818, 76.47643
887.3640, 77.01386
887.8461, 77.29282
888.3282, 76.61644
888.8103, 75.95592
889.2924, 75.97493
889.7745, 76.62304
890.2567, 76.90234
890.7388, 76.67371
891.2209, 76.50419
891.7030, 76.72122
892.1851, 77.09868
892.6672, 76.92992
893.1494, 76.35254
893.6315, 75.96254
894.1136, 76.42635
894.5957, 76.79460
895.0778, 76.34473
895.5599, 75.40054
896.0421, 74.81467
896.5242, 74.73673
897.0063, 74.80017
897.4884, 75.01175
897.9705, 75.24519
898.4526, 75.20625
898.9348, 74.96514
899.4169, 74.84974
899.8990, 74.95705
900.3811, 75.16193
900.8632, 75.42565
901.3453, 75.70202
901.8275, 75.94331
902.3096, 76.12801
902.7917, 76.29548
903.2738, 76.49463
903.7559, 76.60468
904.2380, 76.43797
904.7202, 76.03898
905.2023, 75.88604
905.6844, 76.01289
906.1665, 76.16624
906.6486, 76.27637
907.1307, 76.22415
907.6129, 75.76115
908.0950, 74.83297
908.5771, 74.30038
909.0592, 74.41763
909.5413, 74.75719
910.0234, 75.25791
910.5056, 75.84580
910.9877, 75.95615
911.4698, 75.61758
911.9519, 75.36369
912.4340, 75.75420
912.9161, 76.16622
913.3983, 75.77377
913.8804, 74.87863
914.3625, 74.32533
914.8446, 74.75554
915.3267, 75.02082
915.8088, 74.84992
916.2910, 74.46058
916.7731, 74.27512
917.2552, 74.29001
917.7373, 74.39383
918.2194, 74.60302
918.7015, 74.75683
919.1837, 74.59775
919.6658, 74.30672
920.1479, 74.13207
920.6300, 74.16630
921.1121, 74.24857
921.5942, 74.35413
922.0764, 74.49734
922.5585, 74.71629
923.0406, 75.01685
923.5227, 75.22080
924.0048, 75.32117
924.4869, 75.34492
924.9691, 75.31551
925.4512, 75.21996
925.9333, 74.91029
926.4154, 74.41086
926.8975, 74.30470
927.3796, 75.30246
927.8618, 76.11250
928.3439, 76.30357
928.8260, 75.95928
929.3081, 75.39973
929.7902, 74.63030
930.2723, 74.11166
930.7545, 74.11882
931.2366, 74.40047
931.7187, 74.73429
932.2008, 75.11586
932.6829, 75.53403
933.1650, 76.29700
933.6472, 76.66335
934.1293, 76.41082
934.6114, 75.85959
935.0935, 75.42359
935.5756, 75.09943
936.0577, 74.86015
936.5399, 74.70503
937.0220, 74.62943
937.5041, 74.59291
937.9862, 74.65580
938.4683, 74.93449
938.9504, 75.50865
939.4326, 75.96982
939.9147, 76.34461
940.3968, 76.45906
940.8789, 76.05150
941.3610, 75.20644
941.8431, 75.15866
942.3253, 75.87755
942.8074, 76.49738
943.2895, 76.29869
943.7716, 75.87988
944.2537, 75.81995
944.7358, 76.01659
945.2180, 76.04795
945.7001, 75.51372
946.1822, 75.27544
946.6643, 75.68105
947.1464, 76.27605
947.6285, 75.87723
948.1107, 74.66289
948.5928, 74.05879
949.0749, 74.56242
949.5570, 75.30310
950.0391, 75.74096
950.5212, 75.86914
951.0034, 75.60158
951.4855, 74.46026
951.9676, 74.09003
952.4497, 74.80860
952.9318, 75.77231
953.4139, 76.33934
953.8961, 76.57787
954.3782, 76.90012
954.8603, 77.30323
955.3424, 77.65163
955.8245, 77.87792
956.3066, 77.99568
956.7888, 78.03472
957.2709, 77.97807
957.7530, 77.70486
958.2351, 77.03815
958.7172, 76.57105
959.1993, 76.47573
959.6815, 76.65196
960.1636, 77.01281
960.6457, 77.47135
961.1278, 77.73591
961.6099, 77.66112
962.0920, 77.47427
962.5742, 77.10477
963.0563, 76.80208
963.5384, 76.88988
964.0205, 77.60481
964.5026, 78.00252
964.9847, 78.01242
965.4669, 77.92448
965.9490, 77.98280
966.4311, 78.14179
966.9132, 78.38953
967.3953, 78.69903
967.8774, 78.78704
968.3596, 78.28831
968.8417, 77.75218
969.3238, 77.41473
969.8059, 77.26095
970.2880, 77.27946
970.7701, 77.50569
971.2523, 77.59666
971.7344, 77.40011
972.2165, 77.07269
972.6986, 76.68593
973.1807, 76.36218
973.6628, 76.35514
974.1450, 77.08524
974.6271, 77.56125
975.1092, 77.44704
975.5913, 77.15134
976.0734, 77.01366
976.5555, 77.03510
977.0377, 77.23466
977.5198, 77.62597
978.0019, 77.90390
978.4840, 77.67635
978.9661, 77.31416
979.4482, 77.19936
979.9304, 77.34447
980.4125, 77.48386
980.8946, 77.71339
981.3767, 77.70420
981.8588, 77.26963
982.3409, 76.60069
982.8231, 76.18717
983.3052, 76.01804
983.7873, 76.07425
984.2694, 76.52046
984.7515, 76.85227
985.2336, 76.53970
985.7158, 75.98080
986.1979, 75.71597
986.6800, 75.98701
987.1621, 76.04808
987.6442, 75.83787
988.1263, 75.58594
988.6085, 75.42270
989.0906, 75.39488
989.5727, 75.77253
990.0548, 76.50755
990.5369, 76.97004
991.0190, 76.76151
991.5012, 76.26913
991.9833, 75.45633
992.4654, 74.52010
992.9475, 74.19361
993.4296, 74.55128
993.9117, 74.83363
994.3939, 74.77605
994.8760, 74.63668
995.3581, 74.74279
995.8402, 75.01057
996.3223, 75.34612
996.8044, 75.94639
997.2866, 76.08851
997.7687, 75.37009
998.2508, 74.55266
998.7329, 74.21250
999.2150, 74.33164
999.6971, 74.47907
1000.179, 74.64648
1000.661, 74.79210
1001.143, 74.87482
1001.626, 74.93440
1002.108, 74.97236
1002.590, 75.00877
1003.072, 75.17900
1003.554, 75.74480
1004.036, 75.74430
1004.518, 74.74417
1005.000, 73.53096
1005.483, 73.74876
1005.965, 74.82626
1006.447, 75.14574
1006.929, 74.10680
1007.411, 73.21035
1007.893, 73.25551
1008.375, 73.68184
1008.857, 74.13190
1009.339, 74.63481
1009.822, 74.67788
1010.304, 74.22217
1010.786, 73.74033
1011.268, 73.49638
1011.750, 73.42681
1012.232, 73.47609
1012.714, 73.63429
1013.196, 73.87283
1013.679, 74.36382
1014.161, 74.68320
1014.643, 74.74915
1015.125, 74.64202
1015.607, 74.43024
1016.089, 74.13586
1016.571, 73.91074
1017.053, 73.78871
1017.535, 73.61747
1018.018, 73.02048
1018.500, 72.52969
1018.982, 72.72598
1019.464, 73.65649
1019.946, 74.02548
1020.428, 73.69080
1020.910, 73.30909
1021.392, 73.10904
1021.875, 73.09082
1022.357, 73.27355
1022.839, 73.63596
1023.321, 74.14120
1023.803, 75.16215
1024.285, 75.75621
1024.767, 75.50231
1025.249, 74.88611
1025.731, 74.23286
1026.214, 73.53403
1026.696, 73.37482
1027.178, 73.79630
1027.660, 74.26905
1028.142, 74.51403
1028.624, 74.52441
1029.106, 74.15480
1029.588, 73.48007
1030.071, 73.08346
1030.553, 73.13557
1031.035, 73.10561
1031.517, 72.78889
1031.999, 72.45660
1032.481, 72.77666
1032.963, 73.45364
1033.445, 73.69537
1033.927, 73.19924
1034.410, 72.67307
1034.892, 72.19675
1035.374, 72.02448
1035.856, 72.41333
1036.338, 73.38308
1036.820, 74.01936
1037.302, 74.31094
1037.784, 74.36520
1038.266, 74.10047
1038.749, 73.74608
1039.231, 73.49015
1039.713, 73.33047
1040.195, 73.26743
1040.677, 73.27398
1041.159, 73.47151
1041.641, 74.01229
1042.123, 74.46733
1042.605, 74.20419
1043.088, 73.44460
1043.570, 72.75462
1044.052, 72.19508
1044.534, 71.88840
1045.016, 72.11812
1045.498, 72.40372
1045.980, 72.51353
1046.462, 72.47026
1046.945, 72.35146
1047.427, 72.15207
1047.909, 72.00253
1048.391, 71.93501
1048.873, 71.96236
1049.355, 72.17876
1049.837, 72.46538
1050.319, 72.64925
1050.802, 72.58407
1051.284, 70.99446
1051.766, 73.11301
1052.248, 74.30408
1052.730, 74.61751
1053.212, 71.42463
1053.694, 72.75941
1054.176, 72.27970
1054.658, 71.72560
1055.141, 73.69762
1055.623, 71.01473
1056.105, 72.94669
1056.587, 73.03649
1057.069, 73.96941
1057.551, 73.07663
1058.033, 72.74776
1058.515, 74.24515
1058.998, 74.73132
1059.480, 73.62838
1059.962, 74.61489
1060.444, 71.86822
1060.926, 72.39746
1061.408, 74.34011
1061.890, 73.32896
1062.372, 74.34885
1062.854, 74.59521
1063.337, 71.32620
1063.819, 74.17077
1064.301, 74.37141
1064.783, 71.85733
1065.265, 74.49242
1065.747, 72.35259
1066.229, 71.91711
1066.711, 72.76427
1067.193, 72.27433
1067.676, 73.89249
1068.158, 73.47976
1068.640, 72.88558
1069.122, 73.08326
1069.604, 71.03707
1070.086, 73.15371
1070.568, 72.42678
1071.050, 73.11333
1071.532, 74.12026
1072.015, 72.67403
1072.497, 73.82491
1072.979, 70.94828
1073.461, 71.44162
1073.943, 71.57207
1074.425, 73.85654
1074.907, 70.99954
1075.389, 73.67296
1075.872, 74.18069
1076.354, 73.95204
1076.836, 73.46389
1077.318, 72.69650
1077.800, 71.89505
1078.282, 71.74190
1078.764, 72.03645
1079.246, 71.99306
1079.729, 71.29743
1080.211, 70.63819
1080.693, 70.15791
1081.175, 70.08447
1081.657, 70.73847
1082.139, 72.11875
1082.621, 72.57373
1083.103, 72.09180
1083.585, 71.56515
1084.068, 71.45326
1084.550, 71.54250
1085.032, 71.60355
1085.514, 71.72581
1085.996, 72.12427
1086.478, 73.33074
1086.960, 73.57085
1087.442, 72.55276
1087.925, 71.31234
1088.407, 70.72742
1088.889, 70.63537
1089.371, 70.88538
1089.853, 71.39222
1090.335, 71.70862
1090.817, 71.37699
1091.299, 71.22999
1091.781, 71.56663
1092.264, 72.07641
1092.746, 72.10994
1093.228, 71.78786
1093.710, 71.76803
1094.192, 72.21242
1094.674, 72.46367
1095.156, 71.71692
1095.638, 70.97005
1096.120, 70.97240
1096.603, 71.60837
1097.085, 72.13488
1097.567, 72.56069
1098.049, 72.58346
1098.531, 71.93731
1099.013, 71.17030
1099.495, 70.82451
1099.977, 70.71516
1100.459, 70.59457
1100.942, 70.37869
1101.424, 70.35437
1101.906, 70.61675
1102.388, 70.76008
1102.870, 70.33398
1103.352, 69.71329
1103.834, 69.71646
1104.316, 70.13828
1104.799, 70.40084
1105.281, 69.99915
1105.763, 69.88747
1106.245, 70.35643
1106.727, 70.89893
1107.209, 70.87962
1107.691, 70.43810
1108.173, 70.14034
1108.656, 70.01434
1109.138, 69.95854
1109.620, 69.92528
1110.102, 69.93835
1110.584, 70.03838
1111.066, 70.17826
1111.548, 70.30186
1112.030, 70.40640
1112.512, 70.24632
1112.995, 69.72166
1113.477, 69.30116
1113.959, 69.44909
1114.441, 69.83424
1114.923, 70.35554
1115.405, 70.95913
1115.887, 70.72739
1116.369, 69.47517
1116.852, 68.37650
1117.334, 67.74706
1117.816, 67.66386
1118.298, 68.70287
1118.780, 70.15707
1119.262, 70.97734
1119.744, 70.72712
1120.226, 70.43918
1120.708, 70.06943
1121.191, 69.89003
1121.673, 70.28471
1122.155, 70.85087
1122.637, 70.32384
1123.119, 69.16027
1123.601, 68.62110
1124.083, 70.03197
1124.565, 70.91821
1125.047, 70.69627
1125.530, 70.12790
1126.012, 69.91712
1126.494, 69.98381
1126.976, 69.85564
1127.458, 69.54556
1127.940, 69.29418
1128.422, 69.23576
1128.904, 69.27007
1129.386, 69.36263
1129.869, 69.51358
1130.351, 69.80880
1130.833, 70.24016
1131.315, 70.27592
1131.797, 69.83003
1132.279, 69.41417
1132.761, 69.27520
1133.243, 69.45628
1133.726, 70.38002
1134.208, 71.71861
1134.690, 71.81120
1135.172, 70.44531
1135.654, 69.43169
1136.136, 69.23180
1136.618, 69.35113
1137.100, 69.38168
1137.583, 69.34341
1138.065, 69.23270
1138.547, 69.03419
1139.029, 68.93197
1139.511, 68.95532
1139.993, 68.98403
1140.475, 68.97974
1140.957, 68.94067
1141.439, 68.79179
1141.922, 68.62883
1142.404, 68.64230
1142.886, 69.02444
1143.368, 69.15902
1143.850, 68.89372
1144.332, 68.61665
1144.814, 68.52885
1145.296, 68.62317
1145.779, 69.02385
1146.261, 69.59538
1146.743, 69.95327
1147.225, 69.80830
1147.707, 69.61043
1148.189, 69.43357
1148.671, 69.23167
1149.153, 68.84299
1149.635, 68.38004
1150.118, 68.59189
1150.600, 69.36258
1151.082, 69.78613
1151.564, 68.87093
1152.046, 68.17532
1152.528, 68.48289
1153.010, 69.12800
1153.492, 69.16528
1153.974, 68.66390
1154.457, 68.45425
1154.939, 68.60621
1155.421, 68.70156
1155.903, 68.15866
1156.385, 67.77353
1156.867, 68.36511
1157.349, 69.37234
1157.831, 69.38829
1158.313, 68.39086
1158.796, 67.88712
1159.278, 68.17476
1159.760, 68.56810
1160.242, 68.54653
1160.724, 68.34104
1161.206, 68.00533
1161.688, 67.61589
1162.170, 67.71264
1162.653, 68.35080
1163.135, 68.90981
1163.617, 69.24294
1164.099, 69.35263
1164.581, 69.13090
1165.063, 68.76274
1165.545, 68.37722
1166.027, 67.97112
1166.510, 68.02779
1166.992, 68.69336
1167.474, 68.96671
1167.956, 68.24978
1168.438, 67.29121
1168.920, 66.97023
1169.402, 67.07442
1169.884, 67.35191
1170.366, 67.92020
1170.849, 68.02848
1171.331, 67.50369
1171.813, 67.14227
1172.295, 67.58852
1172.777, 68.28204
1173.259, 68.29813
1173.741, 67.87048
1174.223, 67.45203
1174.706, 66.96689
1175.188, 66.92937
1175.670, 67.56224
1176.152, 68.06623
1176.634, 67.55822
1177.116, 66.64424
1177.598, 66.52111
1178.080, 67.02470
1178.563, 67.61916
1179.045, 68.60051
1179.527, 68.86905
1180.009, 68.08000
1180.491, 67.12906
1180.973, 66.81577
1181.455, 67.00298
1181.937, 67.65247
1182.419, 68.58621
1182.901, 69.01743
1183.384, 68.05565
1183.866, 67.39797
1184.348, 67.41343
1184.830, 67.65441
1185.312, 67.49885
1185.794, 67.13547
1186.276, 67.10697
1186.758, 67.42215
1187.240, 67.70744
1187.723, 67.99083
1188.205, 67.90823
1188.687, 67.16096
1189.169, 66.30954
1189.651, 66.52254
1190.133, 67.37832
1190.615, 67.39582
1191.097, 66.37907
1191.580, 65.74633
1192.062, 66.53374
1192.544, 67.32645
1193.026, 67.68979
1193.508, 67.74391
1193.990, 67.66852
1194.472, 67.50858
1194.954, 67.46592
1195.437, 67.60648
1195.919, 67.58351
1196.401, 67.02689
1196.883, 66.51423
1197.365, 66.26160
1197.847, 66.23534
1198.329, 66.40701
1198.811, 66.72603
1199.293, 67.01432
1199.776, 67.24787
1200.258, 67.35767
1200.740, 67.27657
1201.222, 67.07772
1201.704, 66.72038
1202.186, 66.30618
1202.668, 66.32260
1203.150, 66.66747
1203.633, 66.95390
1204.115, 67.10423
1204.597, 67.05048
1205.079, 66.40849
1205.561, 65.91717
1206.043, 66.07716
1206.525, 66.74182
1207.007, 67.31870
1207.490, 67.74338
1207.972, 67.69698
1208.454, 66.71023
1208.936, 65.92809
1209.418, 66.07108
1209.900, 66.37820
1210.382, 66.32074
1210.864, 65.98552
1211.346, 66.06761
1211.828, 66.46367
1212.311, 66.65633
1212.793, 66.14039
1213.275, 65.80562
1213.757, 66.17155
1214.239, 66.65640
1214.721, 66.77863
1215.203, 66.61525
1215.685, 66.94479
1216.167, 67.61890
1216.650, 67.85622
1217.132, 66.73875
1217.614, 65.81676
1218.096, 65.63087
1218.578, 65.76855
1219.060, 66.01318
1219.542, 66.30253
1220.024, 66.07478
1220.507, 65.43662
1220.989, 65.02330
1221.471, 65.26533
1221.953, 65.64416
1222.435, 66.18080
1222.917, 66.58981
1223.399, 66.44035
1223.881, 65.88651
1224.364, 65.69949
1224.846, 65.86640
1225.328, 66.14617
1225.810, 66.70586
1226.292, 66.94203
1226.774, 66.49557
1227.256, 65.98927
1227.738, 66.38123
1228.220, 67.31852
1228.703, 67.40832
1229.185, 66.70132
1229.667, 66.08126
1230.149, 66.08541
1230.631, 66.03849
1231.113, 65.76697
1231.595, 65.41621
1232.077, 65.06361
1232.560, 64.80095
1233.042, 65.03300
1233.524, 65.70370
1234.006, 66.16083
1234.488, 65.85741
1234.970, 65.72193
1235.452, 66.04688
1235.934, 66.39357
1236.417, 65.97237
1236.899, 65.18940
1237.381, 65.03216
1237.863, 65.51453
1238.345, 65.91721
1238.827, 65.86436
1239.309, 65.96639
1239.791, 66.42876
1240.273, 66.85770
1240.755, 66.72144
1241.238, 66.18050
1241.720, 65.33264
1242.202, 64.26011
1242.684, 63.76181
1243.166, 64.22749
1243.648, 64.78200
1244.130, 65.33749
1244.612, 65.73275
1245.094, 65.60747
1245.577, 65.26981
1246.059, 65.18980
1246.541, 65.39269
1247.023, 65.59600
1247.505, 65.76501
1247.987, 65.98155
1248.469, 66.32368
1248.951, 66.49975
1249.434, 65.79034
1249.916, 64.93814
1250.398, 65.02021
1250.880, 66.03307
1251.362, 66.32639
1251.844, 65.62277
1252.326, 65.27688
1252.808, 65.67852
1253.291, 66.12186
1253.773, 65.57386
1254.255, 64.88626
1254.737, 64.99245
1255.219, 65.86807
1255.701, 66.55337
1256.183, 67.06131
1256.665, 67.23470
1257.147, 67.00212
1257.630, 66.62177
1258.112, 66.20967
1258.594, 65.85503
1259.076, 65.68635
1259.558, 65.64735
1260.040, 65.49573
1260.522, 65.23417
1261.004, 64.97373
1261.487, 64.72893
1261.969, 64.55634
1262.451, 64.40621
1262.933, 64.44723
1263.415, 64.91572
1263.897, 65.61660
1264.379, 65.88660
1264.861, 65.77395
1265.344, 65.58724
1265.826, 65.37513
1266.308, 65.24690
1266.790, 65.35355
1267.272, 65.46010
1267.754, 65.40186
1268.236, 65.30247
1268.718, 65.67211
1269.200, 66.28987
1269.682, 66.19608
1270.165, 65.10160
1270.647, 64.38810
1271.129, 64.99979
1271.611, 65.66299
1272.093, 66.02436
1272.575, 66.13817
1273.057, 66.09328
1273.539, 65.89755
1274.021, 65.45708
1274.504, 64.69966
1274.986, 64.45774
1275.468, 65.20527
1275.950, 65.73412
1276.432, 65.64848
1276.914, 65.26310
1277.396, 65.00011
1277.878, 64.79737
1278.361, 64.47353
1278.843, 63.99783
1279.325, 64.05660
1279.807, 64.87022
1280.289, 65.44985
1280.771, 65.48185
1281.253, 65.32944
1281.735, 65.48698
1282.218, 65.66054
1282.700, 65.46133
1283.182, 64.89366
1283.664, 64.49371
1284.146, 64.26079
1284.628, 64.20470
1285.110, 64.33585
1285.592, 64.60185
1286.074, 65.25921
1286.557, 65.75849
1287.039, 65.50198
1287.521, 64.73855
1288.003, 64.32780
1288.485, 64.25744
1288.967, 64.43724
1289.449, 64.88113
1289.931, 65.27833
1290.414, 65.43678
1290.896, 65.49140
1291.378, 65.51962
1291.860, 65.50021
1292.342, 65.26094
1292.824, 64.92867
1293.306, 65.03652
1293.788, 65.71472
1294.271, 66.17495
1294.753, 65.95286
1295.235, 65.63561
1295.717, 65.33870
1296.199, 65.08403
1296.681, 64.93118
1297.163, 64.84396
1297.645, 64.73069
1298.127, 64.58109
1298.609, 64.62488
1299.092, 65.01511
1299.574, 65.19277
1300.056, 64.98715
1300.538, 64.68124
1301.020, 64.60067
1301.502, 64.62717
1301.984, 64.62123
1302.466, 64.58394
1302.948, 64.62186
1303.431, 64.73311
1303.913, 64.94492
1304.395, 65.27279
##END=



