##NAMES=Tsumebite
##RRUFFID=R070446
##IDEAL CHEMISTRY=Pb^2+^_2_Cu^2+^(P^5+^O_4_)(S^6+^O_4_)(OH)
##LOCALITY=Tiger mine, Collins Vein, Tiger, Arizona, USA
##OWNER=RRUFF
##SOURCE=Joe Ruiz
##DESCRIPTION=Sea blue tabular crystals on quartz associated with yellowish phosphohedyphane, goethite, hematite, cerussite, fluorite, and corkite.
##STATUS=The identification of this mineral has been confirmed by single-crystal X-ray diffraction.
##URL=rruff.info/R070446
121.5113, 87.86180
121.9934, 89.79455
122.4755, 94.11819
122.9576, 99.36549
123.4398, 104.0574
123.9219, 107.4906
124.4040, 110.4304
124.8861, 114.5473
125.3682, 119.6660
125.8503, 126.6157
126.3325, 136.4440
126.8146, 147.5731
127.2967, 158.0835
127.7788, 166.7363
128.2609, 174.4636
128.7430, 184.6298
129.2252, 196.7507
129.7073, 212.5090
130.1894, 232.4798
130.6715, 255.9768
131.1536, 282.7622
131.6357, 313.2372
132.1179, 346.3573
132.6000, 373.8642
133.0821, 391.5116
133.5642, 407.4737
134.0463, 426.3343
134.5284, 444.3046
135.0106, 454.8152
135.4927, 453.2213
135.9748, 439.9133
136.4569, 421.4601
136.9390, 388.8681
137.4211, 360.8119
137.9033, 343.6636
138.3854, 335.7018
138.8675, 332.0384
139.3496, 329.4922
139.8317, 328.0768
140.3138, 326.8067
140.7960, 323.3798
141.2781, 322.1509
141.7602, 325.2550
142.2423, 332.3546
142.7244, 341.9743
143.2065, 353.4180
143.6887, 366.6923
144.1708, 379.1811
144.6529, 387.0931
145.1350, 397.3831
145.6171, 415.2546
146.0992, 440.0732
146.5814, 466.4131
147.0635, 490.0535
147.5456, 510.9291
148.0277, 533.2263
148.5098, 559.8821
148.9919, 585.7661
149.4741, 608.1783
149.9562, 626.9344
150.4383, 641.1141
150.9204, 649.7023
151.4025, 652.3917
151.8846, 651.6205
152.3668, 645.6999
152.8489, 637.4446
153.3310, 630.5551
153.8131, 625.4548
154.2952, 616.5642
154.7773, 595.7635
155.2595, 566.3953
155.7416, 543.2281
156.2237, 531.9412
156.7058, 526.3046
157.1879, 518.9911
157.6700, 509.2337
158.1522, 500.8237
158.6343, 497.9128
159.1164, 498.7654
159.5985, 499.5106
160.0806, 497.7390
160.5627, 495.8580
161.0449, 497.7575
161.5270, 504.2038
162.0091, 511.8513
162.4912, 519.7539
162.9733, 527.1445
163.4554, 532.3007
163.9376, 533.2787
164.4197, 531.9828
164.9018, 531.5493
165.3839, 531.8238
165.8660, 533.4510
166.3481, 538.0395
166.8303, 544.1015
167.3124, 549.1932
167.7945, 553.1244
168.2766, 555.2264
168.7587, 553.1009
169.2408, 544.2593
169.7230, 536.8685
170.2051, 536.2960
170.6872, 539.6995
171.1693, 542.9229
171.6514, 544.5527
172.1335, 544.5888
172.6157, 542.5743
173.0978, 537.0944
173.5799, 532.4254
174.0620, 531.3878
174.5441, 532.0757
175.0262, 531.6404
175.5084, 528.0688
175.9905, 522.8577
176.4726, 520.0899
176.9547, 520.3355
177.4368, 522.2238
177.9189, 527.2378
178.4010, 532.8439
178.8832, 535.3621
179.3653, 532.4316
179.8474, 525.8006
180.3295, 520.5217
180.8116, 516.9087
181.2937, 514.2500
181.7759, 511.5810
182.2580, 509.7224
182.7401, 510.1504
183.2222, 514.1572
183.7043, 519.9716
184.1864, 522.3160
184.6686, 519.2003
185.1507, 515.8825
185.6328, 512.6699
186.1149, 510.4468
186.5970, 510.5541
187.0791, 513.9166
187.5613, 519.1182
188.0434, 522.5621
188.5255, 523.9967
189.0076, 523.7816
189.4897, 520.1414
189.9718, 515.9498
190.4540, 514.4769
190.9361, 517.3416
191.4182, 522.6985
191.9003, 526.0258
192.3824, 526.0806
192.8645, 526.2272
193.3467, 526.2371
193.8288, 526.9567
194.3109, 529.7760
194.7930, 535.2949
195.2751, 541.6857
195.7572, 544.8336
196.2394, 543.0109
196.7215, 541.0229
197.2036, 537.3613
197.6857, 534.9381
198.1678, 537.6718
198.6499, 546.6802
199.1321, 557.4526
199.6142, 560.8109
200.0963, 550.7078
200.5784, 545.2766
201.0605, 547.3191
201.5426, 552.9214
202.0248, 560.3985
202.5069, 568.9224
202.9890, 576.5372
203.4711, 579.3984
203.9532, 573.6930
204.4353, 571.8915
204.9175, 576.2629
205.3996, 582.8656
205.8817, 589.2692
206.3638, 594.9083
206.8459, 600.5356
207.3280, 607.8289
207.8102, 619.0184
208.2923, 625.7903
208.7744, 625.0545
209.2565, 622.8528
209.7386, 622.2121
210.2207, 623.6879
210.7029, 626.3853
211.1850, 629.3704
211.6671, 632.6666
212.1492, 636.1190
212.6313, 638.0789
213.1134, 641.5242
213.5956, 649.8150
214.0777, 661.7109
214.5598, 672.1755
215.0419, 675.3163
215.5240, 669.3059
216.0061, 668.1540
216.4883, 674.5364
216.9704, 683.2012
217.4525, 694.6851
217.9346, 707.1981
218.4167, 716.9545
218.8988, 720.3085
219.3810, 717.0466
219.8631, 715.1235
220.3452, 713.5264
220.8273, 714.4247
221.3094, 720.4638
221.7915, 729.4990
222.2737, 737.2336
222.7558, 740.2705
223.2379, 739.2811
223.7200, 741.2732
224.2021, 750.4498
224.6842, 758.1641
225.1664, 762.3970
225.6485, 764.1115
226.1306, 764.7909
226.6127, 765.2218
227.0948, 765.3882
227.5770, 765.2728
228.0591, 765.4704
228.5412, 764.4390
229.0233, 758.9160
229.5054, 753.1937
229.9875, 752.8915
230.4697, 760.6982
230.9518, 773.0996
231.4339, 781.5186
231.9160, 784.1846
232.3981, 785.4606
232.8802, 783.8571
233.3624, 782.4322
233.8445, 784.9081
234.3266, 792.3136
234.8087, 800.7960
235.2908, 803.5262
235.7729, 798.4092
236.2551, 792.2587
236.7372, 784.1606
237.2193, 776.3450
237.7014, 769.0402
238.1835, 762.8307
238.6656, 760.0407
239.1478, 765.7462
239.6299, 784.4513
240.1120, 794.7855
240.5941, 788.9631
241.0762, 780.3938
241.5583, 774.2111
242.0405, 771.1890
242.5226, 770.4390
243.0047, 772.9233
243.4868, 779.5084
243.9689, 778.5450
244.4510, 757.1570
244.9332, 740.3088
245.4153, 740.4995
245.8974, 753.3355
246.3795, 766.3816
246.8616, 770.8118
247.3437, 767.5046
247.8259, 764.1208
248.3080, 760.4997
248.7901, 757.0082
249.2722, 753.3513
249.7543, 749.9396
250.2364, 747.5747
250.7186, 746.9673
251.2007, 747.3517
251.6828, 746.4761
252.1649, 743.8804
252.6470, 740.8910
253.1291, 736.4931
253.6113, 732.5356
254.0934, 731.5499
254.5755, 734.9013
255.0576, 739.7912
255.5397, 741.4944
256.0219, 739.0602
256.5040, 737.0250
256.9861, 736.9551
257.4682, 737.6277
257.9503, 738.4176
258.4324, 739.2166
258.9146, 739.6273
259.3967, 739.1536
259.8788, 737.7637
260.3609, 736.1641
260.8430, 734.3790
261.3251, 732.4803
261.8073, 730.8300
262.2894, 729.3492
262.7715, 727.0272
263.2536, 722.3508
263.7357, 715.8744
264.2178, 710.5704
264.7000, 705.6756
265.1821, 703.9029
265.6642, 709.1694
266.1463, 719.3357
266.6284, 727.1722
267.1105, 726.2606
267.5927, 721.2603
268.0748, 723.8311
268.5569, 737.3233
269.0390, 748.2977
269.5211, 742.6779
270.0032, 728.5140
270.4854, 719.4131
270.9675, 721.6493
271.4496, 728.0995
271.9317, 731.0339
272.4138, 730.3680
272.8959, 729.0076
273.3781, 727.6432
273.8602, 726.8763
274.3423, 727.8602
274.8244, 731.7563
275.3065, 735.3950
275.7886, 737.4719
276.2708, 737.7524
276.7529, 734.4586
277.2350, 725.0689
277.7171, 714.4077
278.1992, 711.0616
278.6813, 716.1913
279.1635, 721.2066
279.6456, 720.2654
280.1277, 717.8329
280.6098, 724.1465
281.0919, 742.9499
281.5740, 761.3881
282.0562, 761.7847
282.5383, 742.2940
283.0204, 728.4660
283.5025, 725.2529
283.9846, 727.5670
284.4667, 732.7737
284.9489, 740.0506
285.4310, 745.6863
285.9131, 746.3770
286.3952, 742.0861
286.8773, 738.2277
287.3594, 730.9321
287.8416, 727.7017
288.3237, 735.6104
288.8058, 750.8976
289.2879, 763.5544
289.7700, 767.9536
290.2521, 765.7054
290.7343, 763.3105
291.2164, 757.8669
291.6985, 755.8115
292.1806, 761.5092
292.6627, 769.9249
293.1448, 773.9783
293.6270, 771.2774
294.1091, 766.1732
294.5912, 766.5994
295.0733, 777.5563
295.5554, 784.6816
296.0375, 785.3139
296.5197, 784.3085
297.0018, 783.7955
297.4839, 784.7359
297.9660, 788.6942
298.4481, 798.2350
298.9302, 815.0337
299.4124, 825.6871
299.8945, 827.6116
300.3766, 826.2045
300.8587, 819.9750
301.3408, 811.8553
301.8229, 807.4720
302.3050, 811.0209
302.7871, 820.7419
303.2693, 827.4629
303.7514, 828.1368
304.2335, 830.2626
304.7156, 837.4164
305.1977, 845.7772
305.6798, 850.7335
306.1620, 850.4849
306.6441, 848.2343
307.1262, 849.7831
307.6083, 856.7273
308.0904, 861.4823
308.5725, 859.0046
309.0547, 852.4889
309.5368, 859.7663
310.0189, 864.5670
310.5010, 867.0244
310.9831, 860.1191
311.4652, 865.3037
311.9474, 865.6435
312.4295, 865.7844
312.9116, 872.6705
313.3937, 867.1271
313.8758, 873.9062
314.3579, 875.7665
314.8401, 879.8782
315.3222, 879.1148
315.8043, 879.8571
316.2864, 885.4759
316.7685, 888.3944
317.2506, 887.0699
317.7328, 891.3247
318.2149, 882.1729
318.6970, 887.2126
319.1791, 893.7026
319.6612, 895.5674
320.1433, 894.0758
320.6255, 895.7307
321.1076, 904.3827
321.5897, 914.4659
322.0718, 916.3243
322.5539, 909.0754
323.0360, 901.9384
323.5182, 895.9171
324.0003, 892.1025
324.4824, 892.7783
324.9645, 898.3041
325.4466, 905.0529
325.9287, 909.5336
326.4109, 911.4544
326.8930, 914.4516
327.3751, 921.5179
327.8572, 926.9162
328.3393, 926.2018
328.8214, 920.9127
329.3036, 915.7594
329.7857, 913.4030
330.2678, 913.4403
330.7499, 914.1342
331.2320, 916.8145
331.7141, 918.5038
332.1963, 918.4542
332.6784, 917.4690
333.1605, 916.9703
333.6426, 917.2172
334.1247, 916.3181
334.6068, 910.3303
335.0890, 894.0663
335.5711, 887.2355
336.0532, 897.0237
336.5353, 908.6981
337.0174, 917.2455
337.4995, 921.2086
337.9817, 918.9797
338.4638, 907.0664
338.9459, 887.4694
339.4280, 879.0293
339.9101, 890.8513
340.3922, 900.7380
340.8744, 901.3772
341.3565, 896.8798
341.8386, 892.1513
342.3207, 888.8754
342.8028, 886.6722
343.2849, 884.8776
343.7671, 883.3784
344.2492, 883.2597
344.7313, 887.4677
345.2134, 890.9129
345.6955, 888.5390
346.1776, 880.2929
346.6598, 872.5350
347.1419, 870.0068
347.6240, 871.0158
348.1061, 870.8802
348.5882, 868.9746
349.0703, 866.4365
349.5525, 863.4572
350.0346, 860.4677
350.5167, 858.9447
350.9988, 860.6192
351.4809, 862.6836
351.9630, 863.1926
352.4452, 862.1761
352.9273, 859.6734
353.4094, 855.3338
353.8915, 849.9423
354.3736, 845.5567
354.8557, 842.4054
355.3379, 839.5295
355.8200, 837.8286
356.3021, 835.8002
356.7842, 830.4777
357.2663, 821.5407
357.7484, 813.6754
358.2306, 813.0270
358.7127, 822.2813
359.1948, 823.2696
359.6769, 808.4798
360.1590, 794.1777
360.6411, 786.7303
361.1233, 785.5244
361.6054, 788.6562
362.0875, 795.4822
362.5696, 804.2175
363.0517, 808.3845
363.5338, 806.5408
364.0160, 801.9740
364.4981, 792.3607
364.9802, 782.2256
365.4623, 776.4604
365.9444, 775.6501
366.4265, 774.6957
366.9087, 764.5330
367.3908, 743.7528
367.8729, 737.2641
368.3550, 758.6741
368.8371, 779.6176
369.3192, 785.3078
369.8014, 779.5392
370.2835, 771.7170
370.7656, 765.3010
371.2477, 760.1140
371.7298, 755.0447
372.2119, 749.6718
372.6941, 748.8669
373.1762, 758.4988
373.6583, 771.6376
374.1404, 777.3776
374.6225, 773.5797
375.1046, 768.9375
375.5868, 767.9241
376.0689, 769.2514
376.5510, 770.5565
377.0331, 771.4095
377.5152, 771.9567
377.9973, 773.0008
378.4795, 774.6805
378.9616, 772.0584
379.4437, 758.7245
379.9258, 746.7875
380.4079, 744.2869
380.8900, 749.3260
381.3722, 756.0224
381.8543, 761.3253
382.3364, 765.6172
382.8185, 770.1815
383.3006, 777.4255
383.7827, 781.5214
384.2649, 779.6920
384.7470, 776.4423
385.2291, 776.1600
385.7112, 779.0800
386.1933, 781.4274
386.6754, 778.5267
387.1576, 769.9323
387.6397, 764.8897
388.1218, 765.0077
388.6039, 767.1281
389.0860, 773.4518
389.5681, 780.2699
390.0503, 781.3134
390.5324, 772.9613
391.0145, 760.5723
391.4966, 752.9016
391.9787, 750.5977
392.4608, 747.0890
392.9430, 740.2728
393.4251, 731.8891
393.9072, 722.9844
394.3893, 713.6074
394.8714, 706.0490
395.3535, 704.0258
395.8357, 703.6584
396.3178, 697.1588
396.7999, 683.5004
397.2820, 670.3688
397.7641, 662.6673
398.2462, 660.2002
398.7284, 659.8995
399.2105, 664.4105
399.6926, 668.0826
400.1747, 668.9913
400.6568, 667.5645
401.1389, 664.2291
401.6211, 659.0925
402.1032, 652.9021
402.5853, 646.5717
403.0674, 639.7407
403.5495, 634.0461
404.0316, 629.4797
404.5138, 625.8252
404.9959, 623.8417
405.4780, 622.6803
405.9601, 620.5004
406.4422, 616.0886
406.9243, 609.9169
407.4065, 603.1535
407.8886, 593.3491
408.3707, 588.2058
408.8528, 592.9479
409.3349, 600.0364
409.8170, 603.8309
410.2992, 603.4247
410.7813, 601.1693
411.2634, 598.5035
411.7455, 595.5503
412.2276, 592.6427
412.7097, 589.0126
413.1919, 587.3632
413.6740, 591.8651
414.1561, 599.5619
414.6382, 604.4295
415.1203, 604.0281
415.6024, 602.1610
416.0846, 600.9652
416.5667, 600.4973
417.0488, 601.4893
417.5309, 604.6527
418.0130, 607.6049
418.4951, 606.3455
418.9773, 598.9343
419.4594, 593.9196
419.9415, 590.7899
420.4236, 590.8425
420.9057, 598.5107
421.3878, 610.6792
421.8700, 617.3049
422.3521, 611.0393
422.8342, 596.1270
423.3163, 591.2247
423.7984, 604.4966
424.2805, 615.3609
424.7627, 620.8312
425.2448, 623.8550
425.7269, 626.1392
426.2090, 628.2822
426.6911, 630.9454
427.1732, 634.9308
427.6554, 640.1581
428.1375, 645.1337
428.6196, 649.2176
429.1017, 654.2952
429.5838, 661.7614
430.0659, 670.7224
430.5481, 679.8835
431.0302, 688.7709
431.5123, 698.1777
431.9944, 709.5956
432.4765, 722.2232
432.9586, 732.6640
433.4408, 739.4401
433.9229, 745.9018
434.4050, 756.1329
434.8871, 770.4680
435.3692, 785.0963
435.8513, 801.4313
436.3335, 816.5109
436.8156, 828.9252
437.2977, 838.6234
437.7798, 844.9206
438.2619, 847.0825
438.7440, 848.1259
439.2262, 856.5253
439.7083, 882.7356
440.1904, 897.2417
440.6725, 893.6233
441.1546, 884.6233
441.6367, 877.7205
442.1189, 873.2438
442.6010, 867.9305
443.0831, 859.0956
443.5652, 847.6404
444.0473, 837.3312
444.5294, 829.0570
445.0116, 819.4178
445.4937, 806.4460
445.9758, 791.6478
446.4579, 776.2916
446.9400, 760.6065
447.4221, 744.2451
447.9043, 726.0004
448.3864, 707.1062
448.8685, 690.1188
449.3506, 675.2995
449.8327, 662.4840
450.3148, 651.7783
450.7970, 643.0658
451.2791, 634.6625
451.7612, 627.1204
452.2433, 619.2330
452.7254, 609.4494
453.2076, 599.5188
453.6897, 592.2903
454.1718, 588.4617
454.6539, 585.9702
455.1360, 582.0798
455.6181, 576.3640
456.1003, 571.6970
456.5824, 570.5784
457.0645, 567.9675
457.5466, 558.8154
458.0287, 547.9997
458.5108, 544.1413
458.9930, 551.7358
459.4751, 563.3203
459.9572, 568.0775
460.4393, 565.8861
460.9214, 563.8408
461.4035, 562.8571
461.8857, 562.9924
462.3678, 565.6363
462.8499, 569.9701
463.3320, 571.2876
463.8141, 563.2864
464.2962, 555.6829
464.7784, 559.9417
465.2605, 572.9116
465.7426, 581.2012
466.2247, 578.4373
466.7068, 570.0114
467.1889, 566.6796
467.6711, 573.5922
468.1532, 574.5362
468.6353, 563.6563
469.1174, 552.0037
469.5995, 547.2873
470.0816, 547.9955
470.5638, 548.2917
471.0459, 544.5424
471.5280, 537.7324
472.0101, 530.3396
472.4922, 521.9205
472.9743, 514.2619
473.4565, 503.7801
473.9386, 497.2603
474.4207, 503.9323
474.9028, 521.9459
475.3849, 533.6910
475.8670, 525.1246
476.3492, 505.4633
476.8313, 488.7819
477.3134, 475.4538
477.7955, 466.3990
478.2776, 462.7908
478.7597, 463.2001
479.2419, 464.6134
479.7240, 468.0117
480.2061, 469.8571
480.6882, 469.5294
481.1703, 467.3275
481.6524, 462.2664
482.1346, 455.1479
482.6167, 449.5011
483.0988, 448.3059
483.5809, 450.3709
484.0630, 448.7444
484.5451, 439.5177
485.0273, 433.0464
485.5094, 432.5755
485.9915, 433.8309
486.4736, 433.6017
486.9557, 431.4936
487.4378, 428.8673
487.9200, 426.0479
488.4021, 423.5570
488.8842, 423.6701
489.3663, 427.0442
489.8484, 429.3168
490.3305, 428.3346
490.8127, 424.7238
491.2948, 419.8019
491.7769, 412.5704
492.2590, 406.8851
492.7411, 404.2857
493.2232, 403.8224
493.7054, 406.2966
494.1875, 410.7527
494.6696, 411.5627
495.1517, 403.5415
495.6338, 388.7945
496.1159, 380.9058
496.5981, 385.5324
497.0802, 389.4429
497.5623, 391.8547
498.0444, 392.7208
498.5265, 391.1709
499.0086, 387.6340
499.4908, 384.6387
499.9729, 385.3495
500.4550, 388.2287
500.9371, 386.8795
501.4192, 380.2487
501.9013, 373.6581
502.3835, 367.9082
502.8656, 364.5539
503.3477, 366.7913
503.8298, 376.6830
504.3119, 383.5950
504.7940, 381.5595
505.2762, 375.5794
505.7583, 370.3943
506.2404, 366.7701
506.7225, 365.3223
507.2046, 366.6759
507.6867, 370.2065
508.1689, 373.2671
508.6510, 377.8568
509.1331, 378.8174
509.6152, 371.3504
510.0973, 363.8211
510.5794, 363.7357
511.0616, 370.1658
511.5437, 375.7977
512.0258, 375.0351
512.5079, 369.9296
512.9901, 365.1496
513.4722, 360.1982
513.9543, 359.1703
514.4364, 366.4074
514.9185, 375.8011
515.4006, 379.0011
515.8828, 375.5429
516.3649, 372.3914
516.8470, 371.7583
517.3291, 372.2687
517.8112, 372.5388
518.2933, 372.7269
518.7755, 374.1532
519.2576, 377.7192
519.7397, 381.9998
520.2218, 383.4881
520.7039, 380.3832
521.1860, 377.8677
521.6682, 375.2392
522.1503, 373.7703
522.6324, 374.8014
523.1145, 377.5585
523.5966, 380.0175
524.0787, 380.9566
524.5609, 381.4471
525.0430, 383.5891
525.5251, 387.3663
526.0072, 390.1579
526.4893, 391.2440
526.9714, 391.3142
527.4536, 390.1200
527.9357, 387.9597
528.4178, 388.3347
528.8999, 395.8116
529.3820, 401.9279
529.8641, 399.6483
530.3463, 392.7814
530.8284, 388.7440
531.3105, 390.0635
531.7926, 394.4845
532.2747, 399.3045
532.7568, 404.9243
533.2390, 408.5242
533.7211, 408.5986
534.2032, 408.2987
534.6853, 407.4083
535.1674, 407.1653
535.6495, 409.8004
536.1317, 416.2797
536.6138, 422.6182
537.0959, 424.5392
537.5780, 423.3129
538.0601, 423.2357
538.5422, 424.9964
539.0244, 426.4221
539.5065, 425.9544
539.9886, 423.8661
540.4707, 421.5587
540.9528, 414.5316
541.4349, 413.3611
541.9171, 428.6465
542.3992, 445.2738
542.8813, 446.6968
543.3634, 433.1630
543.8455, 417.5394
544.3276, 409.4720
544.8098, 408.1612
545.2919, 411.1583
545.7740, 421.1806
546.2561, 428.0182
546.7382, 425.9794
547.2203, 422.0414
547.7024, 421.5996
548.1845, 424.6171
548.6666, 427.7151
549.1487, 430.6786
549.6309, 432.0971
550.1130, 428.7090
550.5951, 421.9107
551.0772, 418.2221
551.5593, 420.5816
552.0414, 425.3120
552.5236, 426.3428
553.0057, 422.1098
553.4878, 419.4461
553.9699, 416.5523
554.4520, 416.8701
554.9341, 425.0735
555.4163, 436.3804
555.8984, 442.7310
556.3805, 441.0656
556.8626, 437.6184
557.3447, 441.1536
557.8268, 450.4432
558.3090, 454.9667
558.7911, 452.6767
559.2732, 449.0046
559.7553, 446.7896
560.2374, 446.0410
560.7195, 446.6374
561.2017, 450.4262
561.6838, 452.3218
562.1659, 449.3509
562.6480, 444.5445
563.1301, 440.0570
563.6122, 436.7684
564.0944, 436.3877
564.5765, 440.6032
565.0586, 447.9144
565.5407, 452.3286
566.0228, 452.7289
566.5049, 453.0568
566.9871, 454.8705
567.4692, 456.0555
567.9513, 455.6356
568.4334, 453.4603
568.9155, 449.1678
569.3976, 439.0405
569.8798, 429.9089
570.3619, 430.4326
570.8440, 437.9679
571.3261, 443.8004
571.8082, 445.2918
572.2903, 444.0314
572.7725, 441.3739
573.2546, 436.8311
573.7367, 435.5174
574.2188, 441.3994
574.7009, 445.5936
575.1830, 443.9100
575.6652, 440.4240
576.1473, 440.3284
576.6294, 444.5072
577.1115, 448.6906
577.5936, 449.3559
578.0757, 443.0717
578.5579, 448.2223
579.0400, 450.8965
579.5221, 451.2272
580.0042, 442.1954
580.4863, 445.2533
580.9684, 443.4663
581.4506, 441.4804
581.9327, 446.2400
582.4148, 438.5700
582.8969, 443.2225
583.3790, 442.9561
583.8611, 444.9411
584.3433, 442.0509
584.8254, 440.6667
585.3075, 444.1588
585.7896, 444.9509
586.2717, 428.9328
586.7538, 425.3154
587.2360, 432.1225
587.7181, 439.5172
588.2002, 443.0975
588.6823, 443.2772
589.1644, 439.7708
589.6465, 430.6976
590.1287, 422.8260
590.6108, 419.9768
591.0929, 419.8438
591.5750, 420.1227
592.0571, 420.3044
592.5392, 419.4966
593.0214, 416.7628
593.5035, 413.6383
593.9856, 415.6415
594.4677, 427.1287
594.9498, 433.3501
595.4319, 427.8432
595.9141, 421.5027
596.3962, 420.3216
596.8783, 422.6150
597.3604, 423.2556
597.8425, 419.1551
598.3246, 415.1784
598.8068, 417.2682
599.2889, 422.7801
599.7710, 424.5861
600.2531, 421.3096
600.7352, 416.2729
601.2173, 411.8147
601.6995, 408.1338
602.1816, 406.9072
602.6637, 412.1833
603.1458, 414.3396
603.6279, 410.0056
604.1100, 404.4426
604.5922, 401.8487
605.0743, 401.8796
605.5564, 401.3574
606.0385, 398.1466
606.5206, 393.8084
607.0027, 391.1469
607.4849, 389.7785
607.9670, 386.3017
608.4491, 379.3500
608.9312, 372.1018
609.4133, 367.9615
609.8954, 366.9410
610.3776, 364.6017
610.8597, 358.7503
611.3418, 354.4900
611.8239, 354.6054
612.3060, 355.8604
612.7881, 354.6110
613.2703, 350.7905
613.7524, 347.5075
614.2345, 348.1166
614.7166, 350.0919
615.1987, 345.7718
615.6808, 334.7305
616.1630, 327.3970
616.6451, 328.0680
617.1272, 331.2494
617.6093, 331.4096
618.0914, 328.4677
618.5735, 323.2502
619.0557, 312.4583
619.5378, 303.2511
620.0199, 297.8278
620.5020, 295.8322
620.9841, 298.9131
621.4662, 306.0169
621.9484, 310.1516
622.4305, 303.2662
622.9126, 289.1314
623.3947, 283.4194
623.8768, 287.6331
624.3589, 291.4352
624.8411, 291.0968
625.3232, 289.7569
625.8053, 292.5809
626.2874, 299.2661
626.7695, 300.9235
627.2516, 292.2167
627.7338, 282.6563
628.2159, 275.0373
628.6980, 270.4325
629.1801, 272.1224
629.6622, 279.7674
630.1443, 286.3063
630.6265, 283.8161
631.1086, 274.4236
631.5907, 271.3551
632.0728, 277.4977
632.5549, 278.2240
633.0370, 264.9408
633.5192, 248.3519
634.0013, 240.3560
634.4834, 240.5311
634.9655, 241.9703
635.4476, 245.4926
635.9297, 247.6895
636.4119, 246.0374
636.8940, 242.0273
637.3761, 237.5036
637.8582, 233.1593
638.3403, 229.7469
638.8224, 228.3017
639.3046, 228.4008
639.7867, 227.6272
640.2688, 226.0916
640.7509, 223.0267
641.2330, 215.5794
641.7151, 209.1095
642.1973, 211.1802
642.6794, 220.8188
643.1615, 225.4871
643.6436, 216.9074
644.1257, 208.8118
644.6078, 211.0273
645.0900, 217.6972
645.5721, 218.8222
646.0542, 212.8798
646.5363, 207.1949
647.0184, 209.3432
647.5005, 216.9910
647.9827, 218.4517
648.4648, 211.9429
648.9469, 206.2654
649.4290, 203.2873
649.9111, 202.3280
650.3932, 204.1919
650.8754, 208.1431
651.3575, 208.6730
651.8396, 201.3368
652.3217, 194.3974
652.8038, 191.8708
653.2859, 191.9585
653.7681, 192.6699
654.2502, 193.4185
654.7323, 193.8464
655.2144, 193.4022
655.6965, 192.7709
656.1786, 194.9459
656.6608, 200.7969
657.1429, 204.0161
657.6250, 202.7373
658.1071, 199.2595
658.5892, 194.0930
659.0714, 188.0607
659.5535, 185.2313
660.0356, 188.7658
660.5177, 192.0547
660.9998, 194.0684
661.4819, 193.9584
661.9641, 188.6266
662.4462, 179.7221
662.9283, 174.3459
663.4104, 177.8780
663.8925, 185.9291
664.3746, 188.9922
664.8568, 186.9204
665.3389, 184.4494
665.8210, 181.8212
666.3031, 179.9753
666.7852, 179.2458
667.2673, 179.9210
667.7495, 183.1448
668.2316, 194.1895
668.7137, 199.2277
669.1958, 190.6012
669.6779, 179.1044
670.1600, 171.3326
670.6422, 168.2793
671.1243, 170.6976
671.6064, 179.6340
672.0885, 189.1288
672.5706, 189.4903
673.0527, 182.1930
673.5349, 178.0578
674.0170, 178.4951
674.4991, 179.8521
674.9812, 180.3962
675.4633, 180.0587
675.9454, 178.5431
676.4276, 174.9300
676.9097, 172.1362
677.3918, 170.6752
677.8739, 169.5972
678.3560, 168.7231
678.8381, 167.7982
679.3203, 166.3981
679.8024, 164.3916
680.2845, 162.3673
680.7666, 160.9190
681.2487, 159.8693
681.7308, 158.1008
682.2130, 155.7563
682.6951, 156.6212
683.1772, 163.1658
683.6593, 170.9275
684.1414, 172.6516
684.6235, 166.8087
685.1057, 162.9975
685.5878, 163.2685
686.0699, 163.0824
686.5520, 160.6606
687.0341, 157.6728
687.5162, 155.8326
687.9984, 155.3453
688.4805, 155.4369
688.9626, 155.5041
689.4447, 156.0500
689.9268, 158.8016
690.4089, 162.5068
690.8911, 162.7182
691.3732, 158.3294
691.8553, 153.8154
692.3374, 153.8651
692.8195, 157.8708
693.3016, 160.5430
693.7838, 161.7360
694.2659, 161.9037
694.7480, 160.5369
695.2301, 158.6727
695.7122, 157.7057
696.1943, 156.9510
696.6765, 153.5665
697.1586, 142.6997
697.6407, 135.2997
698.1228, 140.7877
698.6049, 151.0220
699.0870, 156.0011
699.5692, 155.1478
700.0513, 152.8730
700.5334, 151.8575
701.0155, 151.1754
701.4976, 148.4616
701.9797, 143.5299
702.4619, 140.5019
702.9440, 140.2341
703.4261, 140.6223
703.9082, 140.5099
704.3903, 140.1848
704.8724, 140.3458
705.3546, 141.1025
705.8367, 141.9866
706.3188, 143.0516
706.8009, 144.1144
707.2830, 145.1283
707.7651, 146.0452
708.2473, 146.8641
708.7294, 147.5708
709.2115, 147.9285
709.6936, 147.5366
710.1757, 146.6692
710.6578, 146.2896
711.1400, 146.3272
711.6221, 144.9831
712.1042, 141.2094
712.5863, 137.6309
713.0684, 137.8677
713.5505, 142.1988
714.0327, 144.3807
714.5148, 142.7605
714.9969, 141.1869
715.4790, 140.2561
715.9611, 139.5991
716.4432, 138.6410
716.9254, 137.6038
717.4075, 137.5721
717.8896, 139.5274
718.3717, 141.8514
718.8538, 143.8038
719.3359, 145.0395
719.8181, 144.5006
720.3002, 142.3694
720.7823, 140.4252
721.2644, 139.8624
721.7465, 140.2851
722.2286, 141.0190
722.7108, 142.2929
723.1929, 142.2742
723.6750, 140.6588
724.1571, 137.9671
724.6392, 132.5582
725.1213, 127.0669
725.6035, 127.4975
726.0856, 136.5474
726.5677, 142.0930
727.0498, 140.1212
727.5319, 135.9221
728.0140, 130.4821
728.4962, 125.7692
728.9783, 125.0190
729.4604, 128.8132
729.9425, 133.6897
730.4246, 137.6998
730.9067, 140.0770
731.3889, 137.5281
731.8710, 130.7962
732.3531, 127.4335
732.8352, 129.9925
733.3173, 134.0453
733.7994, 134.9207
734.2816, 132.9729
734.7637, 133.1071
735.2458, 138.3955
735.7279, 140.5814
736.2100, 134.8373
736.6921, 129.4536
737.1743, 131.1766
737.6564, 137.3399
738.1385, 139.8967
738.6206, 135.0159
739.1027, 130.4169
739.5848, 131.2528
740.0670, 134.1451
740.5491, 135.7095
741.0312, 135.6467
741.5133, 134.2063
741.9954, 131.5002
742.4775, 128.5303
742.9597, 126.3814
743.4418, 125.1203
743.9239, 125.9226
744.4060, 129.2028
744.8881, 132.4055
745.3702, 134.6874
745.8524, 136.2867
746.3345, 137.8224
746.8166, 139.5428
747.2987, 138.5777
747.7808, 131.8920
748.2629, 126.5966
748.7451, 124.7307
749.2272, 124.6578
749.7093, 125.9814
750.1914, 127.8154
750.6735, 127.2881
751.1556, 120.9501
751.6378, 115.7840
752.1199, 121.3814
752.6020, 131.6195
753.0841, 133.9169
753.5662, 127.8340
754.0483, 121.4583
754.5305, 119.4493
755.0126, 120.4714
755.4947, 122.1883
755.9768, 124.6474
756.4589, 127.5279
756.9410, 131.3058
757.4232, 134.3886
757.9053, 136.8592
758.3874, 137.7055
758.8695, 134.0150
759.3516, 124.9897
759.8337, 120.3760
760.3159, 124.5584
760.7980, 128.9612
761.2801, 130.5926
761.7622, 130.6789
762.2443, 130.4310
762.7264, 130.0984
763.2086, 129.5896
763.6907, 128.7518
764.1728, 127.8965
764.6549, 127.5641
765.1370, 127.4593
765.6191, 126.2358
766.1013, 124.0020
766.5834, 123.8124
767.0655, 127.9000
767.5476, 133.5747
768.0297, 134.3036
768.5118, 128.7343
768.9940, 126.8090
769.4761, 130.9702
769.9582, 133.7906
770.4403, 130.7543
770.9224, 125.5045
771.4045, 123.1148
771.8867, 123.6647
772.3688, 125.5116
772.8509, 131.5290
773.3330, 135.1526
773.8151, 131.5674
774.2972, 125.8294
774.7794, 123.3397
775.2615, 124.2931
775.7436, 125.6472
776.2257, 125.7490
776.7078, 125.5436
777.1899, 126.4353
777.6721, 127.7451
778.1542, 127.7838
778.6363, 126.4625
779.1184, 124.6000
779.6005, 122.5348
780.0826, 121.0860
780.5648, 122.0884
781.0469, 125.8548
781.5290, 129.1152
782.0111, 132.3264
782.4932, 133.6648
782.9753, 130.8303
783.4575, 127.3126
783.9396, 128.9541
784.4217, 135.9915
784.9038, 137.6007
785.3859, 126.7895
785.8680, 118.9653
786.3502, 120.0016
786.8323, 124.3349
787.3144, 128.3456
787.7965, 131.1682
788.2786, 132.2089
788.7607, 131.0663
789.2429, 128.6216
789.7250, 124.1428
790.2071, 119.5890
790.6892, 118.5530
791.1713, 120.5734
791.6534, 122.5305
792.1356, 123.0910
792.6177, 123.4134
793.0998, 125.6358
793.5819, 129.2849
794.0640, 128.8866
794.5461, 123.5253
795.0283, 120.1030
795.5104, 121.3527
795.9925, 123.5521
796.4746, 123.1286
796.9567, 120.3023
797.4388, 117.4714
797.9210, 111.8665
798.4031, 110.3402
798.8852, 116.7371
799.3673, 123.7753
799.8494, 127.6553
800.3315, 129.0554
800.8137, 129.6734
801.2958, 129.8517
801.7779, 129.5033
802.2600, 128.0280
802.7421, 126.4961
803.2242, 126.1369
803.7064, 126.3748
804.1885, 126.0640
804.6706, 124.9244
805.1527, 123.2198
805.6348, 120.4931
806.1169, 118.2740
806.5991, 121.2446
807.0812, 128.4259
807.5633, 131.8808
808.0454, 130.0901
808.5275, 127.5071
809.0096, 127.1366
809.4918, 127.8559
809.9739, 126.6186
810.4560, 122.3627
810.9381, 120.1457
811.4202, 121.4890
811.9023, 122.3766
812.3845, 120.7266
812.8666, 118.1988
813.3487, 116.0654
813.8308, 114.3759
814.3129, 115.3004
814.7950, 122.1512
815.2772, 127.8553
815.7593, 129.6500
816.2414, 129.5300
816.7235, 128.3861
817.2056, 127.0674
817.6877, 127.3366
818.1699, 130.2445
818.6520, 133.3955
819.1341, 135.6428
819.6162, 136.3458
820.0983, 132.9370
820.5804, 126.9447
821.0626, 124.3170
821.5447, 127.0233
822.0268, 130.7718
822.5089, 130.5267
822.9910, 127.5452
823.4731, 127.5353
823.9553, 130.6717
824.4374, 133.2426
824.9195, 134.5410
825.4016, 134.8957
825.8837, 134.3806
826.3658, 133.2365
826.8480, 132.1509
827.3301, 130.1640
827.8122, 130.5280
828.2943, 137.2968
828.7764, 141.4005
829.2585, 136.7995
829.7407, 129.4881
830.2228, 126.8223
830.7049, 129.2237
831.1870, 131.4711
831.6691, 132.0303
832.1512, 132.5508
832.6334, 134.9654
833.1155, 136.8024
833.5976, 134.5703
834.0797, 129.3841
834.5618, 125.2453
835.0439, 123.7700
835.5261, 124.6770
836.0082, 130.3192
836.4903, 136.7697
836.9724, 136.1689
837.4545, 130.2365
837.9366, 126.7494
838.4188, 128.2532
838.9009, 130.9895
839.3830, 130.8699
839.8651, 128.9385
840.3472, 129.6767
840.8293, 133.1797
841.3115, 133.7789
841.7936, 129.7281
842.2757, 126.5243
842.7578, 128.2910
843.2399, 132.9429
843.7220, 135.2014
844.2042, 134.3732
844.6863, 133.3349
845.1684, 130.3544
845.6505, 129.7496
846.1326, 136.8040
846.6147, 144.2421
847.0969, 143.0191
847.5790, 134.0705
848.0611, 130.1639
848.5432, 138.0614
849.0253, 144.3692
849.5074, 144.8697
849.9896, 142.9710
850.4717, 139.5067
850.9538, 136.2100
851.4359, 136.9420
851.9180, 143.2456
852.4001, 147.9034
852.8823, 144.9300
853.3644, 139.0265
853.8465, 133.7420
854.3286, 129.8272
854.8107, 128.5567
855.2928, 129.9794
855.7750, 133.1244
856.2571, 137.8969
856.7392, 142.1655
857.2213, 140.8146
857.7034, 135.4845
858.1855, 134.5162
858.6677, 138.4698
859.1498, 139.6863
859.6319, 134.2265
860.1140, 127.0853
860.5961, 125.3643
861.0782, 128.9120
861.5604, 133.7977
862.0425, 141.2221
862.5246, 144.8156
863.0067, 141.0947
863.4888, 137.4351
863.9709, 140.6898
864.4531, 148.3270
864.9352, 151.0319
865.4173, 145.9129
865.8994, 141.8895
866.3815, 138.1990
866.8636, 136.4359
867.3458, 138.6211
867.8279, 142.0887
868.3100, 143.4483
868.7921, 142.7222
869.2742, 143.4594
869.7563, 148.8775
870.2385, 152.9013
870.7206, 151.2144
871.2027, 148.7955
871.6848, 151.5452
872.1669, 156.9920
872.6490, 157.8666
873.1312, 151.5242
873.6133, 146.1633
874.0954, 149.5766
874.5775, 155.5024
875.0596, 156.6088
875.5417, 154.8202
876.0239, 154.4028
876.5060, 156.1398
876.9881, 158.5499
877.4702, 160.6924
877.9523, 162.7273
878.4344, 166.2800
878.9166, 169.9225
879.3987, 166.5104
879.8808, 156.3948
880.3629, 149.2966
880.8450, 149.2544
881.3271, 152.1455
881.8093, 152.7177
882.2914, 152.0253
882.7735, 158.7718
883.2556, 175.0653
883.7377, 181.6567
884.2198, 172.6044
884.7020, 162.7931
885.1841, 161.9930
885.6662, 166.4860
886.1483, 168.0899
886.6304, 165.8503
887.1125, 165.0296
887.5947, 166.3669
888.0768, 167.9503
888.5589, 169.8500
889.0410, 171.2973
889.5231, 171.0133
890.0052, 169.5907
890.4874, 169.8070
890.9695, 173.1130
891.4516, 175.7570
891.9337, 177.4798
892.4158, 178.1615
892.8979, 175.3786
893.3801, 172.7961
893.8622, 177.1448
894.3443, 188.4308
894.8264, 195.5664
895.3085, 189.2235
895.7906, 183.5562
896.2728, 188.2185
896.7549, 195.7332
897.2370, 197.8147
897.7191, 195.8831
898.2012, 195.9763
898.6833, 200.2658
899.1655, 204.5305
899.6476, 204.8562
900.1297, 203.7127
900.6118, 203.4203
901.0939, 204.2609
901.5760, 206.8453
902.0582, 211.1119
902.5403, 216.3374
903.0224, 222.1494
903.5045, 228.0773
903.9866, 234.3648
904.4688, 240.0480
904.9509, 240.7837
905.4330, 237.2242
905.9151, 234.7374
906.3972, 235.0984
906.8793, 239.0869
907.3615, 248.1398
907.8436, 260.2748
908.3257, 269.5878
908.8078, 276.0735
909.2899, 278.0595
909.7720, 274.2986
910.2542, 275.2125
910.7363, 287.7310
911.2184, 301.2516
911.7005, 298.5472
912.1826, 279.9952
912.6647, 276.4064
913.1469, 293.2956
913.6290, 307.6110
914.1111, 314.7954
914.5932, 319.9147
915.0753, 325.9958
915.5574, 332.5550
916.0396, 338.8023
916.5217, 345.5102
917.0038, 348.9381
917.4859, 345.2828
917.9680, 343.7325
918.4501, 347.1394
918.9323, 352.7990
919.4144, 359.8011
919.8965, 367.3685
920.3786, 372.7226
920.8607, 374.6887
921.3428, 376.6508
921.8250, 376.1705
922.3071, 379.1613
922.7892, 391.0308
923.2713, 406.1380
923.7534, 417.8687
924.2355, 426.0277
924.7177, 434.3212
925.1998, 445.0452
925.6819, 454.1979
926.1640, 458.6944
926.6461, 462.3128
927.1282, 469.7409
927.6104, 477.7581
928.0925, 479.2590
928.5746, 473.3793
929.0567, 469.2427
929.5388, 470.7293
930.0209, 477.1886
930.5031, 494.6519
930.9852, 512.4269
931.4673, 515.3779
931.9494, 506.5099
932.4315, 497.1760
932.9136, 491.5695
933.3958, 489.2044
933.8779, 492.3043
934.3600, 496.2884
934.8421, 496.2712
935.3242, 492.2327
935.8063, 482.1822
936.2885, 467.6710
936.7706, 455.9904
937.2527, 451.1873
937.7348, 448.2146
938.2169, 441.0700
938.6990, 431.0730
939.1812, 420.2829
939.6633, 409.3401
940.1454, 399.9709
940.6275, 392.7187
941.1096, 389.1323
941.5917, 390.7136
942.0739, 394.3210
942.5560, 394.6057
943.0381, 391.8963
943.5202, 386.5110
944.0023, 378.9545
944.4844, 376.0465
944.9666, 379.9965
945.4487, 384.6544
945.9308, 384.1552
946.4129, 381.0553
946.8950, 383.4165
947.3771, 391.1992
947.8593, 394.7063
948.3414, 392.8044
948.8235, 392.8740
949.3056, 397.9543
949.7877, 405.1873
950.2698, 411.7665
950.7520, 417.4339
951.2341, 419.6383
951.7162, 416.8449
952.1983, 421.2259
952.6804, 435.5403
953.1625, 450.8737
953.6447, 463.1805
954.1268, 474.2658
954.6089, 486.6818
955.0910, 500.3178
955.5731, 513.4523
956.0552, 523.3359
956.5374, 541.5588
957.0195, 572.5971
957.5016, 606.3879
957.9837, 639.0242
958.4658, 669.6526
958.9479, 696.3849
959.4301, 718.9601
959.9122, 742.6094
960.3943, 766.7678
960.8764, 793.0737
961.3585, 820.9868
961.8406, 852.2281
962.3228, 889.5889
962.8049, 929.9359
963.2870, 967.3535
963.7691, 1001.237
964.2512, 1035.367
964.7333, 1065.598
965.2155, 1102.135
965.6976, 1155.473
966.1797, 1207.277
966.6618, 1243.620
967.1439, 1270.581
967.6260, 1301.706
968.1082, 1338.183
968.5903, 1375.273
969.0724, 1425.141
969.5545, 1459.208
970.0366, 1459.927
970.5187, 1451.734
971.0009, 1455.961
971.4830, 1465.757
971.9651, 1460.192
972.4472, 1432.146
972.9293, 1407.420
973.4114, 1399.585
973.8936, 1382.540
974.3757, 1339.792
974.8578, 1290.159
975.3399, 1253.000
975.8220, 1223.146
976.3041, 1180.999
976.7863, 1116.914
977.2684, 1062.670
977.7505, 1038.675
978.2326, 1009.959
978.7147, 954.5651
979.1968, 892.5035
979.6790, 842.9354
980.1611, 805.0778
980.6432, 769.3909
981.1253, 733.4971
981.6074, 701.2126
982.0895, 677.2757
982.5717, 653.0451
983.0538, 619.8436
983.5359, 586.7896
984.0180, 565.7351
984.5001, 554.5044
984.9822, 540.9783
985.4644, 520.1931
985.9465, 502.2430
986.4286, 495.9889
986.9107, 487.5823
987.3928, 462.8422
987.8749, 435.5783
988.3571, 424.8041
988.8392, 428.0395
989.3213, 426.8487
989.8034, 414.3074
990.2855, 401.0802
990.7676, 388.8172
991.2498, 380.2888
991.7319, 378.8885
992.2140, 381.1958
992.6961, 385.1194
993.1782, 388.8332
993.6603, 387.1543
994.1425, 376.4219
994.6246, 365.9086
995.1067, 358.4678
995.5888, 353.9940
996.0709, 354.2497
996.5530, 356.2799
997.0352, 357.5045
997.5173, 357.0132
997.9994, 352.9250
998.4815, 342.8524
998.9636, 334.4531
999.4457, 331.2712
999.9279, 330.9370
1000.410, 333.7580
1000.892, 337.2063
1001.374, 336.7709
1001.856, 333.7472
1002.338, 335.9069
1002.821, 348.9330
1003.303, 357.9025
1003.785, 351.4886
1004.267, 343.3400
1004.749, 341.8955
1005.231, 344.8943
1005.713, 351.6427
1006.195, 359.6443
1006.677, 361.1423
1007.160, 351.2850
1007.642, 342.3542
1008.124, 339.3888
1008.606, 339.8085
1009.088, 344.4338
1009.570, 349.8040
1010.052, 351.1980
1010.534, 349.4453
1011.017, 349.5009
1011.499, 353.3232
1011.981, 357.4117
1012.463, 360.0155
1012.945, 362.7352
1013.427, 366.9112
1013.909, 371.4500
1014.391, 375.8793
1014.873, 379.4456
1015.356, 379.9979
1015.838, 376.0512
1016.320, 372.9648
1016.802, 372.7609
1017.284, 373.9929
1017.766, 375.3250
1018.248, 378.1170
1018.730, 386.5704
1019.213, 397.4905
1019.695, 400.6783
1020.177, 391.7893
1020.659, 385.4253
1021.141, 389.3073
1021.623, 393.0526
1022.105, 389.3605
1022.587, 385.4718
1023.069, 389.1951
1023.552, 398.1702
1024.034, 405.4414
1024.516, 409.6390
1024.998, 412.6800
1025.480, 413.4670
1025.962, 415.2368
1026.444, 420.3186
1026.926, 425.7970
1027.409, 430.1761
1027.891, 432.8583
1028.373, 432.1562
1028.855, 427.1500
1029.337, 424.9609
1029.819, 427.7501
1030.301, 432.2904
1030.783, 440.1931
1031.266, 447.1097
1031.748, 448.9970
1032.230, 448.3335
1032.712, 449.6898
1033.194, 453.5437
1033.676, 457.2461
1034.158, 461.4919
1034.640, 464.1439
1035.122, 463.7779
1035.604, 462.9050
1036.087, 461.2161
1036.569, 460.7530
1037.051, 464.5230
1037.533, 472.6312
1038.015, 483.1815
1038.497, 502.9099
1038.979, 514.0084
1039.461, 509.0218
1039.944, 503.6490
1040.426, 504.7428
1040.908, 508.9072
1041.390, 512.2762
1041.872, 514.9633
1042.354, 518.3952
1042.836, 523.5498
1043.318, 527.1642
1043.800, 528.2177
1044.283, 529.3696
1044.765, 531.2362
1045.247, 534.0908
1045.729, 538.0247
1046.211, 543.2498
1046.693, 551.3867
1047.175, 565.1773
1047.657, 572.1703
1048.140, 569.8365
1048.622, 567.6769
1049.104, 567.8326
1049.586, 570.7061
1050.068, 576.5795
1050.550, 585.5306
1051.032, 599.0788
1051.514, 618.4791
1051.996, 628.9322
1052.479, 628.9135
1052.961, 629.2194
1053.443, 632.5782
1053.925, 635.5069
1054.407, 635.7493
1054.889, 633.9395
1055.371, 631.2112
1055.853, 627.5349
1056.335, 621.7906
1056.818, 613.9603
1057.300, 609.2529
1057.782, 608.5811
1058.264, 608.3176
1058.746, 606.5175
1059.228, 604.7021
1059.710, 604.4913
1060.192, 606.2123
1060.675, 611.9095
1061.157, 620.7500
1061.639, 629.2447
1062.121, 636.4165
1062.603, 637.4808
1063.085, 630.8727
1063.567, 623.8149
1064.049, 623.2330
1064.531, 626.6608
1065.014, 630.0236
1065.496, 633.7025
1065.978, 638.8018
1066.460, 645.0967
1066.942, 652.5027
1067.424, 660.4203
1067.906, 665.6323
1068.388, 666.1399
1068.870, 662.2362
1069.353, 647.5554
1069.835, 633.7409
1070.317, 640.8455
1070.799, 660.0411
1071.281, 674.3815
1071.763, 680.7401
1072.245, 681.9032
1072.727, 678.3401
1073.210, 675.5366
1073.692, 678.3472
1074.174, 682.6355
1074.656, 685.6040
1075.138, 687.5473
1075.620, 687.6429
1076.102, 687.4226
1076.584, 691.3488
1077.067, 700.7947
1077.549, 707.9847
1078.031, 706.6620
1078.513, 706.1353
1078.995, 712.4573
1079.477, 719.3700
1079.959, 720.1133
1080.441, 718.9993
1080.923, 725.3503
1081.406, 739.4882
1081.888, 747.4938
1082.370, 740.7004
1082.852, 737.1488
1083.334, 743.5162
1083.816, 748.9032
1084.298, 744.3864
1084.780, 739.4618
1085.262, 747.7677
1085.745, 765.3141
1086.227, 771.8341
1086.709, 760.4915
1087.191, 756.4942
1087.673, 763.6150
1088.155, 770.4775
1088.637, 773.9281
1089.119, 776.7570
1089.602, 780.7840
1090.084, 785.9160
1090.566, 792.3912
1091.048, 800.3603
1091.530, 804.4694
1092.012, 803.6972
1092.494, 806.0513
1092.976, 813.4697
1093.458, 819.8233
1093.941, 822.1439
1094.423, 821.0480
1094.905, 816.0102
1095.387, 809.7977
1095.869, 814.7071
1096.351, 828.8422
1096.833, 836.7889
1097.315, 837.9504
1097.797, 840.7494
1098.280, 847.6340
1098.762, 851.5319
1099.244, 845.5423
1099.726, 838.9547
1100.208, 847.6998
1100.690, 865.3148
1101.172, 882.8635
1101.654, 896.8000
1102.137, 897.5444
1102.619, 886.3456
1103.101, 874.1574
1103.583, 865.8327
1104.065, 863.5359
1104.547, 874.4535
1105.029, 886.4888
1105.511, 886.1107
1105.994, 882.2004
1106.476, 885.8593
1106.958, 895.2065
1107.440, 903.9205
1107.922, 910.5881
1108.404, 916.8051
1108.886, 922.4860
1109.368, 928.9670
1109.850, 941.2458
1110.333, 949.3945
1110.815, 942.4774
1111.297, 931.2953
1111.779, 929.8529
1112.261, 936.8547
1112.743, 940.6722
1113.225, 935.5583
1113.707, 939.3035
1114.189, 961.4112
1114.672, 977.7617
1115.154, 978.8513
1115.636, 978.8348
1116.118, 987.6702
1116.600, 1001.183
1117.082, 1012.078
1117.564, 1020.365
1118.046, 1025.413
1118.529, 1027.078
1119.011, 1024.669
1119.493, 1016.363
1119.975, 1017.111
1120.457, 1034.667
1120.939, 1053.296
1121.421, 1056.165
1121.903, 1049.550
1122.385, 1046.954
1122.868, 1049.342
1123.350, 1066.170
1123.832, 1093.821
1124.314, 1112.258
1124.796, 1117.143
1125.278, 1113.903
1125.760, 1105.067
1126.242, 1098.763
1126.724, 1106.589
1127.207, 1120.366
1127.689, 1129.395
1128.171, 1136.107
1128.653, 1146.287
1129.135, 1157.528
1129.617, 1161.386
1130.099, 1156.449
1130.581, 1152.011
1131.064, 1149.684
1131.546, 1154.442
1132.028, 1173.370
1132.510, 1195.278
1132.992, 1216.863
1133.474, 1233.967
1133.956, 1240.702
1134.438, 1238.911
1134.921, 1236.181
1135.403, 1231.126
1135.885, 1233.006
1136.367, 1248.941
1136.849, 1262.356
1137.331, 1268.217
1137.813, 1274.413
1138.295, 1286.880
1138.777, 1300.386
1139.260, 1306.144
1139.742, 1305.582
1140.224, 1313.492
1140.706, 1331.557
1141.188, 1345.828
1141.670, 1355.497
1142.152, 1359.249
1142.634, 1356.131
1143.116, 1356.133
1143.599, 1367.672
1144.081, 1383.507
1144.563, 1389.997
1145.045, 1390.899
1145.527, 1396.829
1146.009, 1407.237
1146.491, 1422.324
1146.973, 1439.916
1147.456, 1451.976
1147.938, 1455.790
1148.420, 1458.573
1148.902, 1465.478
1149.384, 1473.824
1149.866, 1480.739
1150.348, 1488.325
1150.830, 1497.882
1151.313, 1509.985
1151.795, 1527.528
1152.277, 1548.493
1152.759, 1564.492
1153.241, 1572.290
1153.723, 1579.715
1154.205, 1588.089
1154.687, 1597.103
1155.169, 1603.026
1155.651, 1613.849
1156.134, 1640.227
1156.616, 1669.474
1157.098, 1680.760
1157.580, 1676.379
1158.062, 1684.456
1158.544, 1708.709
1159.026, 1728.313
1159.508, 1741.714
1159.991, 1752.650
1160.473, 1761.818
1160.955, 1772.002
1161.437, 1785.195
1161.919, 1801.455
1162.401, 1823.496
1162.883, 1847.863
1163.365, 1860.756
1163.848, 1866.435
1164.330, 1878.011
1164.812, 1896.049
1165.294, 1915.984
1165.776, 1936.102
1166.258, 1955.054
1166.740, 1970.168
1167.222, 1988.489
1167.704, 2026.090
1168.187, 2058.819
1168.669, 2056.964
1169.151, 2043.046
1169.633, 2041.062
1170.115, 2054.051
1170.597, 2084.135
1171.079, 2135.132
1171.561, 2173.980
1172.043, 2194.124
1172.526, 2203.119
1173.008, 2190.283
1173.490, 2183.582
1173.972, 2194.210
1174.454, 2217.625
1174.936, 2252.809
1175.418, 2294.056
1175.900, 2319.504
1176.383, 2327.542
1176.865, 2343.023
1177.347, 2366.155
1177.829, 2390.589
1178.311, 2415.069
1178.793, 2436.309
1179.275, 2452.731
1179.757, 2469.110
1180.240, 2490.383
1180.722, 2514.396
1181.204, 2538.524
1181.686, 2562.210
1182.168, 2587.458
1182.650, 2609.789
1183.132, 2614.723
1183.614, 2606.863
1184.096, 2612.624
1184.578, 2643.214
1185.061, 2675.290
1185.543, 2695.265
1186.025, 2718.429
1186.507, 2757.352
1186.989, 2795.319
1187.471, 2818.299
1187.953, 2834.762
1188.435, 2856.135
1188.918, 2882.463
1189.400, 2913.293
1189.882, 2952.107
1190.364, 2983.037
1190.846, 3004.713
1191.328, 3023.960
1191.810, 3041.313
1192.292, 3062.735
1192.775, 3091.849
1193.257, 3124.252
1193.739, 3155.293
1194.221, 3184.492
1194.703, 3210.121
1195.185, 3233.538
1195.667, 3257.420
1196.149, 3282.715
1196.631, 3311.738
1197.114, 3344.258
1197.596, 3378.251
1198.078, 3413.461
1198.560, 3443.272
1199.042, 3456.877
1199.524, 3472.563
1200.006, 3500.413
1200.488, 3534.926
1200.970, 3577.582
1201.453, 3620.455
1201.935, 3649.028
1202.417, 3665.907
1202.899, 3696.699
1203.381, 3749.993
1203.863, 3787.679
1204.345, 3801.252
1204.827, 3829.286
1205.310, 3884.449
1205.792, 3930.474
1206.274, 3945.756
1206.756, 3956.455
1207.238, 3993.910
1207.720, 4049.556
1208.202, 4103.429
1208.684, 4157.195
1209.167, 4223.263
1209.649, 4291.341
1210.131, 4321.410
1210.613, 4318.675
1211.095, 4332.925
1211.577, 4384.228
1212.059, 4442.399
1212.541, 4487.300
1213.023, 4536.641
1213.505, 4608.529
1213.988, 4678.517
1214.470, 4722.090
1214.952, 4759.191
1215.434, 4817.158
1215.916, 4890.386
1216.398, 4955.046
1216.880, 5009.357
1217.362, 5065.510
1217.845, 5123.317
1218.327, 5184.013
1218.809, 5247.670
1219.291, 5315.302
1219.773, 5387.535
1220.255, 5466.593
1220.737, 5556.725
1221.219, 5647.606
1221.702, 5717.170
1222.184, 5776.057
1222.666, 5841.228
1223.148, 5915.574
1223.630, 6010.228
1224.112, 6116.376
1224.594, 6206.237
1225.076, 6274.122
1225.558, 6346.855
1226.041, 6435.365
1226.523, 6529.955
1227.005, 6621.408
1227.487, 6725.840
1227.969, 6868.936
1228.451, 7008.988
1228.933, 7110.171
1229.415, 7194.305
1229.897, 7297.936
1230.380, 7420.653
1230.862, 7553.490
1231.344, 7697.446
1231.826, 7820.833
1232.308, 7923.145
1232.790, 8042.938
1233.272, 8188.900
1233.754, 8346.898
1234.237, 8510.427
1234.719, 8658.401
1235.201, 8741.298
1235.683, 8829.968
1236.165, 9027.641
1236.647, 9252.787
1237.129, 9411.560
1237.611, 9531.865
1238.094, 9655.368
1238.576, 9792.430
1239.058, 9958.261
1239.540, 10167.15
1240.022, 10350.56
1240.504, 10484.25
1240.986, 10633.48
1241.468, 10814.74
1241.950, 10991.16
1242.432, 11147.73
1242.915, 11294.06
##END=



