##NAMES=Tunellite
##RRUFFID=R050283
##IDEAL CHEMISTRY=SrB_6_O_9_(OH)_2_&#183;3H_2_O
##LOCALITY=Boron, Kern County, California, USA
##OWNER=RRUFF
##SOURCE=Marcus Origlieri
##DESCRIPTION=Colorless flattened tabular crystals
##STATUS=The identification of this mineral has been confirmed by X-ray diffraction and chemical analysis
##URL=rruff.info/R050283
##MEASURED CHEMISTRY=(Sr_0.96_Ba_0.06_)_Σ=1_B_6_O_9_(OH)_2_·3H_2_O ; B not measured but estimated by stoichiometry
117.1114, 340.5540
117.5935, 339.8557
118.0756, 340.3782
118.5577, 342.0092
119.0398, 344.9921
119.5220, 349.9982
120.0041, 357.4525
120.4862, 367.2753
120.9683, 378.3907
121.4504, 390.8291
121.9325, 404.3844
122.4147, 419.3246
122.8968, 435.7915
123.3789, 451.8974
123.8610, 467.5860
124.3431, 482.0539
124.8252, 494.5094
125.3074, 505.2161
125.7895, 513.1532
126.2716, 516.4261
126.7537, 515.5391
127.2358, 507.9873
127.7179, 493.1021
128.2001, 472.5832
128.6822, 448.0090
129.1643, 419.9070
129.6464, 388.5591
130.1285, 359.1022
130.6107, 330.9848
131.0928, 305.3325
131.5749, 282.4493
132.0570, 262.4236
132.5391, 245.2449
133.0212, 231.1481
133.5034, 220.3979
133.9855, 211.3177
134.4676, 204.1576
134.9497, 198.0587
135.4318, 192.6729
135.9139, 187.9254
136.3960, 183.7619
136.8782, 180.2182
137.3603, 177.4030
137.8424, 174.8354
138.3245, 172.3268
138.8066, 170.1217
139.2887, 168.6252
139.7709, 168.0141
140.2530, 167.7965
140.7351, 167.2297
141.2172, 166.3379
141.6993, 165.9483
142.1814, 166.4227
142.6636, 167.6849
143.1457, 169.5009
143.6278, 171.9599
144.1099, 174.8685
144.5920, 178.0025
145.0741, 181.3488
145.5563, 184.9695
146.0384, 189.0216
146.5205, 193.5585
147.0026, 198.0019
147.4847, 202.3200
147.9668, 206.4754
148.4490, 210.4094
148.9311, 214.1029
149.4132, 217.6641
149.8953, 221.2594
150.3774, 225.0393
150.8595, 228.5577
151.3417, 231.9218
151.8238, 234.9842
152.3059, 237.6414
152.7880, 239.8355
153.2701, 241.5897
153.7522, 242.9271
154.2344, 244.0787
154.7165, 244.4107
155.1986, 243.7916
155.6807, 242.3763
156.1628, 240.2933
156.6449, 237.5879
157.1271, 234.3433
157.6092, 230.8520
158.0913, 226.7506
158.5734, 222.8300
159.0555, 219.2752
159.5376, 216.0739
160.0198, 213.2133
160.5019, 210.7442
160.9840, 208.6068
161.4661, 206.4858
161.9482, 203.9914
162.4303, 201.8923
162.9125, 200.8045
163.3946, 200.6980
163.8767, 200.9613
164.3588, 201.4662
164.8409, 202.0590
165.3230, 202.4660
165.8052, 202.5005
166.2873, 202.4583
166.7694, 202.8067
167.2515, 203.7063
167.7336, 204.4467
168.2157, 204.8391
168.6979, 204.8501
169.1800, 204.3720
169.6621, 203.3204
170.1442, 201.7753
170.6263, 199.9557
171.1084, 197.8771
171.5906, 195.4453
172.0727, 192.6981
172.5548, 189.6301
173.0369, 186.1393
173.5190, 182.0379
174.0011, 177.4736
174.4833, 173.7116
174.9654, 171.7760
175.4475, 169.6649
175.9296, 166.7147
176.4117, 163.2875
176.8938, 160.0785
177.3760, 157.6374
177.8581, 155.9885
178.3402, 154.1726
178.8223, 151.9639
179.3044, 149.8320
179.7865, 147.9441
180.2687, 146.2852
180.7508, 144.7682
181.2329, 143.3312
181.7150, 141.9737
182.1971, 140.7357
182.6792, 139.6950
183.1614, 138.6926
183.6435, 137.6135
184.1256, 136.4650
184.6077, 135.3459
185.0898, 134.2960
185.5719, 133.3420
186.0541, 132.7222
186.5362, 132.6728
187.0183, 132.8288
187.5004, 132.8544
187.9825, 132.7087
188.4646, 132.5503
188.9468, 132.5410
189.4289, 132.6466
189.9110, 132.7344
190.3931, 132.8746
190.8752, 132.9500
191.3573, 132.7448
191.8395, 132.1773
192.3216, 131.5100
192.8037, 130.9165
193.2858, 130.3813
193.7679, 129.8743
194.2500, 129.3990
194.7322, 128.9455
195.2143, 128.4276
195.6964, 127.6516
196.1785, 127.1469
196.6606, 127.3334
197.1427, 127.9682
197.6249, 128.5062
198.1070, 128.4318
198.5891, 127.8514
199.0712, 127.8781
199.5533, 129.0852
200.0354, 130.3095
200.5176, 131.0670
200.9997, 131.4807
201.4818, 131.8792
201.9639, 132.5478
202.4460, 133.4987
202.9281, 134.2380
203.4103, 135.0278
203.8924, 135.3259
204.3745, 134.7160
204.8566, 133.4186
205.3387, 132.0067
205.8208, 131.0251
206.3030, 130.5766
206.7851, 129.5325
207.2672, 127.6908
207.7493, 125.5241
208.2314, 123.1081
208.7135, 120.5126
209.1957, 117.8319
209.6778, 115.1280
210.1599, 112.3789
210.6420, 109.8630
211.1241, 107.7522
211.6062, 105.6840
212.0884, 103.3822
212.5705, 100.9053
213.0526, 98.56840
213.5347, 96.67569
214.0168, 95.29768
214.4989, 93.78011
214.9811, 91.73420
215.4632, 89.85209
215.9453, 88.75636
216.4274, 88.41801
216.9095, 88.11946
217.3916, 87.22900
217.8737, 85.71450
218.3559, 84.32643
218.8380, 82.95007
219.3201, 81.77446
219.8022, 81.06147
220.2843, 80.82982
220.7664, 80.64614
221.2486, 80.14912
221.7307, 79.40047
222.2128, 78.69717
222.6949, 78.01716
223.1770, 77.43281
223.6591, 77.06831
224.1413, 76.95119
224.6234, 76.87585
225.1055, 76.71264
225.5876, 76.48582
226.0697, 76.22581
226.5518, 75.84695
227.0340, 75.48767
227.5161, 75.38993
227.9982, 75.61990
228.4803, 75.88230
228.9624, 76.00031
229.4445, 76.04489
229.9267, 76.09129
230.4088, 76.11111
230.8909, 76.19263
231.3730, 76.57781
231.8551, 77.45365
232.3372, 78.15092
232.8194, 78.20957
233.3015, 78.01157
233.7836, 78.00069
234.2657, 78.38083
234.7478, 79.01749
235.2299, 79.63768
235.7121, 80.31140
236.1942, 80.81751
236.6763, 80.97054
237.1584, 81.00029
237.6405, 81.15611
238.1227, 81.55454
238.6048, 82.10608
239.0869, 82.55967
239.5690, 82.75091
240.0511, 83.15199
240.5332, 83.96192
241.0154, 84.93904
241.4975, 85.84041
241.9796, 86.56162
242.4617, 87.17045
242.9438, 87.83581
243.4259, 88.68200
243.9081, 89.38198
244.3902, 89.76130
244.8723, 90.05842
245.3544, 90.54895
245.8365, 91.33540
246.3186, 92.22495
246.8008, 92.78504
247.2829, 92.85181
247.7650, 92.77383
248.2471, 92.56043
248.7292, 92.22738
249.2113, 91.78673
249.6935, 91.24276
250.1756, 90.59364
250.6577, 89.83553
251.1398, 88.98184
251.6219, 87.97625
252.1040, 86.74683
252.5862, 85.41936
253.0683, 84.08176
253.5504, 82.77107
254.0325, 81.49397
254.5146, 80.25835
254.9967, 79.02673
255.4789, 77.94593
255.9610, 77.08569
256.4431, 76.33927
256.9252, 75.61082
257.4073, 74.87756
257.8894, 74.18570
258.3716, 73.60883
258.8537, 73.23483
259.3358, 72.73801
259.8179, 72.01662
260.3000, 71.23206
260.7821, 70.49223
261.2643, 69.82117
261.7464, 69.24747
262.2285, 68.82301
262.7106, 68.59422
263.1927, 68.27494
263.6748, 67.63454
264.1570, 67.04651
264.6391, 66.94466
265.1212, 67.34474
265.6033, 67.73698
266.0854, 67.60899
266.5675, 66.92650
267.0497, 66.41016
267.5318, 65.61475
268.0139, 66.29727
268.4960, 66.69634
268.9781, 66.82718
269.4602, 65.88643
269.9424, 66.32942
270.4245, 66.21787
270.9066, 66.08358
271.3887, 66.72132
271.8708, 65.93643
272.3529, 66.56194
272.8351, 66.62444
273.3172, 66.94460
273.7993, 66.70681
274.2814, 66.64136
274.7635, 67.13404
275.2456, 67.31768
275.7278, 67.01566
276.2099, 67.35221
276.6920, 66.54783
277.1741, 66.74463
277.6562, 67.37340
278.1383, 67.09943
278.6205, 67.44619
279.1026, 67.55653
279.5847, 66.59251
280.0668, 67.49693
280.5489, 67.57362
281.0310, 67.95115
281.5132, 68.01537
281.9953, 68.01315
282.4774, 68.32697
282.9595, 69.01682
283.4416, 69.66185
283.9237, 69.97086
284.4059, 70.01247
284.8880, 70.06248
285.3701, 70.14416
285.8522, 70.31880
286.3343, 70.72149
286.8164, 71.33736
287.2986, 71.80698
287.7807, 71.78130
288.2628, 71.43887
288.7449, 71.38838
289.2270, 71.81719
289.7091, 72.36499
290.1913, 72.79141
290.6734, 73.10026
291.1555, 73.28985
291.6376, 73.31409
292.1197, 73.22141
292.6018, 73.10152
293.0840, 72.91685
293.5661, 72.80809
294.0482, 72.96484
294.5303, 73.25282
295.0124, 73.41551
295.4945, 73.22488
295.9767, 72.91879
296.4588, 72.99970
296.9409, 73.61359
297.4230, 74.11285
297.9051, 74.00010
298.3872, 73.62830
298.8694, 73.39137
299.3515, 73.40472
299.8336, 73.58839
300.3157, 73.89073
300.7978, 74.34707
301.2799, 74.71608
301.7621, 74.77822
302.2442, 74.77637
302.7263, 74.93813
303.2084, 75.32040
303.6905, 75.77114
304.1726, 76.13253
304.6548, 76.39864
305.1369, 76.68607
305.6190, 76.87045
306.1011, 77.23178
306.5832, 78.02910
307.0653, 79.26829
307.5475, 80.63722
308.0296, 81.94335
308.5117, 83.18155
308.9938, 84.30287
309.4759, 85.18717
309.9580, 86.08357
310.4402, 87.10237
310.9223, 88.25164
311.4044, 89.55639
311.8865, 91.11385
312.3686, 92.85281
312.8507, 94.46390
313.3329, 95.82401
313.8150, 97.26584
314.2971, 99.03515
314.7792, 101.0044
315.2613, 102.9620
315.7434, 104.8575
316.2256, 106.6617
316.7077, 108.2685
317.1898, 109.5926
317.6719, 110.9972
318.1540, 112.7793
318.6361, 114.6761
319.1183, 116.3720
319.6004, 117.7296
320.0825, 119.0049
320.5646, 120.4764
321.0467, 122.1188
321.5288, 124.1218
322.0110, 126.7169
322.4931, 129.6217
322.9752, 132.6377
323.4573, 135.7237
323.9394, 138.9293
324.4215, 142.2523
324.9037, 145.6759
325.3858, 149.4054
325.8679, 153.5022
326.3500, 157.9213
326.8321, 162.7214
327.3142, 167.8442
327.7964, 172.9198
328.2785, 178.0017
328.7606, 182.9148
329.2427, 186.8674
329.7248, 189.7870
330.2069, 191.7024
330.6891, 193.1374
331.1712, 193.7315
331.6533, 192.5845
332.1354, 188.8784
332.6175, 183.3885
333.0996, 177.5657
333.5818, 171.3258
334.0639, 164.9268
334.5460, 158.1226
335.0281, 151.3749
335.5102, 145.2080
335.9923, 139.6378
336.4745, 134.8690
336.9566, 131.1438
337.4387, 128.4981
337.9208, 126.5165
338.4029, 125.1231
338.8850, 124.3776
339.3671, 124.4541
339.8492, 125.4136
340.3314, 126.5384
340.8135, 127.1915
341.2956, 127.4928
341.7777, 128.1466
342.2598, 129.2620
342.7419, 130.8172
343.2241, 132.8032
343.7062, 135.1773
344.1883, 137.7300
344.6704, 140.3645
345.1525, 143.1091
345.6346, 145.9787
346.1168, 148.9078
346.5989, 152.1593
347.0810, 156.0025
347.5631, 160.2777
348.0452, 164.8319
348.5273, 169.6861
349.0095, 174.7471
349.4916, 179.7850
349.9737, 184.7670
350.4558, 190.3513
350.9379, 197.0435
351.4200, 204.4136
351.9022, 211.6468
352.3843, 218.5535
352.8664, 225.6812
353.3485, 233.3106
353.8306, 241.4219
354.3127, 249.9918
354.7949, 259.2172
355.2770, 268.6296
355.7591, 277.5494
356.2412, 285.9492
356.7233, 294.8852
357.2054, 305.1535
357.6876, 316.0592
358.1697, 326.5613
358.6518, 336.5276
359.1339, 346.1053
359.6160, 355.2088
360.0981, 363.9686
360.5803, 372.7775
361.0624, 381.6730
361.5445, 390.6167
362.0266, 399.2086
362.5087, 407.5972
362.9908, 416.7795
363.4730, 427.3795
363.9551, 439.1636
364.4372, 451.4195
364.9193, 464.1198
365.4014, 477.1835
365.8835, 491.1267
366.3657, 505.2903
366.8478, 518.7087
367.3299, 531.1854
367.8120, 542.0922
368.2941, 550.5328
368.7762, 556.8004
369.2584, 559.7181
369.7405, 559.5787
370.2226, 555.7220
370.7047, 547.1044
371.1868, 533.6591
371.6689, 516.9176
372.1511, 497.9638
372.6332, 476.6061
373.1153, 453.5755
373.5974, 427.0822
374.0795, 400.6613
374.5616, 375.4292
375.0438, 351.5643
375.5259, 328.8618
376.0080, 307.3127
376.4901, 286.9979
376.9722, 268.4353
377.4543, 252.1144
377.9365, 236.9058
378.4186, 222.7791
378.9007, 209.6603
379.3828, 197.5479
379.8649, 186.4363
380.3470, 176.3831
380.8292, 167.5618
381.3113, 160.3725
381.7934, 153.2240
382.2755, 145.4812
382.7576, 138.3018
383.2397, 132.4783
383.7219, 127.8578
384.2040, 123.8898
384.6861, 120.1999
385.1682, 116.7690
385.6503, 113.4000
386.1324, 110.1993
386.6146, 106.9569
387.0967, 103.4488
387.5788, 99.96883
388.0609, 96.84596
388.5430, 94.23295
389.0251, 92.06153
389.5073, 90.22289
389.9894, 88.89957
390.4715, 87.53053
390.9536, 86.11846
391.4357, 84.63340
391.9178, 82.92818
392.4000, 81.06947
392.8821, 79.36047
393.3642, 78.11902
393.8463, 77.35549
394.3284, 76.66273
394.8105, 76.19681
395.2927, 75.60680
395.7748, 74.65372
396.2569, 73.52499
396.7390, 72.53800
397.2211, 71.87802
397.7032, 71.39265
398.1854, 70.67834
398.6675, 69.54839
399.1496, 68.75465
399.6317, 68.84328
400.1138, 69.14188
400.5959, 69.14448
401.0781, 68.76704
401.5602, 68.29000
402.0423, 67.94569
402.5244, 67.72736
403.0065, 67.55415
403.4886, 67.41442
403.9708, 67.32891
404.4529, 67.30766
404.9350, 67.34421
405.4171, 67.42626
405.8992, 67.59988
406.3813, 67.78941
406.8635, 67.83372
407.3456, 67.70769
407.8277, 67.66599
408.3098, 67.82313
408.7919, 68.15993
409.2740, 68.63196
409.7562, 69.26827
410.2383, 69.96018
410.7204, 70.69424
411.2025, 71.43931
411.6846, 72.07324
412.1667, 72.51869
412.6489, 72.98895
413.1310, 73.76822
413.6131, 74.84475
414.0952, 76.00098
414.5773, 77.29743
415.0594, 78.59361
415.5416, 79.71377
416.0237, 80.67252
416.5058, 81.68672
416.9879, 82.95783
417.4700, 84.38138
417.9521, 85.39010
418.4343, 85.67537
418.9164, 85.99156
419.3985, 86.72768
419.8806, 87.56516
420.3627, 87.97728
420.8448, 87.80050
421.3270, 87.37241
421.8091, 87.21810
422.2912, 87.57227
422.7733, 87.49445
423.2554, 86.58350
423.7375, 85.62586
424.2197, 85.22336
424.7018, 85.22690
425.1839, 85.03575
425.6660, 84.19817
426.1481, 82.81669
426.6302, 81.55381
427.1124, 80.40939
427.5945, 79.41678
428.0766, 78.63914
428.5587, 77.98534
429.0408, 77.36565
429.5229, 76.75307
430.0051, 76.15811
430.4872, 75.59657
430.9693, 75.07616
431.4514, 74.56886
431.9335, 73.99355
432.4156, 73.50578
432.8978, 73.23301
433.3799, 73.10406
433.8620, 72.92814
434.3441, 72.55959
434.8262, 72.08681
435.3083, 71.77352
435.7905, 71.66230
436.2726, 71.59646
436.7547, 71.48945
437.2368, 71.41859
437.7189, 71.48232
438.2010, 71.70667
438.6832, 71.94862
439.1653, 72.02382
439.6474, 71.98701
440.1295, 72.15537
440.6116, 72.63004
441.0938, 73.21671
441.5759, 73.82515
442.0580, 74.42219
442.5401, 74.87894
443.0222, 74.91383
443.5043, 74.95967
443.9865, 75.52040
444.4686, 76.54604
444.9507, 77.60065
445.4328, 78.50003
445.9149, 79.28453
446.3970, 80.02380
446.8792, 80.67242
447.3613, 81.40292
447.8434, 82.30847
448.3255, 83.30051
448.8076, 84.24797
449.2897, 85.13900
449.7719, 86.09077
450.2540, 87.22111
450.7361, 88.54411
451.2182, 89.87301
451.7003, 90.95895
452.1824, 92.31587
452.6646, 94.24471
453.1467, 96.55332
453.6288, 98.87652
454.1109, 101.0601
454.5930, 103.2623
455.0751, 105.8534
455.5573, 109.1728
456.0394, 112.2168
456.5215, 114.7171
457.0036, 117.2133
457.4857, 120.0820
457.9678, 123.2600
458.4500, 126.4753
458.9321, 129.5546
459.4142, 132.4798
459.8963, 135.2713
460.3784, 138.4269
460.8605, 140.4788
461.3427, 140.9295
461.8248, 140.3329
462.3069, 139.1764
462.7890, 137.5827
463.2711, 135.4694
463.7532, 132.7122
464.2354, 129.3180
464.7175, 125.5328
465.1996, 121.1295
465.6817, 116.7408
466.1638, 112.7126
466.6459, 109.0289
467.1281, 105.6836
467.6102, 102.6923
468.0923, 100.0378
468.5744, 97.82015
469.0565, 95.98972
469.5386, 94.20993
470.0208, 92.30515
470.5029, 90.43748
470.9850, 88.89539
471.4671, 87.64794
471.9492, 86.68786
472.4313, 86.10612
472.9135, 85.75169
473.3956, 85.52087
473.8777, 85.38049
474.3598, 85.23417
474.8419, 85.02447
475.3240, 84.74462
475.8062, 84.32348
476.2883, 83.58540
476.7704, 82.94121
477.2525, 82.45454
477.7346, 82.11617
478.2167, 81.94711
478.6989, 81.93898
479.1810, 82.00498
479.6631, 82.04416
480.1452, 82.06347
480.6273, 82.01615
481.1094, 81.73843
481.5916, 81.56249
482.0737, 81.67683
482.5558, 81.95434
483.0379, 82.17538
483.5200, 82.23495
484.0021, 82.18777
484.4843, 82.11243
484.9664, 81.98315
485.4485, 81.94636
485.9306, 82.14956
486.4127, 82.35253
486.8948, 82.33836
487.3770, 82.15009
487.8591, 82.05641
488.3412, 82.33225
488.8233, 82.76785
489.3054, 82.88657
489.7875, 82.64135
490.2697, 82.52068
490.7518, 82.86095
491.2339, 83.43685
491.7160, 83.75515
492.1981, 83.69034
492.6802, 83.73131
493.1624, 84.18244
493.6445, 84.82848
494.1266, 85.35555
494.6087, 85.71201
495.0908, 85.98575
495.5729, 86.23547
496.0551, 86.46284
496.5372, 86.78477
497.0193, 87.12141
497.5014, 87.62538
497.9835, 88.40176
498.4656, 89.35532
498.9478, 90.32758
499.4299, 91.27377
499.9120, 92.32601
500.3941, 93.69108
500.8762, 95.47559
501.3583, 97.18694
501.8405, 98.72195
502.3226, 100.2837
502.8047, 101.8274
503.2868, 103.4699
503.7689, 105.3918
504.2510, 107.7135
504.7331, 110.2762
505.2152, 112.8676
505.6974, 115.5424
506.1795, 117.9295
506.6616, 119.6445
507.1437, 121.3306
507.6258, 123.3962
508.1079, 125.8481
508.5901, 128.5603
509.0722, 131.7004
509.5543, 134.9547
510.0364, 137.7257
510.5185, 140.0193
511.0006, 142.6773
511.4828, 146.0864
511.9649, 150.1034
512.4470, 154.3718
512.9291, 158.7918
513.4113, 163.7093
513.8934, 169.3093
514.3755, 175.3608
514.8576, 181.4711
515.3397, 187.6983
515.8218, 194.4686
516.3040, 202.1373
516.7861, 210.6647
517.2682, 219.6399
517.7503, 229.2381
518.2324, 239.0660
518.7145, 249.1581
519.1967, 259.5078
519.6788, 270.8490
520.1609, 282.8867
520.6430, 293.7231
521.1251, 301.6074
521.6072, 306.5815
522.0894, 308.9545
522.5715, 309.0346
523.0536, 305.7757
523.5357, 298.7191
524.0178, 288.6839
524.4999, 276.1553
524.9821, 261.0858
525.4642, 245.1132
525.9463, 229.0897
526.4284, 213.3063
526.9105, 198.5652
527.3926, 185.0599
527.8748, 172.6482
528.3569, 161.1414
528.8390, 150.6629
529.3211, 141.4855
529.8032, 134.1862
530.2853, 127.6212
530.7675, 121.0659
531.2496, 114.8543
531.7317, 109.7687
532.2138, 106.0233
532.6959, 102.9910
533.1780, 99.95438
533.6602, 96.89977
534.1423, 93.89719
534.6244, 90.66557
535.1065, 87.75703
535.5886, 85.46840
536.0707, 83.61877
536.5529, 81.93145
537.0350, 80.30602
537.5171, 78.80602
537.9992, 77.59251
538.4813, 76.72664
538.9634, 75.84145
539.4456, 74.92009
539.9277, 73.98504
540.4098, 72.92651
540.8919, 71.88417
541.3740, 71.15732
541.8561, 70.94881
542.3383, 70.91832
542.8204, 70.64472
543.3025, 70.15627
543.7846, 69.70784
544.2667, 69.32499
544.7488, 69.07311
545.2310, 69.11781
545.7131, 69.41801
546.1952, 69.58130
546.6773, 69.41675
547.1594, 69.22041
547.6415, 69.06573
548.1237, 69.03680
548.6058, 69.39793
549.0879, 70.27047
549.5700, 71.30074
550.0521, 71.87727
550.5342, 71.75437
551.0164, 71.92357
551.4985, 72.63243
551.9806, 73.33225
552.4627, 73.72719
552.9448, 73.94851
553.4269, 74.27372
553.9091, 74.83625
554.3912, 75.53907
554.8733, 76.23520
555.3554, 76.93497
555.8375, 77.57007
556.3196, 78.09415
556.8018, 78.59201
557.2839, 79.04314
557.7660, 79.50989
558.2481, 80.16028
558.7302, 81.05498
559.2123, 82.15369
559.6945, 83.43206
560.1766, 84.88069
560.6587, 86.42183
561.1408, 88.00571
561.6229, 89.78127
562.1050, 92.02946
562.5872, 94.85040
563.0693, 97.37931
563.5514, 99.34087
564.0335, 101.2674
564.5156, 103.5376
564.9977, 105.9305
565.4799, 108.0494
565.9620, 109.7289
566.4441, 111.1030
566.9262, 112.4375
567.4083, 113.8809
567.8904, 114.6812
568.3726, 114.8250
568.8547, 114.2714
569.3368, 112.8361
569.8189, 110.7261
570.3010, 108.2155
570.7831, 105.3326
571.2653, 102.3363
571.7474, 99.54235
572.2295, 96.92045
572.7116, 94.06944
573.1937, 90.81157
573.6758, 87.63510
574.1580, 84.92893
574.6401, 82.65110
575.1222, 80.63574
575.6043, 79.08789
576.0864, 77.55041
576.5685, 75.67644
577.0507, 73.71437
577.5328, 72.07365
578.0149, 70.85571
578.4970, 69.92130
578.9791, 69.13859
579.4612, 68.51096
579.9434, 67.95259
580.4255, 67.48965
580.9076, 67.06893
581.3897, 66.62672
581.8718, 66.24664
582.3539, 66.06030
582.8361, 66.07833
583.3182, 66.12629
583.8003, 65.99229
584.2824, 65.71458
584.7645, 65.57530
585.2466, 65.58231
585.7288, 65.71428
586.2108, 66.13206
586.6929, 66.58784
587.1750, 66.66629
587.6572, 66.23459
588.1393, 65.88260
588.6214, 65.82664
589.1035, 66.03000
589.5856, 66.61179
590.0677, 67.50548
590.5499, 68.13418
591.0320, 68.06369
591.5141, 67.53918
591.9962, 67.47422
592.4783, 68.46313
592.9604, 69.08144
593.4426, 68.94716
593.9247, 68.74563
594.4068, 69.01640
594.8889, 69.67052
595.3710, 70.25121
595.8531, 70.43739
596.3353, 70.41375
596.8174, 70.65072
597.2995, 71.20939
597.7816, 71.66543
598.2637, 71.82980
598.7458, 71.96445
599.2280, 72.30576
599.7101, 72.82136
600.1922, 73.33862
600.6743, 73.68497
601.1564, 74.11201
601.6385, 74.90654
602.1207, 75.96117
602.6028, 76.93785
603.0849, 77.71175
603.5670, 78.47787
604.0491, 79.50916
604.5313, 80.87698
605.0134, 82.05992
605.4955, 82.88363
605.9776, 83.75195
606.4597, 84.77122
606.9418, 85.92069
607.4240, 87.19946
607.9061, 88.58862
608.3882, 89.95260
608.8703, 91.08617
609.3524, 92.01157
609.8345, 93.00317
610.3167, 93.93563
610.7988, 95.25275
611.2809, 97.47723
611.7630, 100.0865
612.2451, 102.3412
612.7272, 104.0802
613.2094, 105.9283
613.6915, 108.0582
614.1736, 110.5198
614.6557, 113.4583
615.1378, 116.8370
615.6199, 120.2726
616.1021, 123.4891
616.5842, 126.6828
617.0663, 130.3520
617.5484, 134.6083
618.0305, 139.2566
618.5126, 144.8708
618.9948, 150.3052
619.4769, 154.5797
619.9590, 158.1534
620.4411, 162.1333
620.9232, 167.1393
621.4053, 172.6499
621.8875, 177.9253
622.3696, 182.9580
622.8517, 187.8818
623.3338, 192.7543
623.8159, 197.4271
624.2980, 201.7077
624.7802, 205.6620
625.2623, 209.4712
625.7444, 212.8759
626.2265, 216.4812
626.7086, 220.5918
627.1907, 225.0773
627.6729, 229.8469
628.1550, 234.8486
628.6371, 239.8895
629.1192, 244.8517
629.6013, 249.6969
630.0834, 253.9142
630.5656, 257.1040
631.0477, 260.3398
631.5298, 264.1433
632.0119, 267.7421
632.4940, 270.6491
632.9761, 272.8132
633.4583, 274.3966
633.9404, 275.6764
634.4225, 276.2792
634.9046, 275.3480
635.3867, 272.9826
635.8688, 270.5856
636.3510, 268.6990
636.8331, 266.6774
637.3152, 263.7591
637.7973, 259.8438
638.2794, 255.4541
638.7615, 250.2912
639.2437, 244.9788
639.7258, 239.8550
640.2079, 234.6763
640.6900, 228.9742
641.1721, 222.6788
641.6542, 216.4403
642.1364, 211.0810
642.6185, 206.4803
643.1006, 201.1077
643.5827, 194.5972
644.0648, 188.1527
644.5469, 182.1248
645.0291, 176.4118
645.5112, 170.9376
645.9933, 165.7074
646.4754, 160.6523
646.9575, 155.8032
647.4396, 151.1071
647.9218, 146.4600
648.4039, 141.8913
648.8860, 137.5682
649.3681, 133.5493
649.8502, 129.6913
650.3323, 125.7191
650.8145, 121.5273
651.2966, 117.7095
651.7787, 114.3511
652.2608, 111.2589
652.7429, 108.6727
653.2250, 106.1955
653.7072, 103.2784
654.1893, 99.79488
654.6714, 96.31813
655.1535, 93.29171
655.6356, 90.70340
656.1177, 88.58513
656.5999, 86.99712
657.0820, 85.41348
657.5641, 83.58475
658.0462, 81.63206
658.5283, 79.75366
659.0104, 77.97653
659.4926, 76.14397
659.9747, 74.02298
660.4568, 72.04974
660.9389, 70.62485
661.4210, 69.53720
661.9031, 68.31836
662.3853, 66.78328
662.8674, 65.20710
663.3495, 63.97146
663.8316, 63.09195
664.3137, 62.29587
664.7958, 61.66215
665.2780, 60.96905
665.7601, 60.00680
666.2422, 58.98062
666.7243, 58.12075
667.2064, 57.45576
667.6885, 56.92771
668.1707, 56.63559
668.6528, 56.38356
669.1349, 55.91261
669.6170, 55.26115
670.0991, 54.61412
670.5812, 54.04881
671.0634, 53.62959
671.5455, 53.48585
672.0276, 53.68774
672.5097, 53.90372
672.9918, 54.12929
673.4739, 54.37450
673.9561, 54.56897
674.4382, 54.81568
674.9203, 55.27618
675.4024, 55.98778
675.8845, 56.75731
676.3666, 57.56780
676.8488, 58.28238
677.3309, 58.51271
677.8130, 58.25088
678.2951, 58.01312
678.7772, 58.05181
679.2593, 58.23208
679.7415, 58.31908
680.2236, 58.30813
680.7057, 58.19904
681.1878, 57.92775
681.6699, 57.62848
682.1520, 57.31091
682.6342, 57.02192
683.1163, 56.86589
683.5984, 56.85940
684.0805, 56.82337
684.5626, 56.41463
685.0447, 55.77032
685.5269, 55.75119
686.0090, 56.51310
686.4911, 57.06693
686.9732, 56.81423
687.4553, 56.27633
687.9374, 56.34394
688.4196, 57.07293
688.9017, 57.72493
689.3838, 58.11280
689.8659, 58.46855
690.3480, 58.94397
690.8301, 59.48040
691.3123, 59.94321
691.7944, 60.29857
692.2765, 60.67652
692.7586, 61.25256
693.2407, 62.00897
693.7228, 62.68599
694.2050, 63.30213
694.6871, 63.79374
695.1692, 63.96596
695.6513, 64.13577
696.1334, 64.74448
696.6155, 65.78883
697.0977, 66.57310
697.5798, 66.64567
698.0619, 66.62259
698.5440, 66.97633
699.0261, 67.57279
699.5082, 68.13881
699.9904, 68.58799
700.4725, 68.93016
700.9546, 69.14837
701.4367, 69.25926
701.9188, 69.52711
702.4009, 69.98339
702.8831, 70.53526
703.3652, 71.26529
703.8473, 72.00695
704.3294, 72.56174
704.8115, 72.97857
705.2936, 73.58916
705.7758, 74.59206
706.2579, 75.76560
706.7400, 77.06477
707.2221, 78.37812
707.7042, 79.43311
708.1863, 80.17529
708.6685, 80.83217
709.1506, 81.56716
709.6327, 82.41842
710.1148, 83.70045
710.5969, 85.70036
711.0790, 87.60108
711.5612, 89.34883
712.0433, 90.93265
712.5254, 92.10840
713.0075, 93.08800
713.4896, 94.50842
713.9717, 96.79607
714.4539, 99.26087
714.9360, 101.1834
715.4181, 102.8443
715.9002, 104.9445
716.3823, 107.5771
716.8644, 110.1744
717.3466, 112.2833
717.8287, 114.0979
718.3108, 116.3904
718.7929, 119.4478
719.2750, 122.4278
719.7571, 125.2307
720.2393, 128.0230
720.7214, 130.8088
721.2035, 133.6455
721.6856, 136.6436
722.1677, 139.8316
722.6498, 143.1749
723.1320, 146.7146
723.6141, 150.3735
724.0962, 153.8419
724.5783, 157.1608
725.0604, 160.8967
725.5425, 165.4179
726.0247, 170.3762
726.5068, 175.0981
726.9889, 179.4678
727.4710, 183.9623
727.9531, 189.3007
728.4352, 193.9317
728.9174, 196.8204
729.3995, 198.9408
729.8816, 201.5295
730.3637, 204.8455
730.8458, 208.1244
731.3279, 210.9162
731.8101, 213.3060
732.2922, 215.3137
732.7743, 216.9961
733.2564, 218.7303
733.7385, 220.6859
734.2206, 222.5310
734.7028, 223.8970
735.1849, 224.8013
735.6670, 224.9522
736.1491, 223.8947
736.6312, 222.6319
737.1133, 221.5258
737.5955, 220.1253
738.0776, 218.0708
738.5597, 215.3334
739.0418, 212.0794
739.5239, 208.3710
740.0060, 204.1616
740.4882, 199.3318
740.9703, 193.9374
741.4524, 188.2069
741.9345, 182.1972
742.4166, 175.8058
742.8987, 168.9286
743.3809, 161.6619
743.8630, 154.4776
744.3451, 147.3365
744.8272, 140.3678
745.3093, 133.6199
745.7914, 127.0110
746.2736, 120.3512
746.7557, 113.8472
747.2378, 107.8046
747.7199, 102.3472
748.2020, 97.32696
748.6841, 92.65813
749.1663, 88.30177
749.6484, 84.17477
750.1305, 80.29104
750.6126, 76.87758
751.0947, 74.09095
751.5768, 71.66151
752.0590, 69.06571
752.5411, 66.18523
753.0232, 63.68526
753.5053, 61.74408
753.9874, 59.95913
754.4695, 58.14218
754.9517, 56.44690
755.4338, 55.09045
755.9159, 54.08472
756.3980, 53.15407
756.8801, 52.20109
757.3622, 51.22962
757.8444, 50.24232
758.3265, 49.24159
758.8086, 48.19902
759.2907, 47.12488
759.7728, 46.14871
760.2549, 45.42481
760.7371, 44.90603
761.2192, 44.30840
761.7013, 43.57298
762.1834, 42.91326
762.6655, 42.38826
763.1476, 41.93234
763.6298, 41.51873
764.1119, 41.13542
764.5940, 40.73692
765.0761, 40.27264
765.5582, 39.88059
766.0403, 39.65369
766.5225, 39.51697
767.0046, 39.44293
767.4867, 39.38339
767.9688, 39.18805
768.4509, 38.77470
768.9330, 38.31245
769.4152, 38.12389
769.8973, 38.22316
770.3794, 38.16344
770.8615, 37.87904
771.3436, 37.59364
771.8257, 37.41842
772.3079, 37.28614
772.7900, 37.06730
773.2721, 36.74488
773.7542, 36.55965
774.2363, 36.66122
774.7184, 36.78418
775.2006, 36.77310
775.6827, 36.71460
776.1648, 36.77454
776.6469, 36.94671
777.1290, 37.01834
777.6111, 36.77985
778.0933, 36.39465
778.5754, 36.22344
779.0575, 36.26152
779.5396, 36.43475
780.0217, 36.78688
780.5038, 37.06034
780.9860, 37.04025
781.4681, 36.78253
781.9502, 36.52428
782.4323, 36.13819
782.9144, 35.96289
783.3965, 36.21231
783.8787, 36.47908
784.3608, 36.48223
784.8429, 36.35291
785.3250, 36.37017
785.8071, 36.62295
786.2892, 36.87654
786.7714, 36.87350
787.2535, 36.76112
787.7356, 36.80713
788.2177, 37.00975
788.6998, 37.31524
789.1819, 37.71803
789.6641, 38.08708
790.1462, 38.24965
790.6283, 38.20689
791.1104, 38.21104
791.5925, 38.24605
792.0746, 38.35694
792.5568, 38.66166
793.0389, 38.94754
793.5210, 39.02147
794.0031, 38.94492
794.4852, 38.93858
794.9673, 39.06753
795.4495, 39.28053
795.9316, 39.55314
796.4137, 39.88565
796.8958, 40.31205
797.3779, 40.80616
797.8600, 41.27662
798.3422, 41.67646
798.8243, 42.02214
799.3064, 42.27526
799.7885, 42.42346
800.2706, 42.91679
800.7527, 43.86145
801.2349, 44.82400
801.7170, 45.62432
802.1991, 46.36454
802.6812, 47.22765
803.1633, 48.21491
803.6454, 49.02752
804.1276, 49.37191
804.6097, 49.85883
805.0918, 50.75418
805.5739, 51.86763
806.0560, 53.07502
806.5381, 54.30648
807.0203, 55.44757
807.5024, 56.39257
807.9845, 57.32193
808.4666, 58.45647
808.9487, 59.78819
809.4308, 61.34829
809.9130, 63.14966
810.3951, 64.90219
810.8772, 66.46906
811.3593, 67.81908
811.8414, 68.84737
812.3235, 69.36236
812.8057, 70.30418
813.2878, 72.27218
813.7699, 73.92081
814.2520, 74.81009
814.7341, 75.27298
815.2162, 75.59095
815.6984, 75.80596
816.1805, 75.95803
816.6626, 76.27159
817.1447, 76.31414
817.6268, 75.75933
818.1089, 74.72678
818.5911, 73.31369
819.0732, 71.59692
819.5553, 69.77762
820.0374, 67.97352
820.5195, 66.16897
821.0016, 64.31010
821.4838, 62.39380
821.9659, 60.54994
822.4480, 58.82392
822.9301, 57.03674
823.4122, 55.01528
823.8943, 52.95033
824.3765, 51.15407
824.8586, 49.64225
825.3407, 48.31275
825.8228, 47.30154
826.3049, 46.31230
826.7870, 45.23759
827.2692, 44.13308
827.7513, 43.04253
828.2334, 41.98535
828.7155, 41.00307
829.1976, 40.14131
829.6797, 39.31097
830.1619, 38.33638
830.6440, 37.33464
831.1261, 36.62298
831.6082, 36.21676
832.0903, 35.89606
832.5724, 35.53814
833.0546, 35.15834
833.5367, 34.78699
834.0188, 34.42408
834.5009, 34.06004
834.9830, 33.67522
835.4651, 33.32601
835.9473, 32.98520
836.4294, 32.73180
836.9115, 32.71465
837.3936, 32.91486
837.8757, 32.94858
838.3578, 32.61311
838.8400, 32.28059
839.3221, 32.09318
839.8042, 31.97151
840.2863, 31.81271
840.7684, 31.64127
841.2505, 31.57509
841.7327, 31.68122
842.2148, 31.83834
842.6969, 31.91274
843.1790, 31.92135
843.6611, 31.89772
844.1432, 31.84827
844.6254, 31.83274
845.1075, 31.88420
845.5896, 31.92559
846.0717, 31.83551
846.5538, 31.61298
847.0359, 31.53686
847.5181, 31.68995
848.0002, 31.82794
848.4823, 31.88356
848.9644, 31.92814
849.4465, 32.00979
849.9286, 32.12024
850.4108, 32.24045
850.8929, 32.40413
851.3750, 32.49327
851.8571, 32.40082
852.3392, 32.27554
852.8214, 32.22318
853.3035, 32.23912
853.7856, 32.30336
854.2677, 32.40505
854.7498, 32.51067
855.2319, 32.60836
855.7141, 32.67704
856.1962, 32.69215
856.6783, 32.64360
857.1604, 32.39632
857.6425, 31.89975
858.1246, 31.49396
858.6068, 31.49333
859.0889, 31.77034
859.5710, 31.83566
860.0531, 31.58885
860.5352, 31.39270
861.0173, 31.24719
861.4995, 31.17197
861.9816, 31.21869
862.4637, 31.31605
862.9458, 31.37501
863.4279, 31.38794
863.9100, 31.38136
864.3922, 31.31494
864.8743, 31.28393
865.3564, 31.32842
865.8385, 31.44231
866.3206, 31.68088
866.8027, 31.99111
867.2849, 32.16770
867.7670, 32.06549
868.2491, 31.88984
868.7312, 31.93643
869.2133, 32.11902
869.6954, 32.16473
870.1776, 32.06628
870.6597, 32.03544
871.1418, 32.17635
871.6239, 32.35315
872.1060, 32.36369
872.5881, 32.20982
873.0703, 32.16093
873.5524, 32.26049
874.0345, 32.35760
874.5166, 32.45345
874.9987, 32.49931
875.4808, 32.42917
875.9630, 32.27794
876.4451, 32.14140
876.9272, 32.00061
877.4093, 31.92732
877.8914, 32.03495
878.3735, 32.11207
878.8557, 31.99632
879.3378, 31.77739
879.8199, 31.61655
880.3020, 31.54062
880.7841, 31.42701
881.2662, 31.14934
881.7484, 30.82935
882.2305, 30.59381
882.7126, 30.43875
883.1947, 30.42503
883.6768, 30.52181
884.1589, 30.44033
884.6411, 29.97406
885.1232, 29.35782
885.6053, 29.08884
886.0874, 29.17783
886.5695, 29.17216
887.0516, 29.04849
887.5338, 28.87884
888.0159, 28.65405
888.4980, 28.45640
888.9801, 28.40433
889.4622, 28.49725
889.9443, 28.52323
890.4265, 28.42170
890.9086, 28.34133
891.3907, 28.31125
891.8728, 28.29078
892.3549, 28.21978
892.8370, 28.14972
893.3192, 28.18868
893.8013, 28.36947
894.2834, 28.57934
894.7655, 28.78751
895.2476, 28.97911
895.7297, 29.13023
896.2119, 29.26055
896.6940, 29.40031
897.1761, 29.55685
897.6582, 29.73120
898.1403, 29.93705
898.6224, 30.12466
899.1046, 30.22673
899.5867, 30.24165
900.0688, 30.16227
900.5509, 29.98817
901.0330, 29.72582
901.5151, 29.36643
901.9973, 28.98017
902.4794, 28.67531
902.9615, 28.45200
903.4436, 28.20872
903.9257, 27.95921
904.4078, 27.63872
904.8900, 27.10939
905.3721, 26.66678
905.8542, 26.65731
906.3363, 26.90656
906.8184, 26.85330
907.3005, 26.28459
907.7827, 25.91907
908.2648, 26.06415
908.7469, 26.18506
909.2290, 25.97078
909.7111, 25.61468
910.1932, 25.37623
910.6754, 25.27659
911.1575, 25.14465
911.6396, 24.83879
912.1217, 24.55827
912.6038, 24.48783
913.0859, 24.52898
913.5681, 24.53506
914.0502, 24.51471
914.5323, 24.58066
915.0144, 24.77978
915.4965, 24.98253
915.9786, 25.04098
916.4607, 24.97512
916.9428, 24.79661
917.4249, 24.52438
917.9070, 24.48921
918.3892, 24.80116
918.8713, 25.00257
919.3534, 24.68708
919.8355, 24.06490
920.3176, 23.79608
920.7997, 23.98291
921.2819, 24.14222
921.7640, 24.28722
922.2461, 24.36613
922.7282, 24.34159
923.2103, 24.25434
923.6924, 24.11884
924.1746, 23.94124
924.6567, 23.86696
925.1388, 24.03616
925.6209, 24.11912
926.1030, 23.90612
926.5851, 23.73332
927.0673, 23.89447
927.5494, 24.23825
928.0315, 24.49208
928.5136, 24.59097
928.9957, 24.56829
929.4778, 24.33648
929.9600, 24.09522
930.4421, 23.99115
930.9242, 23.99273
931.4063, 24.09315
931.8884, 24.24904
932.3705, 24.31859
932.8527, 24.21383
933.3348, 24.05595
933.8169, 24.01148
934.2990, 24.03588
934.7811, 24.00730
935.2632, 23.92620
935.7454, 23.81656
936.2275, 23.68563
936.7096, 23.62990
937.1917, 23.75475
937.6738, 24.01485
938.1559, 24.25685
938.6381, 24.48909
939.1202, 24.62138
939.6023, 24.63985
940.0844, 24.56017
940.5665, 24.33806
941.0486, 24.09097
941.5308, 24.00955
942.0129, 24.10731
942.4950, 24.21853
942.9771, 24.32363
943.4592, 24.47307
943.9413, 24.78049
944.4235, 25.02877
944.9056, 25.05404
945.3877, 24.92799
945.8698, 24.79097
946.3519, 24.63613
946.8340, 24.58349
947.3162, 24.73291
947.7983, 24.91250
948.2804, 25.02954
948.7625, 25.12998
949.2446, 25.26925
949.7267, 25.45005
950.2089, 25.65809
950.6910, 25.91105
951.1731, 26.11072
951.6552, 26.10466
952.1373, 26.05682
952.6194, 26.20142
953.1016, 26.47364
953.5837, 26.68000
954.0658, 26.77129
954.5479, 26.84523
955.0300, 26.97812
955.5121, 27.15035
955.9943, 27.34618
956.4764, 27.55091
956.9585, 27.65026
957.4406, 27.65393
957.9227, 27.86975
958.4048, 28.45612
958.8870, 29.11400
959.3691, 29.42519
959.8512, 29.44421
960.3333, 29.62551
960.8154, 29.99511
961.2975, 30.32916
961.7797, 30.58197
962.2618, 30.79316
962.7439, 30.92123
963.2260, 31.10585
963.7081, 31.69567
964.1902, 32.83730
964.6724, 33.60207
965.1545, 33.76514
965.6366, 33.91861
966.1187, 34.08099
966.6008, 34.39190
967.0829, 35.00153
967.5651, 35.84137
968.0472, 36.70224
968.5293, 37.57933
969.0114, 38.46254
969.4935, 39.47717
969.9756, 40.35423
970.4578, 40.76918
970.9399, 41.13268
971.4220, 41.95339
971.9041, 43.17985
972.3862, 44.33053
972.8683, 45.18902
973.3505, 46.05709
973.8326, 47.05780
974.3147, 48.16953
974.7968, 49.40767
975.2789, 50.72468
975.7610, 52.04158
976.2432, 53.34234
976.7253, 54.67238
977.2074, 56.02342
977.6895, 57.47118
978.1716, 59.14717
978.6537, 60.94804
979.1359, 62.80320
979.6180, 64.63891
980.1001, 66.19753
980.5822, 67.41216
981.0643, 68.65645
981.5464, 70.30767
982.0286, 72.24403
982.5107, 74.25467
982.9928, 76.27884
983.4749, 77.96191
983.9570, 79.27540
984.4391, 80.72041
984.9213, 82.57015
985.4034, 84.49557
985.8855, 85.95313
986.3676, 87.03899
986.8497, 88.60452
987.3318, 90.69942
987.8140, 92.65768
988.2961, 94.30233
988.7782, 96.04919
989.2603, 98.24599
989.7424, 100.6041
990.2245, 102.5117
990.7067, 103.8833
991.1888, 105.5760
991.6709, 107.9089
992.1530, 109.8165
992.6351, 111.0468
993.1172, 111.8092
993.5994, 112.3352
994.0815, 112.5027
994.5636, 111.9208
995.0457, 110.4422
995.5278, 108.6270
996.0099, 106.5212
996.4921, 104.0062
996.9742, 100.8762
997.4563, 97.46981
997.9384, 93.96306
998.4205, 90.41203
998.9026, 87.01009
999.3848, 83.81697
999.8669, 80.71598
1000.349, 77.67382
1000.831, 74.73466
1001.313, 71.85519
1001.795, 69.13743
1002.277, 66.69576
1002.760, 64.51949
1003.242, 62.44488
1003.724, 60.42091
1004.206, 58.53799
1004.688, 56.79956
1005.170, 55.24739
1005.652, 53.78469
1006.134, 52.58569
1006.617, 52.15880
1007.099, 52.35094
1007.581, 52.07063
1008.063, 50.64275
1008.545, 48.90993
1009.027, 47.28015
1009.509, 45.92137
1009.991, 45.07999
1010.473, 44.64582
1010.956, 44.49422
1011.438, 44.51294
1011.920, 44.34018
1012.402, 43.66688
1012.884, 42.84270
1013.366, 42.33054
1013.848, 41.95977
1014.330, 41.33146
1014.813, 40.53159
1015.295, 39.97252
1015.777, 39.76891
1016.259, 39.68537
1016.741, 39.51899
1017.223, 39.34786
1017.705, 39.41001
1018.187, 39.58474
1018.669, 39.33718
1019.152, 38.70720
1019.634, 38.35563
1020.116, 38.52209
1020.598, 38.78936
1021.080, 38.71716
1021.562, 38.45164
1022.044, 38.42020
1022.526, 38.60008
1023.008, 38.77787
1023.491, 38.93316
1023.973, 38.96536
1024.455, 38.81492
1024.937, 38.69757
1025.419, 38.89043
1025.901, 39.29913
1026.383, 39.45209
1026.865, 39.32262
1027.348, 39.33305
1027.830, 39.52122
1028.312, 39.92070
1028.794, 40.62707
1029.276, 41.26927
1029.758, 41.30686
1030.240, 40.86681
1030.722, 41.00787
1031.204, 41.90229
1031.687, 42.59035
1032.169, 42.93068
1032.651, 43.20882
1033.133, 43.53633
1033.615, 43.90212
1034.097, 44.30491
1034.579, 44.73763
1035.061, 45.07090
1035.544, 45.24381
1036.026, 45.47879
1036.508, 45.84148
1036.990, 46.18114
1037.472, 46.45087
1037.954, 46.63100
1038.436, 46.63533
1038.918, 46.47774
1039.401, 46.60304
1039.883, 47.35134
1040.365, 47.73607
1040.847, 47.37208
1041.329, 47.07457
1041.811, 47.39273
1042.293, 47.84102
1042.775, 47.73584
1043.257, 47.09486
1043.740, 46.61352
1044.222, 46.39067
1044.704, 46.17492
1045.186, 45.93919
1045.668, 45.72363
1046.150, 45.58572
1046.632, 45.45176
1047.114, 45.24784
1047.596, 44.96972
1048.079, 44.60416
1048.561, 43.93151
1049.043, 43.50509
1049.525, 43.53579
1050.007, 43.65926
1050.489, 43.87733
1050.971, 43.97699
1051.453, 43.54869
1051.936, 42.68296
1052.418, 42.24546
1052.900, 42.68380
1053.382, 43.02323
1053.864, 43.01901
1054.346, 42.94063
1054.828, 42.87403
1055.310, 42.84779
1055.792, 42.91590
1056.275, 43.05767
1056.757, 43.13152
1057.239, 42.99321
1057.721, 43.02166
1058.203, 43.46997
1058.685, 43.94048
1059.167, 44.19319
1059.649, 44.36050
1060.131, 44.59323
1060.614, 44.90121
1061.096, 45.24709
1061.578, 45.63603
1062.060, 46.01689
1062.542, 46.40961
1063.024, 46.74421
1063.506, 46.79914
1063.988, 46.90300
1064.471, 47.58120
1064.953, 48.66770
1065.435, 49.38520
1065.917, 49.39598
1066.399, 49.51340
1066.881, 50.12675
1067.363, 50.86046
1067.845, 51.51170
1068.328, 52.15612
1068.810, 52.95249
1069.292, 53.81991
1069.774, 54.44772
1070.256, 54.67484
1070.738, 55.09789
1071.220, 56.13766
1071.702, 57.24843
1072.184, 58.11517
1072.667, 58.88693
1073.149, 59.74509
1073.631, 60.64305
1074.113, 61.40532
1074.595, 61.97805
1075.077, 62.49172
1075.559, 62.89676
1076.041, 63.38149
1076.523, 64.18053
1077.006, 64.99954
1077.488, 65.46746
1077.970, 65.74621
1078.452, 66.31105
1078.934, 67.27238
1079.416, 68.01443
1079.898, 68.12403
1080.380, 68.12806
1080.862, 68.41055
1081.345, 68.61333
1081.827, 68.39360
1082.309, 67.85483
1082.791, 67.17590
1083.273, 66.41138
1083.755, 65.73870
1084.237, 65.32182
1084.719, 64.88213
1085.202, 64.34153
1085.684, 63.67519
1086.166, 62.76639
1086.648, 61.76894
1087.130, 60.95436
1087.612, 60.32695
1088.094, 59.57741
1088.576, 58.50999
1089.058, 57.47422
1089.541, 56.63274
1090.023, 55.85850
1090.505, 55.08327
1090.987, 54.30618
1091.469, 53.54381
1091.951, 52.78492
1092.433, 51.95739
1092.915, 50.96886
1093.397, 50.12688
1093.880, 49.64874
1094.362, 49.24466
1094.844, 48.79479
1095.326, 48.29785
1095.808, 47.70045
1096.290, 47.06990
1096.772, 46.59962
1097.254, 46.36573
1097.737, 46.15426
1098.219, 45.88451
1098.701, 45.63511
1099.183, 45.39484
1099.665, 45.23101
1100.147, 45.21460
1100.629, 45.31731
1101.111, 45.52340
1101.594, 45.85407
1102.076, 45.96186
1102.558, 45.49763
1103.040, 45.15409
1103.522, 45.25207
1104.004, 45.45089
1104.486, 45.46740
1104.968, 45.44214
1105.450, 45.67509
1105.932, 46.18069
1106.415, 46.53189
1106.897, 46.60373
1107.379, 46.57980
1107.861, 46.24363
1108.343, 46.10655
1108.825, 46.58825
1109.307, 47.31002
1109.789, 47.91206
1110.272, 48.34079
1110.754, 48.43401
1111.236, 47.93702
1111.718, 47.57508
1112.200, 47.34905
1112.682, 47.34761
1113.164, 47.85717
1113.646, 48.38722
1114.129, 48.34282
1114.611, 47.96093
1115.093, 48.16962
1115.575, 49.54004
1116.057, 49.72797
1116.539, 47.74671
1117.021, 46.07607
1117.503, 45.32279
1117.985, 44.86346
1118.468, 44.38985
1118.950, 43.89144
1119.432, 43.34074
1119.914, 42.73137
1120.396, 42.14393
1120.878, 41.57295
1121.360, 41.04041
1121.842, 40.59925
1122.324, 40.09814
1122.807, 39.39012
1123.289, 38.69155
1123.771, 38.33840
1124.253, 38.25583
1124.735, 37.76536
1125.217, 36.66465
1125.699, 35.89099
1126.181, 35.62895
1126.664, 35.22636
1127.146, 34.38611
1127.628, 33.53343
1128.110, 33.07479
1128.592, 32.88370
1129.074, 32.59214
1129.556, 32.19107
1130.038, 31.81449
1130.521, 31.47715
1131.003, 31.01577
1131.485, 30.35129
1131.967, 29.86152
1132.449, 29.83207
1132.931, 29.93224
1133.413, 29.57610
1133.895, 28.85546
1134.377, 28.43671
1134.859, 28.30683
1135.342, 28.17134
1135.824, 27.98950
1136.306, 27.71299
1136.788, 27.31866
1137.270, 26.90535
1137.752, 26.57212
1138.234, 26.31219
1138.716, 26.08835
1139.199, 25.92290
1139.681, 26.00448
1140.163, 26.26755
1140.645, 26.25422
1141.127, 25.86550
1141.609, 25.43273
1142.091, 25.17771
1142.573, 25.03161
1143.056, 24.94317
1143.538, 24.87066
1144.020, 24.67452
1144.502, 24.43810
1144.984, 24.43276
1145.466, 24.62594
1145.948, 24.70095
1146.430, 24.52468
1146.912, 24.29718
1147.395, 24.19616
1147.877, 24.13211
1148.359, 23.96727
1148.841, 23.79987
1149.323, 23.81620
1149.805, 23.93251
1150.287, 23.90561
1150.769, 23.71017
1151.251, 23.60097
1151.734, 23.77028
1152.216, 23.90734
1152.698, 23.74478
1153.180, 23.52988
1153.662, 23.46514
1154.144, 23.47552
1154.626, 23.49043
1155.108, 23.47169
1155.591, 23.30504
1156.073, 22.90326
1156.555, 22.73088
1157.037, 23.19431
1157.519, 23.59525
1158.001, 23.60321
1158.483, 23.48612
1158.965, 23.46699
1159.448, 23.46389
1159.930, 23.26480
1160.412, 22.85983
1160.894, 22.63703
1161.376, 22.80322
1161.858, 22.89398
1162.340, 22.68145
1162.822, 22.63424
1163.304, 23.07916
1163.786, 23.60865
1164.269, 23.86745
1164.751, 23.89675
1165.233, 23.82204
1165.715, 23.59365
1166.197, 23.48779
1166.679, 23.54534
1167.161, 23.62229
1167.643, 23.72620
1168.126, 23.73343
1168.608, 23.52875
1169.090, 23.28471
1169.572, 23.27160
1170.054, 23.45263
1170.536, 23.55567
1171.018, 23.57968
1171.500, 23.54289
1171.983, 23.44419
1172.465, 23.37220
1172.947, 23.36081
1173.429, 23.29050
1173.911, 23.04261
1174.393, 22.75708
1174.875, 22.74911
1175.357, 22.92248
1175.839, 22.90137
1176.322, 22.71735
1176.804, 22.49129
1177.286, 22.26941
1177.768, 22.17177
1178.250, 22.24908
1178.732, 22.37101
1179.214, 22.45035
1179.696, 22.45563
1180.178, 22.30233
1180.661, 22.07604
1181.143, 21.86099
1181.625, 21.70219
1182.107, 21.72410
1182.589, 21.89968
1183.071, 21.96623
1183.553, 21.76289
1184.035, 21.58034
1184.518, 21.63596
1185.000, 21.73792
1185.482, 21.86069
1185.964, 21.86864
1186.446, 21.46331
1186.928, 20.87933
1187.410, 20.68007
1187.892, 20.96879
1188.375, 21.25438
1188.857, 21.53313
1189.339, 21.63093
1189.821, 21.36277
1190.303, 21.08469
1190.785, 21.03574
1191.267, 21.00626
1191.749, 20.67893
1192.231, 20.18303
1192.714, 20.04264
1193.196, 20.39204
1193.678, 20.57502
1194.160, 20.54265
1194.642, 20.47177
1195.124, 20.38153
1195.606, 20.30716
1196.088, 20.28210
1196.570, 20.24076
1197.053, 20.06080
1197.535, 19.80857
1198.017, 19.88217
1198.499, 20.26859
1198.981, 20.38964
1199.463, 20.21567
1199.945, 19.93707
1200.427, 19.61746
1200.910, 19.47005
1201.392, 19.65835
1201.874, 19.93354
1202.356, 19.94086
1202.838, 19.77777
1203.320, 19.57079
1203.802, 19.39291
1204.284, 19.43655
1204.766, 19.66672
1205.249, 19.95536
1205.731, 20.23486
1206.213, 20.33911
1206.695, 20.12614
1207.177, 19.80346
1207.659, 19.38633
1208.141, 19.07770
1208.623, 19.15908
1209.105, 19.38338
1209.588, 19.38781
1210.070, 19.25150
1210.552, 19.37380
1211.034, 19.88973
1211.516, 20.13328
1211.998, 19.69114
1212.480, 19.34003
1212.962, 19.30581
1213.445, 19.36172
1213.927, 19.43591
1214.409, 19.49972
1214.891, 19.51414
1215.373, 19.49325
1215.855, 19.50617
1216.337, 19.57564
1216.819, 19.58046
1217.302, 19.52000
1217.784, 19.37881
1218.266, 19.12614
1218.748, 18.92369
1219.230, 18.86217
1219.712, 18.88154
1220.194, 18.90948
1220.676, 18.94651
1221.158, 18.97142
1221.641, 19.00514
1222.123, 19.22375
1222.605, 19.57262
1223.087, 19.70841
1223.569, 19.57613
1224.051, 19.41296
1224.533, 19.34993
1225.015, 19.32489
1225.497, 19.27225
1225.980, 19.22598
1226.462, 19.26678
1226.944, 19.30670
1227.426, 19.16596
1227.908, 18.95655
1228.390, 18.96207
1228.872, 19.18379
1229.354, 19.28391
1229.837, 19.06299
1230.319, 18.95860
1230.801, 19.26714
1231.283, 19.52986
1231.765, 19.52091
1232.247, 19.42090
1232.729, 19.36898
1233.211, 19.32548
1233.693, 19.17091
1234.176, 18.91613
1234.658, 18.89676
1235.140, 19.22290
1235.622, 19.44783
1236.104, 19.53091
1236.586, 19.60410
1237.068, 19.72285
1237.550, 19.74751
1238.032, 19.55647
1238.515, 19.30288
1238.997, 19.25932
1239.479, 19.36146
1239.961, 19.33090
1240.443, 19.20594
1240.925, 19.15162
1241.407, 19.18006
1241.889, 19.28291
1242.372, 19.44043
1242.854, 19.54086
1243.336, 19.50328
1243.818, 19.46344
1244.300, 19.65476
1244.782, 19.79314
1245.264, 19.44134
1245.746, 19.00365
1246.229, 19.01894
1246.711, 19.32151
1247.193, 19.48881
1247.675, 19.46636
1248.157, 19.51758
1248.639, 19.81807
1249.121, 19.97010
1249.603, 19.81912
##END=



