##NAMES=Tunellite
##RRUFFID=R070755
##IDEAL CHEMISTRY=SrB_6_O_9_(OH)_2_&#183;3H_2_O
##LOCALITY=Jennifer mine, U.S. Borax Mine, Boron, Kramer District, Kern County, California, USA
##OWNER=RRUFF
##SOURCE=Michael Scott
##DESCRIPTION=Colorless rhombohedron with defined cleavage
##STATUS=The identification of this mineral has been confirmed by single-crystal X-ray diffraction.
##URL=rruff.info/R070755
164.5130, 10690.88
164.9951, 10663.75
165.4772, 10637.61
165.9593, 10620.88
166.4414, 10622.57
166.9236, 10671.78
167.4057, 10722.07
167.8878, 10738.11
168.3699, 10716.60
168.8520, 10691.31
169.3341, 10677.29
169.8163, 10674.62
170.2984, 10683.58
170.7805, 10718.49
171.2626, 10758.47
171.7447, 10784.51
172.2268, 10795.73
172.7090, 10790.07
173.1911, 10752.77
173.6732, 10693.43
174.1553, 10643.66
174.6374, 10635.86
175.1195, 10645.67
175.6017, 10634.30
176.0838, 10582.35
176.5659, 10523.34
177.0480, 10498.63
177.5301, 10505.19
178.0122, 10516.23
178.4944, 10509.34
178.9765, 10491.21
179.4586, 10477.48
179.9407, 10476.14
180.4228, 10479.99
180.9049, 10477.85
181.3871, 10469.61
181.8692, 10456.08
182.3513, 10436.92
182.8334, 10413.04
183.3155, 10386.91
183.7976, 10357.17
184.2797, 10326.26
184.7619, 10299.63
185.2440, 10275.58
185.7261, 10262.59
186.2082, 10280.13
186.6903, 10325.36
187.1724, 10366.08
187.6546, 10383.60
188.1367, 10381.49
188.6188, 10376.69
189.1009, 10369.58
189.5830, 10361.80
190.0651, 10359.19
190.5473, 10361.85
191.0294, 10358.28
191.5115, 10333.25
191.9936, 10289.04
192.4757, 10258.86
192.9578, 10254.75
193.4400, 10264.23
193.9221, 10251.31
194.4042, 10214.90
194.8863, 10162.35
195.3684, 10088.48
195.8505, 9992.479
196.3327, 9923.468
196.8148, 9903.988
197.2969, 9925.113
197.7790, 9923.658
198.2611, 9894.886
198.7432, 9858.255
199.2254, 9836.968
199.7075, 9832.402
200.1896, 9831.900
200.6717, 9829.212
201.1538, 9824.103
201.6359, 9833.708
202.1181, 9863.670
202.6002, 9899.265
203.0823, 9907.387
203.5644, 9876.488
204.0465, 9865.427
204.5286, 9917.560
205.0108, 10048.08
205.4929, 10122.50
205.9750, 10122.11
206.4571, 10073.61
206.9392, 10044.33
207.4213, 10039.63
207.9035, 10038.73
208.3856, 10028.58
208.8677, 10005.80
209.3498, 9988.197
209.8319, 9980.608
210.3140, 9978.930
210.7962, 9963.144
211.2783, 9928.080
211.7604, 9889.586
212.2425, 9858.021
212.7246, 9831.287
213.2067, 9819.936
213.6889, 9832.902
214.1710, 9867.604
214.6531, 9879.458
215.1352, 9860.825
215.6173, 9831.403
216.0994, 9808.704
216.5816, 9790.143
217.0637, 9785.251
217.5458, 9800.983
218.0279, 9839.063
218.5100, 9862.530
218.9921, 9863.969
219.4743, 9857.437
219.9564, 9861.979
220.4385, 9882.945
220.9206, 9902.966
221.4027, 9916.935
221.8848, 9924.735
222.3670, 9926.785
222.8491, 9923.267
223.3312, 9913.601
223.8133, 9894.735
224.2954, 9856.875
224.7775, 9826.635
225.2596, 9816.700
225.7418, 9838.092
226.2239, 9848.848
226.7060, 9842.319
227.1881, 9827.295
227.6702, 9829.342
228.1523, 9865.927
228.6345, 9893.673
229.1166, 9888.671
229.5987, 9833.462
230.0808, 9785.006
230.5629, 9742.648
231.0450, 9708.713
231.5272, 9694.824
232.0093, 9714.054
232.4914, 9736.416
232.9735, 9744.027
233.4556, 9730.959
233.9377, 9714.486
234.4199, 9692.678
234.9020, 9667.102
235.3841, 9654.615
235.8662, 9663.956
236.3483, 9676.771
236.8304, 9678.323
237.3126, 9659.882
237.7947, 9647.053
238.2768, 9642.088
238.7589, 9645.053
239.2410, 9661.180
239.7231, 9700.912
240.2053, 9743.385
240.6874, 9766.960
241.1695, 9754.638
241.6516, 9754.869
242.1337, 9785.707
242.6158, 9852.303
243.0980, 9880.146
243.5801, 9844.357
244.0622, 9790.609
244.5443, 9773.331
245.0264, 9812.576
245.5085, 9853.823
245.9907, 9884.437
246.4728, 9902.780
246.9549, 9919.978
247.4370, 9933.823
247.9191, 9948.064
248.4012, 9968.178
248.8834, 9996.218
249.3655, 10026.93
249.8476, 10061.83
250.3297, 10106.32
250.8118, 10132.42
251.2939, 10133.12
251.7761, 10119.19
252.2582, 10108.91
252.7403, 10101.02
253.2224, 10098.65
253.7045, 10102.86
254.1866, 10113.96
254.6688, 10132.26
255.1509, 10165.40
255.6330, 10201.94
256.1151, 10213.15
256.5972, 10182.30
257.0793, 10155.44
257.5615, 10157.09
258.0436, 10206.27
258.5257, 10228.67
259.0078, 10210.68
259.4899, 10170.47
259.9720, 10161.60
260.4542, 10204.57
260.9363, 10241.65
261.4184, 10238.36
261.9005, 10176.49
262.3826, 10132.33
262.8647, 10110.95
263.3469, 10109.53
263.8290, 10122.79
264.3111, 10159.50
264.7932, 10193.20
265.2753, 10208.80
265.7574, 10203.94
266.2396, 10187.12
266.7217, 10156.32
267.2038, 10114.36
267.6859, 10067.26
268.1680, 10007.06
268.6501, 9959.923
269.1323, 9952.066
269.6144, 9996.028
270.0965, 10020.33
270.5786, 10011.98
271.0607, 9978.278
271.5428, 9948.833
272.0250, 9924.518
272.5071, 9903.285
272.9892, 9883.939
273.4713, 9866.970
273.9534, 9849.780
274.4355, 9829.835
274.9177, 9809.732
275.3998, 9804.511
275.8819, 9819.847
276.3640, 9833.335
276.8461, 9823.945
277.3282, 9789.307
277.8104, 9753.742
278.2925, 9718.646
278.7746, 9686.523
279.2567, 9672.209
279.7388, 9679.555
280.2209, 9689.987
280.7031, 9683.811
281.1852, 9660.041
281.6673, 9644.582
282.1494, 9646.178
282.6315, 9659.775
283.1136, 9665.338
283.5958, 9662.500
284.0779, 9653.946
284.5600, 9634.512
285.0421, 9605.040
285.5242, 9596.461
286.0063, 9627.051
286.4884, 9681.490
286.9706, 9702.089
287.4527, 9684.813
287.9348, 9661.296
288.4169, 9661.304
288.8990, 9683.010
289.3811, 9712.637
289.8633, 9752.939
290.3454, 9795.690
290.8275, 9815.574
291.3096, 9811.411
291.7917, 9797.260
292.2738, 9780.006
292.7560, 9762.139
293.2381, 9756.703
293.7202, 9777.759
294.2023, 9810.160
294.6844, 9816.950
295.1665, 9797.338
295.6487, 9774.899
296.1308, 9775.463
296.6129, 9792.375
297.0950, 9802.729
297.5771, 9792.906
298.0592, 9775.326
298.5414, 9772.226
299.0235, 9783.696
299.5056, 9797.084
299.9877, 9794.233
300.4698, 9784.367
300.9519, 9789.102
301.4341, 9819.734
301.9162, 9866.486
302.3983, 9929.021
302.8804, 10005.90
303.3625, 10063.85
303.8446, 10055.31
304.3268, 10009.96
304.8089, 9980.963
305.2910, 10000.82
305.7731, 10037.65
306.2552, 10061.50
306.7373, 10073.03
307.2195, 10080.89
307.7016, 10090.69
308.1837, 10100.99
308.6658, 10109.60
309.1479, 10103.43
309.6300, 10104.56
310.1122, 10135.76
310.5943, 10195.58
311.0764, 10253.11
311.5585, 10291.29
312.0406, 10316.71
312.5227, 10337.14
313.0049, 10341.05
313.4870, 10352.33
313.9691, 10384.94
314.4512, 10438.32
314.9333, 10500.40
315.4154, 10576.46
315.8976, 10653.86
316.3797, 10720.64
316.8618, 10771.08
317.3439, 10812.27
317.8260, 10841.35
318.3081, 10859.77
318.7903, 10881.90
319.2724, 10908.98
319.7545, 10943.51
320.2366, 10987.47
320.7187, 11047.15
321.2008, 11110.81
321.6830, 11160.52
322.1651, 11201.70
322.6472, 11287.68
323.1293, 11495.12
323.6114, 11712.12
324.0935, 11863.26
324.5757, 11851.70
325.0578, 11869.64
325.5399, 11937.02
326.0220, 12053.69
326.5041, 12218.19
326.9862, 12445.85
327.4684, 12710.88
327.9505, 13000.72
328.4326, 13349.08
328.9147, 13679.48
329.3968, 14000.75
329.8789, 14304.85
330.3611, 14552.53
330.8432, 14749.66
331.3253, 14886.54
331.8074, 14960.11
332.2895, 14985.88
332.7716, 14917.78
333.2538, 14734.05
333.7359, 14453.47
334.2180, 14146.92
334.7001, 13800.22
335.1822, 13446.57
335.6643, 13104.28
336.1465, 12766.80
336.6286, 12453.70
337.1107, 12167.80
337.5928, 11907.44
338.0749, 11671.62
338.5570, 11453.89
339.0392, 11280.38
339.5213, 11183.15
340.0034, 11172.58
340.4855, 11136.87
340.9676, 11062.58
341.4497, 10969.00
341.9319, 10895.01
342.4140, 10842.04
342.8961, 10798.46
343.3782, 10760.75
343.8603, 10728.58
344.3424, 10695.07
344.8246, 10654.55
345.3067, 10625.55
345.7888, 10645.96
346.2709, 10712.98
346.7530, 10780.43
347.2351, 10827.58
347.7173, 10857.08
348.1994, 10872.00
348.6815, 10867.79
349.1636, 10869.89
349.6457, 10915.91
350.1278, 10996.59
350.6100, 11076.95
351.0921, 11137.50
351.5742, 11187.46
352.0563, 11239.29
352.5384, 11292.33
353.0205, 11354.75
353.5027, 11443.44
353.9848, 11546.65
354.4669, 11638.66
354.9490, 11699.17
355.4311, 11749.88
355.9132, 11806.42
356.3954, 11869.40
356.8775, 11946.34
357.3596, 12056.21
357.8417, 12179.91
358.3238, 12294.54
358.8059, 12394.64
359.2881, 12481.11
359.7702, 12543.87
360.2523, 12585.51
360.7344, 12642.23
361.2165, 12742.66
361.6986, 12858.72
362.1808, 12967.12
362.6629, 13039.80
363.1450, 13125.74
363.6271, 13243.60
364.1092, 13389.73
364.5913, 13538.38
365.0735, 13691.12
365.5556, 13840.14
366.0377, 13980.48
366.5198, 14073.93
367.0019, 14203.99
367.4840, 14413.84
367.9662, 14677.62
368.4482, 14881.32
368.9304, 15022.85
369.4125, 15103.67
369.8946, 15121.08
370.3767, 15046.89
370.8588, 14958.03
371.3409, 14859.12
371.8231, 14744.11
372.3052, 14597.10
372.7873, 14415.94
373.2694, 14207.66
373.7515, 13966.10
374.2336, 13673.66
374.7158, 13428.13
375.1979, 13244.71
375.6800, 13092.32
376.1621, 12916.42
376.6442, 12711.64
377.1263, 12502.26
377.6085, 12286.24
378.0906, 12068.22
378.5727, 11882.00
379.0548, 11731.64
379.5369, 11605.92
380.0190, 11498.29
380.5012, 11407.43
380.9833, 11322.42
381.4654, 11236.01
381.9475, 11153.20
382.4296, 11082.07
382.9117, 11022.83
383.3939, 10979.12
383.8760, 10969.45
384.3581, 10980.75
384.8402, 10971.75
385.3223, 10918.34
385.8044, 10850.03
386.2866, 10810.16
386.7687, 10795.82
387.2508, 10783.53
387.7329, 10752.01
388.2150, 10714.41
388.6971, 10688.52
389.1793, 10683.02
389.6614, 10684.29
390.1435, 10682.60
390.6256, 10679.58
391.1077, 10679.95
391.5898, 10690.03
392.0720, 10702.21
392.5541, 10711.78
393.0362, 10719.18
393.5183, 10720.52
394.0004, 10712.71
394.4825, 10697.82
394.9647, 10679.69
395.4468, 10642.82
395.9289, 10616.43
396.4110, 10616.23
396.8931, 10652.16
397.3752, 10681.77
397.8574, 10705.96
398.3395, 10718.39
398.8216, 10710.66
399.3037, 10651.89
399.7858, 10607.63
400.2679, 10592.19
400.7501, 10607.33
401.2322, 10628.54
401.7143, 10666.31
402.1964, 10700.05
402.6785, 10710.89
403.1606, 10691.40
403.6428, 10666.38
404.1249, 10634.48
404.6070, 10599.65
405.0891, 10589.43
405.5712, 10613.85
406.0533, 10633.88
406.5355, 10616.28
407.0176, 10558.07
407.4997, 10513.02
407.9818, 10489.83
408.4639, 10477.39
408.9460, 10448.06
409.4282, 10401.91
409.9103, 10365.13
410.3924, 10355.08
410.8745, 10366.46
411.3566, 10385.93
411.8387, 10415.92
412.3209, 10439.64
412.8030, 10425.11
413.2851, 10385.77
413.7672, 10361.12
414.2493, 10386.16
414.7314, 10427.58
415.2136, 10443.24
415.6957, 10431.45
416.1778, 10420.12
416.6599, 10431.29
417.1420, 10454.24
417.6241, 10474.58
418.1063, 10484.01
418.5884, 10492.60
419.0705, 10508.04
419.5526, 10528.50
420.0347, 10543.22
420.5168, 10544.87
420.9990, 10541.22
421.4811, 10537.73
421.9632, 10538.82
422.4453, 10536.00
422.9274, 10531.67
423.4095, 10523.29
423.8917, 10503.28
424.3738, 10442.54
424.8559, 10396.12
425.3380, 10387.12
425.8201, 10436.19
426.3022, 10466.86
426.7844, 10468.85
427.2665, 10458.71
427.7486, 10460.35
428.2307, 10476.60
428.7128, 10497.59
429.1949, 10524.24
429.6771, 10555.48
430.1592, 10567.91
430.6413, 10553.92
431.1234, 10539.29
431.6055, 10552.82
432.0876, 10595.15
432.5698, 10636.06
433.0519, 10669.86
433.5340, 10697.83
434.0161, 10727.44
434.4982, 10758.50
434.9803, 10778.05
435.4625, 10773.56
435.9446, 10750.60
436.4267, 10716.54
436.9088, 10664.27
437.3909, 10626.63
437.8730, 10658.55
438.3552, 10737.83
438.8373, 10801.95
439.3194, 10800.03
439.8015, 10779.21
440.2836, 10783.08
440.7657, 10816.75
441.2479, 10855.71
441.7300, 10892.73
442.2121, 10924.96
442.6942, 10949.58
443.1763, 10962.21
443.6584, 10969.98
444.1406, 10971.63
444.6227, 10968.01
445.1048, 10970.83
445.5869, 10986.23
446.0690, 11006.07
446.5511, 11025.56
447.0333, 11033.44
447.5154, 11055.71
447.9975, 11100.26
448.4796, 11159.04
448.9617, 11209.39
449.4438, 11241.34
449.9260, 11279.80
450.4081, 11335.45
450.8902, 11410.28
451.3723, 11490.88
451.8544, 11583.70
452.3365, 11672.46
452.8186, 11723.68
453.3008, 11730.96
453.7829, 11772.98
454.2650, 11881.00
454.7471, 12039.47
455.2292, 12199.29
455.7113, 12360.83
456.1935, 12527.14
456.6756, 12703.52
457.1577, 12886.72
457.6398, 13077.40
458.1219, 13271.47
458.6040, 13476.92
459.0862, 13709.32
459.5683, 13959.91
460.0504, 14204.67
460.5325, 14463.47
461.0146, 14688.08
461.4967, 14828.27
461.9789, 14869.43
462.4610, 14876.26
462.9431, 14898.99
463.4252, 14901.35
463.9073, 14835.81
464.3894, 14650.91
464.8716, 14432.65
465.3537, 14195.88
465.8358, 13941.76
466.3179, 13703.71
466.8000, 13478.88
467.2821, 13273.39
467.7643, 13090.25
468.2464, 12933.05
468.7285, 12792.86
469.2106, 12678.37
469.6927, 12579.86
470.1748, 12470.61
470.6570, 12341.17
471.1391, 12223.46
471.6212, 12132.38
472.1033, 12068.22
472.5854, 12014.45
473.0675, 11975.26
473.5497, 11936.14
474.0318, 11875.57
474.5139, 11795.68
474.9960, 11720.17
475.4781, 11650.20
475.9602, 11593.57
476.4424, 11574.17
476.9245, 11589.81
477.4066, 11608.53
477.8887, 11610.42
478.3708, 11599.86
478.8529, 11579.00
479.3351, 11539.63
479.8172, 11512.23
480.2993, 11539.29
480.7814, 11594.93
481.2635, 11624.76
481.7456, 11581.22
482.2278, 11526.57
482.7099, 11489.02
483.1920, 11470.79
483.6741, 11467.97
484.1562, 11495.84
484.6383, 11530.03
485.1205, 11549.57
485.6026, 11546.01
486.0847, 11534.76
486.5668, 11516.14
487.0489, 11490.49
487.5310, 11456.90
488.0132, 11403.56
488.4953, 11362.41
488.9774, 11355.53
489.4595, 11393.91
489.9416, 11407.63
490.4237, 11391.68
490.9059, 11359.92
491.3880, 11330.80
491.8701, 11304.72
492.3522, 11277.58
492.8343, 11244.68
493.3164, 11211.70
493.7986, 11198.60
494.2807, 11205.09
494.7628, 11205.03
495.2449, 11167.94
495.7270, 11111.59
496.2091, 11068.16
496.6913, 11045.76
497.1734, 11032.48
497.6555, 11017.47
498.1376, 11003.85
498.6197, 10998.90
499.1018, 11018.30
499.5840, 11036.38
500.0661, 11037.05
500.5482, 11016.28
501.0303, 10996.44
501.5124, 10986.76
501.9945, 10977.62
502.4767, 10960.39
502.9588, 10926.58
503.4409, 10894.55
503.9230, 10867.71
504.4051, 10844.45
504.8872, 10811.85
505.3694, 10749.70
505.8515, 10766.21
506.3336, 10814.94
506.8157, 10856.49
507.2978, 10891.24
507.7799, 10898.83
508.2621, 10941.50
508.7442, 10970.11
509.2263, 10998.14
509.7084, 11045.74
510.1905, 11057.28
510.6726, 11104.57
511.1548, 11081.65
511.6369, 11093.20
512.1190, 11103.39
512.6011, 11121.13
513.0832, 11154.25
513.5653, 11215.69
514.0474, 11313.77
514.5295, 11421.58
515.0117, 11527.14
515.4938, 11630.94
515.9759, 11732.30
516.4580, 11814.83
516.9401, 11911.66
517.4222, 12038.63
517.9044, 12197.37
518.3865, 12361.97
518.8686, 12538.30
519.3507, 12713.85
519.8328, 12884.46
520.3149, 13056.41
520.7971, 13210.35
521.2792, 13355.92
521.7613, 13477.40
522.2434, 13530.70
522.7255, 13503.97
523.2076, 13461.27
523.6898, 13441.37
524.1719, 13433.38
524.6540, 13338.80
525.1361, 13149.80
525.6182, 12935.79
526.1003, 12765.69
526.5825, 12626.28
527.0646, 12479.40
527.5467, 12314.00
528.0288, 12147.61
528.5109, 11992.76
528.9930, 11852.93
529.4752, 11733.44
529.9573, 11649.02
530.4394, 11578.72
530.9215, 11506.67
531.4036, 11428.52
531.8857, 11367.43
532.3679, 11346.07
532.8500, 11337.40
533.3321, 11317.17
533.8142, 11274.35
534.2963, 11228.22
534.7784, 11172.13
535.2606, 11113.20
535.7427, 11079.69
536.2248, 11087.45
536.7069, 11089.82
537.1890, 11065.45
537.6711, 11012.37
538.1533, 10958.29
538.6354, 10900.89
539.1175, 10848.17
539.5996, 10809.71
540.0817, 10784.46
540.5638, 10768.73
541.0460, 10764.44
541.5281, 10765.71
542.0102, 10763.88
542.4923, 10759.62
542.9744, 10755.70
543.4565, 10760.44
543.9387, 10762.53
544.4208, 10746.44
544.9029, 10707.30
545.3850, 10675.36
545.8671, 10674.43
546.3492, 10684.20
546.8314, 10682.46
547.3135, 10650.26
547.7956, 10621.39
548.2777, 10596.86
548.7598, 10579.37
549.2419, 10582.12
549.7241, 10624.55
550.2062, 10660.52
550.6883, 10666.92
551.1704, 10635.36
551.6525, 10624.07
552.1346, 10634.20
552.6168, 10661.84
553.0989, 10716.71
553.5810, 10796.17
554.0631, 10840.51
554.5452, 10825.26
555.0273, 10780.63
555.5095, 10753.15
555.9916, 10742.84
556.4737, 10750.98
556.9558, 10783.75
557.4379, 10832.52
557.9200, 10889.12
558.4022, 10952.75
558.8843, 11021.09
559.3664, 11104.40
559.8485, 11186.97
560.3306, 11252.94
560.8127, 11259.25
561.2949, 11291.08
561.7770, 11376.10
562.2591, 11502.61
562.7412, 11623.84
563.2233, 11739.46
563.7054, 11848.52
564.1876, 11941.74
564.6697, 12013.75
565.1518, 12137.98
565.6339, 12336.19
566.1160, 12534.09
566.5981, 12654.48
567.0803, 12698.35
567.5624, 12726.28
568.0445, 12752.32
568.5266, 12761.85
569.0087, 12728.15
569.4908, 12655.41
569.9730, 12562.76
570.4551, 12452.50
570.9372, 12331.63
571.4193, 12195.59
571.9014, 12045.75
572.3835, 11911.85
572.8657, 11822.52
573.3478, 11749.98
573.8299, 11672.65
574.3120, 11586.43
574.7941, 11493.09
575.2762, 11375.55
575.7584, 11252.79
576.2405, 11165.83
576.7226, 11131.85
577.2047, 11105.72
577.6868, 11077.03
578.1689, 11045.95
578.6511, 11015.82
579.1332, 10986.72
579.6153, 10957.90
580.0974, 10932.21
580.5795, 10907.67
581.0616, 10866.51
581.5438, 10800.47
582.0259, 10739.96
582.5080, 10737.91
582.9901, 10771.61
583.4722, 10784.88
583.9543, 10717.22
584.4365, 10649.48
584.9186, 10656.19
585.4007, 10723.44
585.8828, 10774.58
586.3649, 10773.00
586.8470, 10749.35
587.3292, 10716.19
587.8113, 10662.83
588.2934, 10632.76
588.7755, 10645.86
589.2576, 10670.50
589.7397, 10668.91
590.2219, 10623.32
590.7040, 10601.79
591.1861, 10623.13
591.6682, 10671.01
592.1503, 10696.26
592.6324, 10697.61
593.1146, 10696.60
593.5967, 10704.11
594.0788, 10718.05
594.5609, 10736.51
595.0430, 10759.77
595.5251, 10774.35
596.0073, 10761.65
596.4894, 10735.92
596.9715, 10715.29
597.4536, 10704.05
597.9357, 10698.99
598.4178, 10706.12
598.9000, 10717.48
599.3821, 10717.73
599.8642, 10710.08
600.3463, 10683.87
600.8284, 10628.15
601.3105, 10544.06
601.7927, 10479.07
602.2748, 10436.64
602.7569, 10408.00
603.2390, 10391.21
603.7211, 10387.43
604.2032, 10382.43
604.6854, 10376.88
605.1675, 10366.67
605.6496, 10336.61
606.1317, 10294.43
606.6138, 10273.36
607.0959, 10292.08
607.5781, 10327.50
608.0602, 10350.84
608.5423, 10366.99
609.0244, 10394.29
609.5065, 10457.63
609.9886, 10522.44
610.4708, 10561.37
610.9529, 10566.92
611.4350, 10587.24
611.9171, 10651.55
612.3992, 10721.62
612.8813, 10767.44
613.3635, 10772.70
613.8456, 10785.53
614.3277, 10806.29
614.8098, 10837.43
615.2919, 10884.28
615.7740, 10947.25
616.2562, 11019.30
616.7383, 11097.38
617.2204, 11182.80
617.7025, 11282.45
618.1846, 11396.05
618.6667, 11504.20
619.1489, 11584.80
619.6310, 11656.40
620.1131, 11742.51
620.5952, 11848.91
621.0773, 11958.80
621.5594, 12072.37
622.0416, 12180.00
622.5237, 12270.83
623.0058, 12332.28
623.4879, 12388.86
623.9700, 12440.66
624.4521, 12490.33
624.9343, 12544.46
625.4164, 12601.91
625.8985, 12664.92
626.3806, 12734.17
626.8627, 12809.48
627.3448, 12891.47
627.8270, 12980.73
628.3091, 13070.79
628.7912, 13158.24
629.2733, 13241.93
629.7554, 13320.36
630.2375, 13392.54
630.7197, 13463.11
631.2018, 13532.76
631.6839, 13604.35
632.1660, 13682.57
632.6481, 13787.25
633.1302, 13879.02
633.6124, 13943.29
634.0945, 13983.77
634.5766, 14014.17
635.0587, 14034.63
635.5408, 14047.08
636.0229, 14055.29
636.5051, 14060.34
636.9872, 14034.74
637.4693, 13970.35
637.9514, 13896.84
638.4335, 13843.34
638.9156, 13806.09
639.3978, 13750.91
639.8799, 13672.34
640.3620, 13582.63
640.8441, 13494.05
641.3262, 13405.00
641.8083, 13309.36
642.2905, 13191.35
642.7726, 13081.14
643.2547, 13009.81
643.7368, 12965.04
644.2189, 12902.11
644.7010, 12781.77
645.1832, 12665.53
645.6653, 12588.68
646.1474, 12557.99
646.6295, 12488.95
647.1116, 12356.00
647.5938, 12221.11
648.0759, 12132.67
648.5580, 12094.32
649.0401, 12058.28
649.5222, 12022.81
650.0043, 11983.33
650.4865, 11931.76
650.9686, 11870.13
651.4507, 11806.13
651.9328, 11734.22
652.4149, 11670.64
652.8970, 11642.52
653.3792, 11637.18
653.8613, 11616.39
654.3434, 11540.64
654.8255, 11465.32
655.3076, 11420.13
655.7897, 11409.92
656.2718, 11391.89
656.7539, 11352.43
657.2360, 11317.20
657.7181, 11303.75
658.2003, 11318.69
658.6824, 11328.17
659.1645, 11333.73
659.6466, 11329.32
660.1287, 11299.69
660.6108, 11250.30
661.0930, 11212.53
661.5751, 11199.39
662.0572, 11194.27
662.5393, 11177.76
663.0214, 11152.99
663.5035, 11128.29
663.9857, 11108.92
664.4678, 11089.50
664.9499, 11062.19
665.4320, 11027.44
665.9141, 11007.53
666.3962, 11020.09
666.8784, 11035.15
667.3605, 11039.54
667.8426, 11030.76
668.3247, 11020.92
668.8068, 11010.42
669.2889, 10997.85
669.7711, 10978.98
670.2532, 10955.19
670.7353, 10939.53
671.2174, 10935.94
671.6995, 10938.79
672.1816, 10951.25
672.6638, 10965.04
673.1459, 10960.01
673.6280, 10905.73
674.1101, 10850.49
674.5922, 10815.25
675.0743, 10801.04
675.5565, 10809.38
676.0386, 10879.57
676.5207, 10933.82
677.0028, 10938.77
677.4849, 10887.47
677.9670, 10848.27
678.4492, 10819.26
678.9313, 10804.70
679.4134, 10823.42
679.8955, 10869.35
680.3776, 10864.73
680.8597, 10794.43
681.3419, 10706.49
681.8240, 10647.92
682.3061, 10613.14
682.7882, 10590.69
683.2703, 10588.82
683.7524, 10583.26
684.2346, 10553.77
684.7167, 10510.79
685.1988, 10477.44
685.6809, 10467.08
686.1630, 10459.64
686.6451, 10451.17
687.1273, 10441.64
687.6094, 10426.40
688.0915, 10399.49
688.5736, 10382.43
689.0557, 10392.54
689.5378, 10426.63
690.0200, 10450.79
690.5021, 10464.49
690.9842, 10469.17
691.4663, 10450.69
691.9484, 10428.48
692.4305, 10440.22
692.9127, 10508.07
693.3948, 10565.48
693.8769, 10559.18
694.3590, 10525.08
694.8411, 10510.96
695.3232, 10538.84
695.8054, 10572.76
696.2875, 10611.96
696.7696, 10653.24
697.2517, 10687.76
697.7338, 10714.21
698.2159, 10738.50
698.6981, 10760.94
699.1802, 10783.06
699.6623, 10814.46
700.1444, 10854.07
700.6265, 10884.41
701.1086, 10881.51
701.5908, 10868.52
702.0729, 10874.45
702.5550, 10902.07
703.0371, 10935.83
703.5192, 10978.57
704.0013, 11017.87
704.4835, 11043.39
704.9656, 11039.06
705.4477, 11046.42
705.9298, 11068.74
706.4119, 11100.43
706.8940, 11139.31
707.3762, 11189.08
707.8583, 11220.43
708.3404, 11223.15
708.8225, 11214.30
709.3046, 11222.24
709.7867, 11245.22
710.2689, 11276.50
710.7510, 11320.40
711.2331, 11365.62
711.7152, 11405.18
712.1973, 11438.10
712.6794, 11459.77
713.1616, 11454.51
713.6437, 11449.40
714.1258, 11456.82
714.6079, 11477.16
715.0900, 11500.57
715.5721, 11528.13
716.0543, 11556.17
716.5364, 11583.48
717.0185, 11609.81
717.5006, 11631.47
717.9827, 11648.35
718.4648, 11658.97
718.9470, 11650.19
719.4291, 11636.12
719.9112, 11646.49
720.3933, 11697.43
720.8754, 11752.95
721.3575, 11792.85
721.8397, 11822.83
722.3218, 11849.88
722.8039, 11854.38
723.2860, 11883.54
723.7681, 11955.15
724.2502, 12052.59
724.7324, 12127.81
725.2145, 12176.30
725.6966, 12218.39
726.1787, 12251.87
726.6608, 12287.81
727.1429, 12369.76
727.6251, 12493.47
728.1072, 12613.11
728.5893, 12703.20
729.0714, 12771.62
729.5535, 12824.52
730.0356, 12862.28
730.5178, 12897.14
730.9999, 12931.34
731.4820, 12966.75
731.9641, 13007.37
732.4462, 13063.97
732.9283, 13094.61
733.4105, 13088.49
733.8926, 13073.37
734.3747, 13077.13
734.8568, 13099.44
735.3389, 13123.40
735.8210, 13148.51
736.3032, 13168.31
736.7853, 13171.51
737.2674, 13163.30
737.7495, 13155.26
738.2316, 13164.92
738.7137, 13157.64
739.1959, 13097.56
739.6780, 13008.02
740.1601, 12942.63
740.6422, 12945.99
741.1243, 12931.36
741.6064, 12882.73
742.0886, 12803.86
742.5707, 12708.77
743.0528, 12595.80
743.5349, 12477.02
744.0170, 12352.55
744.4991, 12227.88
744.9813, 12120.75
745.4634, 12029.04
745.9455, 11935.49
746.4276, 11826.36
746.9097, 11712.85
747.3918, 11601.34
747.8740, 11490.18
748.3561, 11394.88
748.8382, 11325.41
749.3203, 11266.11
749.8024, 11209.04
750.2845, 11155.75
750.7667, 11097.86
751.2488, 11033.52
751.7309, 10968.18
752.2130, 10903.49
752.6951, 10842.33
753.1772, 10803.16
753.6594, 10794.86
754.1415, 10789.94
754.6236, 10760.17
755.1057, 10715.58
755.5878, 10671.26
756.0699, 10635.35
756.5521, 10598.25
757.0342, 10546.67
757.5163, 10493.99
757.9984, 10474.36
758.4805, 10511.55
758.9626, 10527.71
759.4448, 10494.91
759.9269, 10434.67
760.4090, 10422.31
760.8911, 10454.26
761.3732, 10473.62
761.8553, 10436.39
762.3375, 10377.60
762.8196, 10341.12
763.3017, 10324.15
763.7838, 10306.50
764.2659, 10268.48
764.7480, 10235.32
765.2302, 10224.84
765.7123, 10241.53
766.1944, 10244.77
766.6765, 10229.23
767.1586, 10208.41
767.6407, 10188.36
768.1229, 10169.04
768.6050, 10161.77
769.0871, 10168.38
769.5692, 10171.69
770.0513, 10147.90
770.5334, 10112.70
771.0156, 10094.85
771.4977, 10103.83
771.9798, 10106.35
772.4619, 10069.91
772.9440, 10026.46
773.4261, 10009.18
773.9083, 10053.37
774.3904, 10072.69
774.8725, 10056.35
775.3546, 10024.74
775.8367, 10005.49
776.3188, 9998.771
776.8010, 9990.938
777.2831, 9979.728
777.7652, 9965.381
778.2473, 9945.728
778.7294, 9923.438
779.2115, 9903.919
779.6937, 9886.672
780.1758, 9875.890
780.6579, 9875.879
781.1400, 9883.851
781.6221, 9891.066
782.1042, 9886.757
782.5864, 9897.993
783.0685, 9937.573
783.5506, 9994.721
784.0327, 10030.35
784.5148, 10043.97
784.9969, 10049.07
785.4791, 10049.74
785.9612, 10047.54
786.4433, 10047.09
786.9254, 10047.11
787.4075, 10040.60
787.8896, 10007.78
788.3718, 9981.519
788.8539, 9987.233
789.3360, 10029.41
789.8181, 10051.85
790.3002, 10042.59
790.7823, 10030.83
791.2645, 10031.45
791.7466, 10044.32
792.2287, 10062.99
792.7108, 10088.41
793.1929, 10104.91
793.6750, 10084.96
794.1572, 10053.10
794.6393, 10045.55
795.1214, 10067.22
795.6035, 10102.22
796.0856, 10166.68
796.5677, 10225.55
797.0499, 10246.78
797.5320, 10209.59
798.0141, 10184.09
798.4962, 10173.44
798.9783, 10169.25
799.4604, 10158.25
799.9426, 10142.39
800.4247, 10152.86
800.9068, 10198.23
801.3889, 10249.04
801.8710, 10282.77
802.3531, 10298.96
802.8353, 10292.97
803.3174, 10238.87
803.7995, 10208.89
804.2816, 10252.37
804.7637, 10323.31
805.2458, 10354.45
805.7280, 10319.79
806.2101, 10309.90
806.6922, 10341.05
807.1743, 10392.12
807.6564, 10426.61
808.1385, 10447.18
808.6207, 10469.62
809.1028, 10494.51
809.5849, 10529.51
810.0670, 10597.70
810.5491, 10679.33
811.0313, 10736.05
811.5134, 10713.45
811.9955, 10713.96
812.4776, 10793.79
812.9597, 10908.77
813.4418, 10940.85
813.9240, 10869.48
814.4061, 10800.92
814.8882, 10763.78
815.3703, 10751.79
815.8524, 10755.25
816.3345, 10772.73
816.8167, 10796.22
817.2988, 10833.43
817.7809, 10865.34
818.2630, 10884.46
818.7451, 10888.40
819.2272, 10867.63
819.7094, 10796.87
820.1915, 10726.21
820.6736, 10666.65
821.1556, 10617.67
821.6378, 10583.89
822.1199, 10566.92
822.6020, 10548.04
823.0841, 10516.51
823.5662, 10476.64
824.0483, 10427.09
824.5305, 10372.62
825.0126, 10337.00
825.4947, 10361.04
825.9768, 10383.64
826.4589, 10364.54
826.9410, 10300.17
827.4232, 10257.52
827.9053, 10251.36
828.3874, 10241.22
828.8695, 10201.31
829.3516, 10138.38
829.8337, 10104.59
830.3159, 10099.87
830.7980, 10101.17
831.2801, 10089.88
831.7622, 10077.08
832.2443, 10074.98
832.7264, 10084.37
833.2086, 10098.86
833.6907, 10124.19
834.1728, 10147.05
834.6549, 10160.79
835.1370, 10164.92
835.6191, 10167.42
836.1013, 10169.66
836.5834, 10165.77
837.0655, 10146.16
837.5476, 10117.49
838.0297, 10098.71
838.5118, 10090.77
838.9940, 10089.04
839.4761, 10082.24
839.9582, 10085.82
840.4403, 10119.86
840.9224, 10199.57
841.4045, 10245.27
841.8867, 10235.41
842.3688, 10213.57
842.8509, 10206.58
843.3330, 10214.71
843.8151, 10221.86
844.2972, 10227.47
844.7794, 10234.19
845.2615, 10249.41
845.7436, 10264.89
846.2257, 10266.42
846.7078, 10250.21
847.1899, 10238.35
847.6721, 10244.05
848.1542, 10254.21
848.6363, 10256.54
849.1184, 10242.11
849.6005, 10260.80
850.0826, 10324.23
850.5648, 10389.60
851.0469, 10417.97
851.5290, 10416.23
852.0111, 10403.07
852.4932, 10379.36
852.9753, 10357.81
853.4575, 10352.63
853.9396, 10351.22
854.4217, 10339.71
854.9038, 10306.90
855.3859, 10293.23
855.8680, 10309.82
856.3502, 10333.76
856.8323, 10346.18
857.3144, 10346.71
857.7965, 10356.41
858.2786, 10377.15
858.7607, 10398.83
859.2429, 10417.48
859.7250, 10428.90
860.2071, 10422.72
860.6892, 10392.72
861.1713, 10372.48
861.6534, 10397.67
862.1356, 10419.99
862.6177, 10398.50
863.0998, 10309.60
863.5819, 10272.04
864.0640, 10297.42
864.5461, 10334.01
865.0283, 10329.89
865.5104, 10299.10
865.9925, 10278.00
866.4746, 10270.22
866.9567, 10275.00
867.4388, 10313.14
867.9210, 10349.88
868.4031, 10352.04
868.8852, 10295.93
869.3673, 10264.33
869.8494, 10267.56
870.3315, 10280.10
870.8137, 10279.49
871.2958, 10268.19
871.7779, 10276.25
872.2600, 10306.60
872.7421, 10333.98
873.2242, 10329.62
873.7064, 10314.61
874.1885, 10311.49
874.6706, 10325.14
875.1527, 10340.37
875.6348, 10354.17
876.1169, 10367.75
876.5991, 10382.35
877.0812, 10398.39
877.5633, 10409.33
878.0454, 10414.59
878.5275, 10417.44
879.0096, 10418.93
879.4918, 10420.41
879.9739, 10425.77
880.4560, 10435.48
880.9381, 10441.26
881.4202, 10428.89
881.9023, 10419.66
882.3845, 10430.48
882.8666, 10465.01
883.3487, 10485.17
883.8308, 10486.22
884.3129, 10487.66
884.7950, 10508.91
885.2772, 10540.70
885.7593, 10554.17
886.2414, 10549.24
886.7235, 10539.30
887.2056, 10527.97
887.6877, 10518.84
888.1699, 10514.91
888.6520, 10516.97
889.1341, 10518.76
889.6162, 10516.71
890.0983, 10521.16
890.5804, 10539.47
891.0626, 10569.41
891.5447, 10597.56
892.0268, 10623.96
892.5089, 10643.93
892.9910, 10646.10
893.4731, 10646.81
893.9553, 10660.68
894.4374, 10687.21
894.9195, 10716.02
895.4016, 10760.66
895.8837, 10785.85
896.3658, 10770.15
896.8480, 10724.44
897.3301, 10716.31
897.8122, 10745.73
898.2943, 10773.40
898.7764, 10779.25
899.2585, 10770.45
899.7407, 10748.87
900.2228, 10718.94
900.7049, 10696.75
901.1870, 10691.43
901.6691, 10692.23
902.1512, 10701.36
902.6334, 10713.68
903.1155, 10709.38
903.5976, 10687.49
904.0797, 10657.08
904.5618, 10615.14
905.0439, 10574.25
905.5261, 10558.29
906.0082, 10559.31
906.4903, 10556.40
906.9724, 10535.56
907.4545, 10514.67
907.9366, 10499.29
908.4188, 10487.86
908.9009, 10476.06
909.3830, 10460.68
909.8651, 10460.97
910.3472, 10488.97
910.8293, 10519.04
911.3115, 10498.77
911.7936, 10447.33
912.2757, 10410.87
912.7578, 10413.95
913.2399, 10420.78
913.7220, 10416.68
914.2042, 10405.42
914.6863, 10391.54
915.1684, 10371.75
915.6505, 10360.16
916.1326, 10360.71
916.6147, 10362.61
917.0969, 10341.21
917.5790, 10309.35
918.0611, 10311.49
918.5432, 10365.69
919.0253, 10413.45
919.5074, 10411.42
919.9896, 10388.35
920.4717, 10371.15
920.9538, 10361.78
921.4359, 10360.40
921.9180, 10370.03
922.4001, 10381.48
922.8823, 10391.02
923.3644, 10395.64
923.8465, 10375.26
924.3286, 10327.52
924.8107, 10293.40
925.2928, 10319.34
925.7750, 10358.85
926.2571, 10373.74
926.7392, 10354.82
927.2213, 10346.84
927.7034, 10353.80
928.1855, 10338.30
928.6677, 10359.45
929.1498, 10373.41
929.6319, 10380.58
930.1140, 10360.59
930.5961, 10375.66
931.0782, 10376.69
931.5604, 10377.13
932.0425, 10397.15
932.5246, 10381.10
933.0067, 10400.81
933.4888, 10406.24
933.9709, 10418.20
934.4531, 10416.03
934.9352, 10418.22
935.4173, 10434.55
935.8994, 10443.06
936.3815, 10439.25
936.8636, 10451.63
937.3458, 10435.10
937.8279, 10455.76
938.3100, 10458.77
938.7921, 10469.14
939.2742, 10499.26
939.7563, 10515.87
940.2385, 10511.97
940.7206, 10496.06
941.2027, 10483.51
941.6848, 10473.16
942.1669, 10455.26
942.6490, 10420.41
943.1312, 10396.67
943.6133, 10413.96
944.0954, 10451.75
944.5775, 10485.47
945.0596, 10521.57
945.5417, 10529.51
946.0239, 10492.56
946.5060, 10454.77
946.9881, 10476.31
947.4702, 10541.48
947.9523, 10557.86
948.4344, 10512.95
948.9166, 10472.91
949.3987, 10503.30
949.8808, 10549.43
950.3629, 10562.50
950.8450, 10528.19
951.3271, 10508.85
951.8093, 10512.05
952.2914, 10517.04
952.7735, 10506.68
953.2556, 10487.69
953.7377, 10497.97
954.2198, 10533.88
954.7020, 10563.13
955.1841, 10569.67
955.6662, 10558.99
956.1483, 10521.96
956.6304, 10466.09
957.1125, 10440.29
957.5947, 10460.32
958.0768, 10474.93
958.5589, 10464.14
959.0410, 10444.27
959.5231, 10460.74
960.0052, 10503.74
960.4874, 10537.40
960.9695, 10537.47
961.4516, 10537.66
961.9337, 10562.59
962.4158, 10598.21
962.8979, 10617.86
963.3801, 10608.72
963.8622, 10617.64
964.3443, 10654.40
964.8264, 10696.76
965.3085, 10713.63
965.7906, 10712.56
966.2728, 10709.72
966.7549, 10704.86
967.2370, 10715.11
967.7191, 10757.45
968.2012, 10813.19
968.6833, 10867.03
969.1655, 10917.83
969.6476, 10974.84
970.1297, 11042.84
970.6118, 11098.43
971.0939, 11113.07
971.5760, 11107.63
972.0582, 11127.04
972.5403, 11169.69
973.0224, 11206.07
973.5045, 11208.59
973.9866, 11216.84
974.4688, 11253.53
974.9509, 11311.52
975.4330, 11352.96
975.9151, 11374.43
976.3972, 11413.48
976.8793, 11492.37
977.3615, 11585.81
977.8436, 11667.06
978.3257, 11733.76
978.8078, 11777.67
979.2899, 11752.21
979.7720, 11762.19
980.2542, 11847.99
980.7363, 11961.41
981.2184, 12034.65
981.7005, 12066.39
982.1826, 12109.26
982.6647, 12170.61
983.1469, 12239.78
983.6290, 12313.79
984.1111, 12384.84
984.5932, 12442.34
985.0753, 12478.39
985.5574, 12524.48
986.0395, 12593.74
986.5216, 12659.17
987.0037, 12696.75
987.4858, 12711.74
987.9680, 12764.05
988.4501, 12851.37
988.9322, 12940.57
989.4143, 13018.80
989.8964, 13082.86
990.3785, 13127.58
990.8607, 13155.28
991.3428, 13180.77
991.8249, 13205.13
992.3070, 13228.00
992.7891, 13249.14
993.2712, 13268.81
993.7534, 13288.12
994.2355, 13306.18
994.7176, 13321.18
995.1997, 13341.32
995.6818, 13341.86
996.1639, 13316.76
996.6461, 13259.32
997.1282, 13158.39
997.6103, 12990.78
998.0924, 12861.22
998.5745, 12779.36
999.0566, 12709.76
999.5388, 12614.14
1000.021, 12507.32
1000.503, 12417.96
1000.985, 12350.81
1001.467, 12278.67
1001.949, 12178.75
1002.431, 12084.00
1002.914, 12007.24
1003.396, 11948.46
1003.878, 11923.77
1004.360, 11934.21
1004.842, 11926.53
1005.324, 11855.50
1005.806, 11770.74
1006.288, 11724.61
1006.771, 11707.24
1007.253, 11692.71
1007.735, 11673.67
1008.217, 11660.29
1008.699, 11659.27
1009.181, 11657.43
1009.663, 11624.89
1010.145, 11570.00
1010.627, 11542.60
1011.110, 11554.77
1011.592, 11576.46
1012.074, 11587.53
1012.556, 11595.33
1013.038, 11608.37
1013.520, 11630.99
1014.002, 11637.66
1014.484, 11624.98
1014.966, 11607.15
1015.449, 11591.56
1015.931, 11578.36
1016.413, 11567.91
1016.895, 11560.22
1017.377, 11555.02
1017.859, 11548.16
1018.341, 11548.64
1018.823, 11562.81
1019.306, 11585.67
1019.788, 11606.69
1020.270, 11626.16
1020.752, 11639.56
1021.234, 11644.37
1021.716, 11646.90
1022.198, 11650.68
1022.680, 11658.32
1023.162, 11673.77
1023.645, 11701.41
1024.127, 11729.82
1024.609, 11760.47
1025.091, 11788.27
1025.573, 11813.25
1026.055, 11833.08
1026.537, 11821.44
1027.019, 11781.20
1027.502, 11759.55
1027.984, 11798.68
1028.466, 11855.32
1028.948, 11910.96
1029.430, 11961.18
1029.912, 11985.04
1030.394, 11970.13
1030.876, 11979.82
1031.359, 12043.69
1031.841, 12118.75
1032.323, 12121.18
1032.805, 12085.50
1033.287, 12083.32
1033.769, 12162.56
1034.251, 12227.45
1034.733, 12250.11
1035.215, 12256.32
1035.698, 12261.69
1036.180, 12266.28
1036.662, 12290.56
1037.144, 12335.81
1037.626, 12381.26
1038.108, 12414.78
1038.590, 12438.23
1039.072, 12447.43
1039.554, 12444.32
1040.037, 12457.52
1040.519, 12502.90
1041.001, 12526.39
1041.483, 12501.42
1041.965, 12457.89
1042.447, 12464.69
1042.929, 12502.54
1043.411, 12518.33
1043.894, 12485.16
1044.376, 12444.20
1044.858, 12403.12
1045.340, 12367.45
1045.822, 12341.80
1046.304, 12326.22
1046.786, 12324.89
1047.268, 12339.44
1047.750, 12349.36
1048.233, 12337.22
1048.715, 12312.23
1049.197, 12279.74
1049.679, 12241.30
1050.161, 12211.23
1050.643, 12192.33
1051.125, 12179.23
1051.607, 12172.73
1052.089, 12168.58
1052.572, 12154.79
1053.054, 12134.67
1053.536, 12118.43
1054.018, 12110.75
1054.500, 12104.97
1054.982, 12096.13
1055.464, 12089.17
1055.946, 12089.71
1056.429, 12099.80
1056.911, 12106.19
1057.393, 12109.13
1057.875, 12103.10
1058.357, 12066.64
1058.839, 12030.40
1059.321, 12034.15
1059.803, 12074.82
1060.286, 12107.22
1060.768, 12119.81
1061.250, 12132.24
1061.732, 12149.23
1062.214, 12168.61
1062.696, 12190.99
1063.178, 12212.12
1063.660, 12216.96
1064.142, 12195.38
1064.625, 12172.52
1065.107, 12150.47
1065.589, 12141.37
1066.071, 12159.18
1066.553, 12210.80
1067.035, 12239.72
1067.517, 12245.43
1067.999, 12240.48
1068.481, 12231.04
1068.964, 12218.28
1069.446, 12199.40
1069.928, 12177.52
1070.410, 12166.38
1070.892, 12168.77
1071.374, 12182.63
1071.856, 12213.65
1072.338, 12245.96
1072.820, 12241.62
1073.303, 12216.65
1073.785, 12218.12
1074.267, 12263.07
1074.749, 12305.35
1075.231, 12324.52
1075.713, 12331.09
1076.195, 12327.22
1076.677, 12312.80
1077.160, 12324.67
1077.642, 12362.82
1078.124, 12403.51
1078.606, 12443.64
1079.088, 12469.41
1079.570, 12456.38
1080.052, 12419.74
1080.534, 12401.10
1081.016, 12415.61
1081.499, 12420.24
1081.981, 12408.61
1082.463, 12391.01
1082.945, 12384.71
1083.427, 12380.69
1083.909, 12357.06
1084.391, 12309.36
1084.873, 12268.49
1085.355, 12251.81
1085.838, 12239.48
1086.320, 12226.30
1086.802, 12210.24
1087.284, 12178.45
1087.766, 12132.80
1088.248, 12089.09
1088.730, 12055.21
1089.212, 12023.70
1089.695, 11987.59
1090.177, 11952.07
1090.659, 11923.49
1091.141, 11899.60
1091.623, 11894.22
1092.105, 11911.09
1092.587, 11929.08
1093.069, 11937.40
1093.552, 11930.41
1094.034, 11890.49
1094.516, 11821.51
1094.998, 11769.19
1095.480, 11743.93
1095.962, 11737.76
1096.444, 11755.87
1096.926, 11784.02
1097.408, 11789.68
1097.891, 11779.13
1098.373, 11774.49
1098.855, 11787.91
1099.337, 11787.35
1099.819, 11734.50
1100.301, 11681.19
1100.783, 11671.02
1101.265, 11705.40
1101.747, 11700.97
1102.230, 11658.47
1102.712, 11628.07
1103.194, 11662.57
1103.676, 11703.77
1104.158, 11696.33
1104.640, 11659.23
1105.122, 11644.34
1105.604, 11659.27
1106.087, 11684.22
1106.569, 11721.14
1107.051, 11753.02
1107.533, 11754.47
1108.015, 11739.10
1108.497, 11724.81
1108.979, 11713.32
1109.461, 11711.41
1109.943, 11730.66
1110.426, 11744.07
1110.908, 11740.25
1111.390, 11724.61
1111.872, 11710.83
1112.354, 11699.71
1112.836, 11695.90
1113.318, 11709.76
1113.800, 11714.89
1114.282, 11686.21
1114.765, 11653.39
1115.247, 11646.55
1115.729, 11668.75
1116.211, 11676.08
1116.693, 11668.20
1117.175, 11659.67
1117.657, 11662.86
1118.139, 11668.12
1118.622, 11664.19
1119.104, 11655.83
1119.586, 11664.51
1120.068, 11702.66
1120.550, 11710.83
1121.032, 11673.90
1121.514, 11621.45
1121.996, 11582.17
1122.479, 11555.50
1122.961, 11540.98
1123.443, 11538.21
1123.925, 11551.11
1124.407, 11599.50
1124.889, 11623.62
1125.371, 11582.93
1125.853, 11510.82
1126.335, 11506.87
1126.818, 11551.43
1127.300, 11586.37
1127.782, 11580.46
1128.264, 11575.55
1128.746, 11587.74
1129.228, 11602.50
1129.710, 11608.17
1130.192, 11604.91
1130.674, 11589.93
1131.157, 11564.57
1131.639, 11555.69
1132.121, 11608.55
1132.603, 11656.22
1133.085, 11643.83
1133.567, 11595.79
1134.049, 11580.99
1134.531, 11603.18
1135.014, 11624.08
1135.496, 11638.48
1135.978, 11642.68
1136.460, 11623.73
1136.942, 11598.48
1137.424, 11586.27
1137.906, 11591.79
1138.388, 11588.63
1138.870, 11572.96
1139.353, 11563.25
1139.835, 11572.19
1140.317, 11585.83
1140.799, 11572.65
1141.281, 11548.21
1141.763, 11543.12
1142.245, 11589.42
1142.727, 11612.14
1143.209, 11594.97
1143.692, 11574.08
1144.174, 11580.75
1144.656, 11606.76
1145.138, 11629.48
1145.620, 11647.34
1146.102, 11655.67
1146.584, 11639.47
1147.066, 11629.51
1147.549, 11638.66
1148.031, 11654.39
1148.513, 11653.71
1148.995, 11639.61
1149.477, 11631.52
1149.959, 11632.50
1150.441, 11636.40
1150.923, 11644.47
1151.406, 11649.40
1151.888, 11645.05
1152.370, 11633.70
1152.852, 11621.43
1153.334, 11608.59
1153.816, 11617.97
1154.298, 11670.19
1154.780, 11717.23
1155.262, 11703.61
1155.745, 11668.12
1156.227, 11656.33
1156.709, 11673.02
1157.191, 11697.06
1157.673, 11730.19
1158.155, 11756.11
1158.637, 11753.75
1159.119, 11746.77
1159.601, 11771.74
1160.084, 11812.71
1160.566, 11828.45
1161.048, 11795.63
1161.530, 11780.42
1162.012, 11791.79
1162.494, 11807.51
1162.976, 11800.40
1163.458, 11784.19
1163.941, 11782.59
1164.423, 11795.41
1164.905, 11800.50
1165.387, 11776.01
1165.869, 11772.79
1166.351, 11809.30
1166.833, 11860.33
1167.315, 11882.29
1167.797, 11884.68
1168.280, 11889.90
1168.762, 11903.08
1169.244, 11913.51
1169.726, 11917.56
1170.208, 11917.44
1170.690, 11909.62
1171.172, 11900.22
1171.654, 11918.71
1172.136, 11956.56
1172.619, 11980.33
1173.101, 11963.27
1173.583, 11953.95
1174.065, 11980.30
1174.547, 12015.02
1175.029, 12041.42
1175.511, 12059.00
1175.993, 12054.98
1176.476, 12031.72
1176.958, 12014.51
1177.440, 12017.69
1177.922, 12032.12
1178.404, 12067.23
1178.886, 12103.89
1179.368, 12108.86
1179.850, 12081.18
1180.333, 12074.15
1180.815, 12094.35
1181.297, 12111.69
1181.779, 12092.93
1182.261, 12071.65
1182.743, 12075.54
1183.225, 12098.60
1183.707, 12111.34
1184.189, 12111.79
1184.672, 12132.09
1185.154, 12186.30
1185.636, 12234.23
1186.118, 12236.78
1186.600, 12213.63
1187.082, 12174.34
1187.564, 12118.14
1188.046, 12105.51
1188.528, 12142.40
1189.011, 12176.45
1189.493, 12183.56
1189.975, 12180.50
1190.457, 12191.27
1190.939, 12202.87
1191.421, 12193.61
1191.903, 12149.86
1192.385, 12121.41
1192.868, 12110.95
1193.350, 12103.35
1193.832, 12079.62
1194.314, 12059.30
1194.796, 12081.28
1195.278, 12127.29
1195.760, 12146.64
1196.242, 12112.27
1196.724, 12096.09
1197.207, 12104.96
1197.689, 12124.38
1198.171, 12147.89
1198.653, 12167.89
1199.135, 12170.41
1199.617, 12157.07
1200.099, 12146.55
1200.581, 12148.12
1201.063, 12137.00
1201.546, 12101.73
1202.028, 12068.86
1202.510, 12078.28
1202.992, 12115.38
1203.474, 12164.88
1203.956, 12226.14
1204.438, 12256.88
1204.920, 12231.80
1205.403, 12216.39
1205.885, 12237.20
1206.367, 12272.38
1206.849, 12283.99
1207.331, 12274.99
1207.813, 12244.46
1208.295, 12175.55
1208.777, 12146.79
1209.260, 12184.22
1209.742, 12229.27
1210.224, 12255.29
1210.706, 12264.41
1211.188, 12257.31
1211.670, 12239.19
1212.152, 12223.08
1212.634, 12203.03
1213.116, 12206.33
1213.599, 12248.93
1214.081, 12290.74
1214.563, 12293.25
1215.045, 12271.90
1215.527, 12279.63
1216.009, 12307.10
1216.491, 12314.70
1216.973, 12250.13
1217.455, 12216.15
1217.938, 12235.84
1218.420, 12242.89
1218.902, 12256.37
1219.384, 12262.67
1219.866, 12262.16
1220.348, 12234.50
1220.830, 12241.91
1221.312, 12235.26
1221.795, 12228.03
1222.277, 12240.37
1222.759, 12216.66
1223.241, 12228.69
1223.723, 12226.46
1224.205, 12230.75
1224.687, 12220.90
1225.169, 12215.42
1225.651, 12224.09
1226.134, 12237.56
1226.616, 12244.62
1227.098, 12255.22
1227.580, 12276.63
1228.062, 12299.49
1228.544, 12293.34
1229.026, 12242.66
1229.508, 12207.10
1229.990, 12220.66
1230.473, 12230.41
1230.955, 12209.87
1231.437, 12172.03
1231.919, 12150.63
1232.401, 12142.98
1232.883, 12142.04
1233.365, 12151.98
1233.847, 12152.78
1234.329, 12132.07
1234.812, 12114.78
1235.294, 12116.03
1235.776, 12133.32
1236.258, 12166.41
1236.740, 12209.40
1237.222, 12243.27
1237.704, 12275.08
1238.186, 12270.63
1238.669, 12209.54
1239.151, 12144.34
1239.633, 12122.65
1240.115, 12133.89
1240.597, 12166.58
1241.079, 12210.13
1241.561, 12222.77
1242.043, 12143.90
1242.526, 12098.50
1243.008, 12112.22
1243.490, 12147.60
1243.972, 12169.78
1244.454, 12179.33
1244.936, 12168.64
1245.418, 12141.92
1245.900, 12131.79
1246.382, 12171.95
1246.865, 12192.90
1247.347, 12177.23
1247.829, 12151.50
1248.311, 12159.43
1248.793, 12180.45
1249.275, 12169.50
1249.757, 12122.68
1250.239, 12097.54
1250.721, 12110.95
1251.204, 12132.75
1251.686, 12159.41
1252.168, 12183.03
1252.650, 12193.44
1253.132, 12191.67
1253.614, 12174.95
1254.096, 12140.39
1254.578, 12120.04
1255.061, 12116.74
1255.543, 12128.05
1256.025, 12161.52
1256.507, 12193.05
1256.989, 12174.76
1257.471, 12134.78
1257.953, 12115.43
1258.435, 12130.20
1258.917, 12141.03
1259.400, 12147.74
1259.882, 12148.35
1260.364, 12138.51
1260.846, 12127.07
1261.328, 12125.05
1261.810, 12129.44
1262.292, 12138.11
1262.774, 12156.24
1263.256, 12150.29
1263.739, 12115.39
1264.221, 12090.45
1264.703, 12105.73
1265.185, 12134.03
1265.667, 12155.66
1266.149, 12168.03
1266.631, 12164.46
1267.113, 12138.89
1267.596, 12126.17
1268.078, 12126.96
1268.560, 12130.74
1269.042, 12127.56
1269.524, 12127.06
1270.006, 12136.84
1270.488, 12154.79
1270.970, 12177.10
1271.453, 12204.82
1271.935, 12228.95
1272.417, 12249.24
1272.899, 12261.32
1273.381, 12262.33
1273.863, 12253.70
1274.345, 12228.17
1274.827, 12197.30
1275.309, 12179.06
1275.792, 12173.13
1276.274, 12171.58
1276.756, 12173.84
1277.238, 12182.09
1277.720, 12213.97
1278.202, 12232.85
1278.684, 12213.33
1279.166, 12178.77
1279.648, 12161.29
1280.131, 12161.95
##END=



