##NAMES=Tungstite
##RRUFFID=R050452
##IDEAL CHEMISTRY=WO_3_&#183;H_2_O
##LOCALITY=Sinaloa (near shared border with Chihuahua and Durango), Mexico
##OWNER=RRUFF
##SOURCE=University of Arizona Mineral Museum
##DESCRIPTION=Yellow massive
##STATUS=The identification of this mineral has been confirmed only by chemical analysis
##URL=rruff.info/R050452
##MEASURED CHEMISTRY=(W_0.95_Fe^3+^_0.05_)_Σ=1_(O_2.85_(OH)_0.15_)_Σ=3_·H_2_O; H_2_O estimated by difference; (OH) by charge balance
95.22955, 1509.996
95.71167, 1528.663
96.19379, 1538.759
96.67590, 1542.854
97.15803, 1543.084
97.64014, 1537.842
98.12226, 1529.307
98.60438, 1521.465
99.08649, 1516.342
99.56861, 1512.585
100.0507, 1507.500
100.5328, 1498.155
101.0150, 1488.789
101.4971, 1482.809
101.9792, 1480.315
102.4613, 1479.030
102.9434, 1478.071
103.4255, 1477.644
103.9077, 1478.108
104.3898, 1479.631
104.8719, 1481.788
105.3540, 1483.859
105.8361, 1486.163
106.3182, 1487.524
106.8004, 1488.142
107.2825, 1487.686
107.7646, 1485.159
108.2467, 1479.556
108.7288, 1471.307
109.2109, 1467.010
109.6931, 1471.208
110.1752, 1474.620
110.6573, 1475.145
111.1394, 1472.793
111.6215, 1468.223
112.1037, 1461.723
112.5858, 1452.807
113.0679, 1445.513
113.5500, 1442.196
114.0321, 1438.753
114.5142, 1432.195
114.9964, 1422.044
115.4785, 1409.885
115.9606, 1397.240
116.4427, 1384.150
116.9248, 1370.381
117.4069, 1354.422
117.8891, 1337.850
118.3712, 1323.921
118.8533, 1313.957
119.3354, 1305.987
119.8175, 1297.924
120.2996, 1289.772
120.7818, 1282.105
121.2639, 1274.913
121.7460, 1268.140
122.2281, 1263.300
122.7102, 1261.831
123.1923, 1261.775
123.6745, 1263.147
124.1566, 1265.696
124.6387, 1267.682
125.1208, 1265.760
125.6029, 1255.756
126.0850, 1250.968
126.5672, 1256.065
127.0493, 1263.767
127.5314, 1267.854
128.0135, 1265.920
128.4956, 1260.365
128.9778, 1257.908
129.4599, 1261.495
129.9420, 1265.244
130.4241, 1268.804
130.9062, 1272.285
131.3883, 1275.952
131.8705, 1280.018
132.3526, 1284.345
132.8347, 1288.175
133.3168, 1290.082
133.7989, 1293.001
134.2810, 1298.985
134.7632, 1307.498
135.2453, 1315.583
135.7274, 1320.959
136.2095, 1324.480
136.6916, 1329.403
137.1737, 1337.239
137.6559, 1345.744
138.1380, 1352.214
138.6201, 1356.089
139.1022, 1360.625
139.5843, 1369.663
140.0664, 1380.598
140.5486, 1389.376
141.0307, 1392.550
141.5128, 1392.656
141.9949, 1397.554
142.4770, 1410.615
142.9591, 1423.736
143.4413, 1433.175
143.9234, 1440.129
144.4055, 1446.851
144.8876, 1454.639
145.3697, 1463.468
145.8518, 1473.795
146.3340, 1488.367
146.8161, 1502.047
147.2982, 1512.407
147.7803, 1520.218
148.2624, 1527.992
148.7445, 1538.338
149.2267, 1551.813
149.7088, 1565.417
150.1909, 1579.984
150.6730, 1594.014
151.1551, 1605.485
151.6372, 1614.697
152.1194, 1624.793
152.6015, 1640.172
153.0836, 1664.134
153.5657, 1684.279
154.0478, 1697.791
154.5300, 1708.861
155.0121, 1721.398
155.4942, 1736.367
155.9763, 1752.755
156.4584, 1769.086
156.9405, 1785.153
157.4227, 1802.217
157.9048, 1820.179
158.3869, 1839.387
158.8690, 1861.086
159.3511, 1886.985
159.8332, 1913.446
160.3154, 1936.018
160.7975, 1954.680
161.2796, 1972.544
161.7617, 1990.879
162.2438, 2009.859
162.7259, 2030.227
163.2081, 2052.520
163.6902, 2076.333
164.1723, 2101.863
164.6544, 2129.300
165.1365, 2156.272
165.6186, 2179.793
166.1008, 2198.598
166.5829, 2219.302
167.0650, 2244.749
167.5471, 2271.251
168.0292, 2296.046
168.5113, 2318.554
168.9935, 2340.616
169.4756, 2365.262
169.9577, 2393.546
170.4398, 2422.910
170.9219, 2454.748
171.4040, 2486.444
171.8862, 2515.021
172.3683, 2539.532
172.8504, 2562.333
173.3325, 2589.401
173.8146, 2628.322
174.2967, 2662.163
174.7789, 2686.811
175.2610, 2707.402
175.7431, 2729.489
176.2252, 2755.760
176.7073, 2785.312
177.1894, 2815.200
177.6716, 2847.254
178.1537, 2877.538
178.6358, 2905.405
179.1179, 2931.078
179.6000, 2954.705
180.0822, 2975.353
180.5643, 2995.165
181.0464, 3020.822
181.5285, 3056.260
182.0106, 3091.071
182.4927, 3120.989
182.9749, 3146.361
183.4570, 3168.275
183.9391, 3185.314
184.4212, 3200.333
184.9033, 3219.184
185.3854, 3243.395
185.8676, 3269.058
186.3497, 3293.495
186.8318, 3316.706
187.3139, 3338.814
187.7960, 3360.785
188.2781, 3381.100
188.7603, 3397.243
189.2424, 3407.615
189.7245, 3416.323
190.2066, 3428.757
190.6887, 3445.767
191.1708, 3463.583
191.6530, 3481.201
192.1351, 3498.824
192.6172, 3517.113
193.0993, 3536.513
193.5814, 3555.483
194.0635, 3570.178
194.5457, 3577.585
195.0278, 3586.638
195.5099, 3600.602
195.9920, 3616.238
196.4741, 3630.236
196.9562, 3641.060
197.4384, 3649.933
197.9205, 3660.417
198.4026, 3672.639
198.8847, 3686.613
199.3668, 3704.267
199.8489, 3722.867
200.3311, 3738.934
200.8132, 3750.632
201.2953, 3759.484
201.7774, 3771.352
202.2595, 3790.609
202.7417, 3808.250
203.2238, 3822.424
203.7059, 3834.716
204.1880, 3847.098
204.6701, 3860.406
205.1522, 3875.110
205.6344, 3893.552
206.1165, 3920.456
206.5986, 3945.530
207.0807, 3966.268
207.5628, 3983.698
208.0449, 3999.358
208.5271, 4013.608
209.0092, 4027.273
209.4913, 4043.621
209.9734, 4064.290
210.4555, 4085.023
210.9376, 4105.393
211.4198, 4124.805
211.9019, 4141.302
212.3840, 4152.694
212.8661, 4161.326
213.3482, 4173.935
213.8303, 4192.828
214.3125, 4211.582
214.7946, 4225.243
215.2767, 4234.966
215.7588, 4246.927
216.2409, 4265.230
216.7230, 4286.525
217.2052, 4304.429
217.6873, 4317.298
218.1694, 4329.928
218.6515, 4345.345
219.1336, 4363.603
219.6157, 4384.638
220.0979, 4411.611
220.5800, 4439.487
221.0621, 4462.605
221.5442, 4479.759
222.0263, 4494.616
222.5084, 4510.183
222.9906, 4526.513
223.4727, 4543.738
223.9548, 4563.725
224.4369, 4583.418
224.9190, 4599.964
225.4011, 4612.815
225.8833, 4624.623
226.3654, 4639.397
226.8475, 4658.259
227.3296, 4674.300
227.8117, 4681.149
228.2939, 4687.811
228.7760, 4702.082
229.2581, 4725.095
229.7402, 4747.935
230.2223, 4757.371
230.7044, 4748.290
231.1866, 4742.080
231.6687, 4742.694
232.1508, 4745.412
232.6329, 4747.842
233.1150, 4749.386
233.5971, 4750.445
234.0793, 4751.682
234.5614, 4753.581
235.0435, 4754.431
235.5256, 4756.309
236.0077, 4755.889
236.4898, 4749.140
236.9720, 4736.377
237.4541, 4722.895
237.9362, 4716.369
238.4183, 4721.097
238.9004, 4722.526
239.3825, 4721.589
239.8647, 4717.394
240.3468, 4707.296
240.8289, 4691.984
241.3110, 4676.692
241.7931, 4668.518
242.2752, 4672.887
242.7574, 4668.081
243.2395, 4647.456
243.7216, 4624.090
244.2037, 4606.411
244.6858, 4595.306
245.1679, 4586.135
245.6501, 4573.933
246.1322, 4558.111
246.6143, 4540.769
247.0964, 4520.352
247.5785, 4499.688
248.0606, 4481.193
248.5428, 4464.845
249.0249, 4448.138
249.5070, 4428.755
249.9891, 4406.153
250.4712, 4382.675
250.9533, 4358.847
251.4355, 4333.812
251.9176, 4306.014
252.3997, 4275.766
252.8818, 4245.808
253.3639, 4218.912
253.8461, 4195.038
254.3282, 4169.294
254.8103, 4142.395
255.2924, 4113.161
255.7745, 4079.197
256.2566, 4041.139
256.7387, 4004.749
257.2209, 3974.618
257.7030, 3950.117
258.1851, 3924.033
258.6672, 3895.560
259.1493, 3866.246
259.6314, 3837.149
260.1136, 3808.202
260.5957, 3778.667
261.0778, 3747.157
261.5599, 3714.972
262.0420, 3685.197
262.5241, 3657.940
263.0063, 3632.965
263.4884, 3610.937
263.9705, 3591.520
264.4526, 3571.765
264.9348, 3550.442
265.4169, 3527.870
265.8990, 3505.250
266.3811, 3482.501
266.8632, 3459.487
267.3453, 3434.900
267.8275, 3409.287
268.3096, 3386.868
268.7917, 3371.359
269.2738, 3358.072
269.7559, 3340.093
270.2380, 3316.280
270.7202, 3293.560
271.2023, 3277.690
271.6844, 3267.731
272.1665, 3256.983
272.6486, 3243.611
273.1307, 3229.073
273.6129, 3214.828
274.0950, 3200.795
274.5771, 3186.866
275.0592, 3172.623
275.5413, 3158.203
276.0234, 3144.439
276.5056, 3130.543
276.9877, 3118.697
277.4698, 3111.455
277.9519, 3107.878
278.4340, 3103.167
278.9161, 3093.518
279.3983, 3080.086
279.8804, 3067.834
280.3625, 3057.196
280.8446, 3047.679
281.3267, 3038.931
281.8088, 3030.919
282.2910, 3023.573
282.7731, 3017.595
283.2552, 3012.241
283.7373, 3004.721
284.2194, 2993.531
284.7015, 2982.979
285.1837, 2975.558
285.6658, 2969.814
286.1479, 2963.468
286.6300, 2955.145
287.1121, 2945.976
287.5942, 2939.043
288.0764, 2935.979
288.5585, 2931.230
289.0406, 2920.119
289.5227, 2907.507
290.0048, 2898.915
290.4869, 2896.633
290.9691, 2897.600
291.4512, 2896.919
291.9333, 2894.597
292.4154, 2890.609
292.8975, 2883.885
293.3796, 2876.216
293.8618, 2868.816
294.3439, 2861.998
294.8260, 2855.567
295.3081, 2849.000
295.7902, 2841.956
296.2723, 2836.445
296.7545, 2835.641
297.2366, 2834.446
297.7187, 2829.003
298.2008, 2819.386
298.6829, 2809.598
299.1650, 2804.442
299.6472, 2804.551
300.1293, 2803.039
300.6114, 2800.185
301.0935, 2794.784
301.5756, 2785.218
302.0577, 2772.346
302.5399, 2758.700
303.0220, 2745.851
303.5041, 2733.869
303.9862, 2724.028
304.4683, 2718.790
304.9504, 2712.927
305.4326, 2704.539
305.9147, 2694.240
306.3968, 2682.999
306.8789, 2670.852
307.3610, 2658.557
307.8431, 2649.899
308.3253, 2647.737
308.8074, 2644.868
309.2895, 2639.372
309.7716, 2632.121
310.2537, 2624.132
310.7358, 2615.773
311.2180, 2607.069
311.7001, 2597.748
312.1822, 2586.172
312.6643, 2577.581
313.1465, 2574.192
313.6286, 2572.973
314.1107, 2571.615
314.5928, 2569.467
315.0749, 2567.248
315.5570, 2566.780
316.0392, 2569.616
316.5213, 2568.395
317.0034, 2555.517
317.4855, 2543.625
317.9676, 2541.479
318.4497, 2548.705
318.9319, 2557.115
319.4140, 2557.598
319.8961, 2549.014
320.3782, 2543.894
320.8603, 2544.029
321.3424, 2546.392
321.8246, 2550.950
322.3067, 2556.887
322.7888, 2562.661
323.2709, 2567.099
323.7530, 2570.374
324.2351, 2573.541
324.7173, 2576.133
325.1994, 2579.332
325.6815, 2583.813
326.1636, 2588.973
326.6457, 2593.762
327.1278, 2597.391
327.6100, 2601.002
328.0921, 2607.993
328.5742, 2620.944
329.0563, 2631.638
329.5384, 2636.875
330.0205, 2640.040
330.5027, 2644.616
330.9848, 2651.595
331.4669, 2657.799
331.9490, 2657.569
332.4311, 2648.654
332.9132, 2643.250
333.3954, 2647.987
333.8775, 2653.196
334.3596, 2653.366
334.8417, 2648.381
335.3238, 2641.923
335.8059, 2636.506
336.2881, 2632.091
336.7702, 2630.628
337.2523, 2633.171
337.7344, 2637.898
338.2165, 2644.336
338.6986, 2652.152
339.1808, 2660.787
339.6629, 2669.982
340.1450, 2679.708
340.6271, 2689.902
341.1092, 2700.420
341.5913, 2711.687
342.0735, 2724.765
342.5556, 2738.278
343.0377, 2750.009
343.5198, 2758.464
344.0019, 2766.889
344.4840, 2781.442
344.9662, 2804.062
345.4483, 2824.680
345.9304, 2837.921
346.4125, 2849.397
346.8946, 2862.608
347.3767, 2878.214
347.8589, 2895.138
348.3410, 2911.976
348.8231, 2928.843
349.3052, 2948.112
349.7873, 2972.867
350.2694, 2997.056
350.7516, 3015.384
351.2337, 3029.192
351.7158, 3043.977
352.1979, 3064.241
352.6800, 3088.189
353.1621, 3109.849
353.6443, 3128.946
354.1264, 3146.089
354.6085, 3159.649
355.0906, 3171.972
355.5727, 3187.029
356.0548, 3207.653
356.5370, 3229.756
357.0191, 3247.727
357.5012, 3261.176
357.9833, 3273.926
358.4654, 3287.593
358.9475, 3301.220
359.4297, 3313.702
359.9118, 3324.988
360.3939, 3335.111
360.8760, 3344.466
361.3581, 3352.789
361.8402, 3358.816
362.3224, 3361.841
362.8045, 3362.941
363.2866, 3363.577
363.7687, 3363.686
364.2509, 3361.837
364.7330, 3357.549
365.2151, 3350.899
365.6972, 3341.493
366.1793, 3328.912
366.6614, 3315.670
367.1436, 3303.841
367.6257, 3292.829
368.1078, 3280.826
368.5899, 3266.896
369.0720, 3252.408
369.5541, 3237.648
370.0363, 3222.919
370.5184, 3210.949
371.0005, 3204.578
371.4826, 3200.328
371.9647, 3190.198
372.4468, 3172.629
372.9290, 3154.146
373.4111, 3136.386
373.8932, 3119.559
374.3753, 3104.389
374.8574, 3091.075
375.3395, 3079.317
375.8217, 3069.171
376.3038, 3060.816
376.7859, 3052.414
377.2680, 3041.759
377.7501, 3032.354
378.2322, 3029.386
378.7144, 3032.045
379.1965, 3031.929
379.6786, 3021.611
380.1607, 3002.453
380.6428, 2990.272
381.1249, 2990.122
381.6071, 2990.334
382.0892, 2988.109
382.5713, 2983.187
383.0534, 2973.916
383.5355, 2959.049
384.0176, 2943.142
384.4998, 2936.166
384.9819, 2946.408
385.4640, 2952.448
385.9461, 2952.047
386.4282, 2948.397
386.9103, 2943.379
387.3925, 2937.710
387.8746, 2932.200
388.3567, 2927.846
388.8388, 2924.868
389.3209, 2921.506
389.8030, 2917.546
390.2852, 2913.474
390.7673, 2909.573
391.2494, 2905.692
391.7315, 2901.667
392.2136, 2897.477
392.6957, 2892.803
393.1779, 2886.374
393.6600, 2875.633
394.1421, 2866.768
394.6242, 2862.141
395.1063, 2858.414
395.5884, 2852.292
396.0706, 2843.082
396.5527, 2833.068
397.0348, 2825.510
397.5169, 2821.479
397.9990, 2815.741
398.4811, 2808.155
398.9633, 2798.935
399.4454, 2786.928
399.9275, 2773.223
400.4096, 2760.272
400.8917, 2750.179
401.3738, 2742.017
401.8560, 2731.734
402.3381, 2718.635
402.8202, 2704.691
403.3023, 2690.360
403.7844, 2675.637
404.2665, 2659.698
404.7487, 2642.088
405.2308, 2625.882
405.7129, 2615.919
406.1950, 2612.537
406.6771, 2608.183
407.1592, 2602.350
407.6414, 2594.204
408.1235, 2582.040
408.6056, 2566.688
409.0877, 2552.478
409.5698, 2542.713
410.0519, 2535.771
410.5341, 2527.301
411.0162, 2516.456
411.4983, 2507.080
411.9804, 2503.004
412.4626, 2501.641
412.9447, 2498.810
413.4268, 2493.476
413.9089, 2487.173
414.3910, 2481.361
414.8731, 2475.741
415.3553, 2468.234
415.8374, 2456.771
416.3195, 2445.523
416.8016, 2442.075
417.2837, 2446.792
417.7658, 2449.441
418.2480, 2446.842
418.7301, 2441.031
419.2122, 2432.944
419.6943, 2422.961
420.1764, 2414.850
420.6585, 2412.041
421.1407, 2414.086
421.6228, 2414.826
422.1049, 2412.894
422.5870, 2411.280
423.0691, 2411.802
423.5512, 2413.349
424.0334, 2413.753
424.5155, 2412.123
424.9976, 2409.433
425.4797, 2407.526
425.9618, 2407.083
426.4439, 2406.103
426.9261, 2404.651
427.4082, 2402.668
427.8903, 2399.752
428.3724, 2396.157
428.8545, 2392.674
429.3366, 2389.765
429.8188, 2387.508
430.3009, 2387.625
430.7830, 2393.409
431.2651, 2398.063
431.7472, 2400.808
432.2293, 2401.733
432.7115, 2400.099
433.1936, 2395.769
433.6757, 2391.315
434.1578, 2391.671
434.6399, 2398.862
435.1220, 2403.580
435.6042, 2403.809
436.0863, 2402.402
436.5684, 2399.535
437.0505, 2395.960
437.5326, 2393.365
438.0147, 2392.660
438.4969, 2393.893
438.9790, 2397.833
439.4611, 2405.940
439.9432, 2413.036
440.4253, 2416.627
440.9074, 2418.315
441.3896, 2419.661
441.8717, 2421.094
442.3538, 2421.734
442.8359, 2419.403
443.3180, 2415.010
443.8001, 2414.460
444.2823, 2420.193
444.7644, 2427.662
445.2465, 2433.253
445.7286, 2437.126
446.2107, 2438.864
446.6928, 2434.819
447.1750, 2430.966
447.6571, 2435.215
448.1392, 2446.671
448.6213, 2455.999
449.1034, 2457.589
449.5855, 2454.346
450.0677, 2454.562
450.5498, 2459.881
451.0319, 2464.452
451.5140, 2464.604
451.9961, 2464.206
452.4782, 2468.773
452.9604, 2479.083
453.4425, 2490.786
453.9246, 2499.695
454.4067, 2505.728
454.8888, 2509.459
455.3709, 2507.463
455.8531, 2507.269
456.3352, 2512.619
456.8173, 2521.419
457.2994, 2530.455
457.7815, 2538.227
458.2636, 2544.593
458.7458, 2549.012
459.2279, 2549.893
459.7100, 2552.201
460.1921, 2556.424
460.6742, 2561.627
461.1564, 2568.117
461.6385, 2575.277
462.1206, 2581.240
462.6027, 2583.944
463.0848, 2584.372
463.5670, 2588.212
464.0491, 2597.954
464.5312, 2605.904
465.0133, 2607.170
465.4954, 2606.579
465.9775, 2609.502
466.4597, 2617.403
466.9418, 2625.628
467.4239, 2628.876
467.9060, 2628.112
468.3881, 2630.192
468.8702, 2637.091
469.3524, 2645.097
469.8345, 2651.549
470.3166, 2656.694
470.7987, 2660.814
471.2808, 2662.409
471.7629, 2664.289
472.2451, 2670.033
472.7272, 2678.747
473.2093, 2685.542
473.6914, 2687.978
474.1735, 2688.194
474.6556, 2690.305
475.1378, 2694.691
475.6199, 2699.308
476.1020, 2704.937
476.5841, 2709.938
477.0662, 2712.138
477.5483, 2711.860
478.0305, 2712.013
478.5126, 2715.000
478.9947, 2720.315
479.4768, 2723.482
479.9589, 2719.999
480.4410, 2719.893
480.9232, 2727.559
481.4053, 2737.591
481.8874, 2744.519
482.3695, 2747.011
482.8516, 2747.082
483.3337, 2746.313
483.8159, 2744.115
484.2980, 2746.369
484.7801, 2759.265
485.2622, 2769.620
485.7443, 2771.946
486.2264, 2769.012
486.7086, 2765.040
487.1907, 2761.426
487.6728, 2758.757
488.1549, 2758.086
488.6370, 2759.524
489.1191, 2761.321
489.6013, 2763.183
490.0834, 2765.230
490.5655, 2767.754
491.0476, 2770.654
491.5297, 2773.146
492.0118, 2774.125
492.4940, 2774.990
492.9761, 2778.134
493.4582, 2783.444
493.9403, 2787.671
494.4224, 2788.828
494.9045, 2788.151
495.3867, 2788.910
495.8688, 2791.983
496.3509, 2794.058
496.8330, 2793.393
497.3151, 2791.893
497.7972, 2791.503
498.2794, 2792.450
498.7615, 2794.045
499.2436, 2795.776
499.7257, 2797.609
500.2078, 2799.194
500.6899, 2799.815
501.1721, 2801.039
501.6542, 2804.625
502.1363, 2808.188
502.6184, 2808.524
503.1005, 2805.093
503.5826, 2800.974
504.0648, 2800.499
504.5469, 2804.282
505.0290, 2805.559
505.5111, 2802.260
505.9932, 2798.983
506.4753, 2797.142
506.9575, 2796.616
507.4396, 2797.606
507.9217, 2800.780
508.4038, 2803.501
508.8859, 2801.510
509.3680, 2795.144
509.8502, 2790.532
510.3323, 2788.711
510.8144, 2789.457
511.2965, 2795.021
511.7787, 2804.014
512.2607, 2808.044
512.7429, 2801.885
513.2250, 2792.433
513.7071, 2784.052
514.1892, 2777.223
514.6713, 2773.479
515.1534, 2773.969
515.6356, 2776.547
516.1177, 2777.100
516.5998, 2775.433
517.0819, 2771.933
517.5640, 2764.640
518.0461, 2757.158
518.5283, 2751.864
519.0104, 2748.643
519.4925, 2746.729
519.9746, 2745.902
520.4567, 2745.167
520.9388, 2740.353
521.4210, 2727.500
521.9031, 2717.989
522.3852, 2715.356
522.8673, 2714.337
523.3494, 2711.302
523.8315, 2706.080
524.3137, 2700.607
524.7958, 2696.500
525.2779, 2693.306
525.7600, 2689.789
526.2421, 2686.262
526.7242, 2681.195
527.2064, 2672.339
527.6885, 2662.415
528.1706, 2655.036
528.6527, 2650.913
529.1348, 2646.908
529.6169, 2641.190
530.0991, 2634.637
530.5812, 2628.490
531.0633, 2622.920
531.5454, 2618.113
532.0275, 2614.389
532.5096, 2611.550
532.9918, 2608.265
533.4739, 2604.061
533.9560, 2600.119
534.4381, 2596.733
534.9202, 2593.700
535.4024, 2590.577
535.8845, 2587.415
536.3666, 2585.045
536.8488, 2584.705
537.3309, 2586.378
537.8130, 2585.195
538.2951, 2577.746
538.7772, 2571.865
539.2593, 2569.908
539.7415, 2570.021
540.2236, 2570.603
540.7057, 2571.179
541.1878, 2571.230
541.6699, 2570.184
542.1520, 2568.124
542.6342, 2565.398
543.1163, 2561.618
543.5984, 2558.196
544.0805, 2556.404
544.5626, 2555.555
545.0447, 2554.291
545.5269, 2551.839
546.0090, 2550.113
546.4911, 2552.013
546.9732, 2555.023
547.4553, 2553.239
547.9374, 2545.346
548.4196, 2537.319
548.9017, 2535.598
549.3838, 2540.424
549.8659, 2539.646
550.3480, 2528.757
550.8301, 2518.692
551.3123, 2513.094
551.7944, 2509.713
552.2765, 2505.588
552.7586, 2499.975
553.2407, 2494.290
553.7228, 2490.585
554.2050, 2489.059
554.6871, 2485.950
555.1692, 2482.061
555.6513, 2475.208
556.1334, 2463.175
556.6155, 2448.722
557.0977, 2434.993
557.5798, 2422.718
558.0619, 2412.001
558.5440, 2405.238
559.0261, 2400.432
559.5082, 2388.904
559.9904, 2368.234
560.4725, 2346.676
560.9546, 2330.712
561.4367, 2319.344
561.9188, 2306.310
562.4009, 2290.818
562.8831, 2274.683
563.3652, 2259.376
563.8473, 2243.448
564.3294, 2223.460
564.8115, 2199.281
565.2936, 2176.439
565.7758, 2161.258
566.2579, 2153.729
566.7400, 2140.185
567.2221, 2114.238
567.7042, 2089.705
568.1863, 2068.546
568.6685, 2050.145
569.1506, 2034.767
569.6327, 2022.159
570.1148, 2009.791
570.5969, 1995.035
571.0790, 1978.304
571.5612, 1962.714
572.0433, 1949.046
572.5254, 1934.201
573.0075, 1915.266
573.4896, 1894.794
573.9717, 1876.291
574.4539, 1860.256
574.9360, 1845.707
575.4181, 1833.720
575.9002, 1822.248
576.3823, 1807.676
576.8644, 1789.892
577.3466, 1772.785
577.8287, 1759.119
578.3108, 1748.350
578.7929, 1737.801
579.2750, 1728.878
579.7571, 1718.235
580.2393, 1704.018
580.7214, 1689.323
581.2035, 1676.483
581.6856, 1665.626
582.1677, 1655.366
582.6498, 1644.798
583.1320, 1633.993
583.6141, 1623.559
584.0962, 1613.810
584.5783, 1603.174
585.0604, 1590.305
585.5425, 1577.024
586.0247, 1564.613
586.5068, 1553.112
586.9889, 1542.692
587.4710, 1534.110
587.9531, 1526.205
588.4352, 1517.738
588.9174, 1508.744
589.3995, 1499.413
589.8816, 1489.745
590.3637, 1480.111
590.8458, 1471.141
591.3279, 1463.310
591.8101, 1454.759
592.2922, 1444.831
592.7743, 1434.816
593.2564, 1425.489
593.7385, 1416.591
594.2206, 1407.768
594.7028, 1398.906
595.1849, 1389.418
595.6670, 1377.773
596.1491, 1363.369
596.6312, 1351.451
597.1133, 1343.856
597.5955, 1336.749
598.0776, 1327.440
598.5597, 1317.200
599.0418, 1308.612
599.5239, 1302.920
600.0060, 1297.649
600.4882, 1290.986
600.9703, 1283.240
601.4524, 1274.943
601.9345, 1266.191
602.4166, 1257.317
602.8987, 1248.664
603.3809, 1240.193
603.8630, 1231.903
604.3451, 1222.644
604.8272, 1214.942
605.3093, 1211.564
605.7914, 1208.533
606.2736, 1200.946
606.7557, 1188.920
607.2378, 1177.322
607.7199, 1170.509
608.2020, 1167.427
608.6841, 1163.054
609.1663, 1157.296
609.6484, 1150.521
610.1305, 1141.547
610.6126, 1132.507
611.0947, 1125.179
611.5768, 1119.606
612.0590, 1114.932
612.5411, 1111.695
613.0232, 1108.506
613.5053, 1103.816
613.9874, 1097.745
614.4695, 1090.599
614.9517, 1082.167
615.4338, 1074.053
615.9159, 1069.144
616.3980, 1069.294
616.8801, 1066.252
617.3622, 1056.820
617.8444, 1047.917
618.3265, 1042.608
618.8086, 1039.705
619.2907, 1037.559
619.7728, 1035.501
620.2549, 1032.740
620.7371, 1027.936
621.2192, 1021.175
621.7013, 1014.502
622.1834, 1007.366
622.6655, 1001.820
623.1476, 1000.845
623.6298, 1001.686
624.1119, 999.6243
624.5940, 993.2961
625.0761, 987.0122
625.5582, 982.9136
626.0403, 979.8759
626.5225, 976.9717
627.0046, 973.8812
627.4867, 969.5831
627.9688, 963.0754
628.4509, 955.5912
628.9330, 951.2441
629.4152, 953.0829
629.8973, 952.5405
630.3794, 948.2414
630.8615, 942.8688
631.3436, 937.3063
631.8257, 931.9395
632.3079, 927.2082
632.7900, 923.2718
633.2721, 920.1346
633.7542, 918.2565
634.2364, 917.4331
634.7185, 915.6401
635.2006, 912.1642
635.6827, 908.6759
636.1649, 907.1837
636.6470, 907.1867
637.1291, 905.0073
637.6112, 897.6720
638.0933, 891.7390
638.5754, 891.0568
639.0576, 891.9645
639.5397, 889.8618
640.0218, 884.4388
640.5039, 878.8832
640.9860, 875.7826
641.4681, 874.6849
641.9503, 873.4316
642.4324, 872.2887
642.9145, 870.3060
643.3966, 866.3529
643.8787, 862.1938
644.3608, 859.1458
644.8430, 857.0308
645.3251, 854.6890
645.8072, 851.3771
646.2893, 847.8481
646.7714, 845.2310
647.2535, 843.0809
647.7357, 839.7573
648.2178, 834.7489
648.6999, 829.2658
649.1820, 824.6343
649.6641, 820.8537
650.1462, 817.7424
650.6284, 816.2016
651.1105, 814.1617
651.5926, 810.4178
652.0747, 806.4700
652.5568, 804.0264
653.0389, 803.1740
653.5211, 802.5458
654.0032, 801.1569
654.4853, 799.1107
654.9674, 796.6666
655.4495, 793.8181
655.9316, 790.5638
656.4138, 786.5354
656.8959, 782.5698
657.3780, 780.2576
657.8601, 779.5677
658.3422, 777.5141
658.8243, 771.9863
659.3065, 766.7787
659.7886, 764.1278
660.2707, 763.1566
660.7528, 762.6345
661.2349, 762.0756
661.7170, 760.9147
662.1992, 758.4227
662.6813, 754.6530
663.1634, 750.6891
663.6455, 745.6163
664.1276, 742.0988
664.6097, 742.8112
665.0919, 744.2680
665.5740, 743.2340
666.0561, 739.5656
666.5382, 735.8129
667.0203, 732.5595
667.5024, 730.1967
667.9846, 730.0134
668.4667, 731.1998
668.9488, 730.7075
669.4309, 727.3363
669.9130, 723.1573
670.3951, 721.1452
670.8773, 721.8520
671.3594, 720.2525
671.8415, 713.0273
672.3236, 707.3950
672.8057, 705.4219
673.2878, 705.4816
673.7700, 706.5356
674.2521, 708.1059
674.7342, 708.6979
675.2163, 706.8063
675.6984, 703.2944
676.1805, 699.5211
676.6627, 695.5209
677.1448, 692.4598
677.6269, 690.8268
678.1090, 690.2139
678.5911, 690.4235
679.0732, 691.9000
679.5554, 691.2976
680.0375, 686.3683
680.5196, 681.9916
681.0017, 680.4464
681.4838, 680.2882
681.9659, 679.4905
682.4481, 677.6899
682.9302, 676.2929
683.4123, 677.1006
683.8944, 679.3010
684.3765, 679.2700
684.8586, 676.5198
685.3408, 674.4429
685.8229, 674.3538
686.3050, 675.2540
686.7871, 676.0267
687.2692, 676.6754
687.7513, 677.2560
688.2335, 678.1920
688.7156, 678.6218
689.1977, 677.4747
689.6798, 675.7448
690.1619, 675.4888
690.6440, 676.9203
691.1262, 677.5029
691.6083, 674.1150
692.0904, 667.6801
692.5725, 665.0732
693.0546, 667.5653
693.5367, 670.2270
694.0189, 671.9515
694.5010, 673.1177
694.9831, 674.2665
695.4652, 675.2954
695.9473, 675.3569
696.4294, 672.8522
696.9116, 670.6483
697.3937, 670.8793
697.8758, 672.7543
698.3579, 675.1318
698.8400, 677.6102
699.3221, 679.6115
699.8043, 680.5178
700.2864, 680.4609
700.7685, 680.3483
701.2506, 679.6490
701.7327, 680.0093
702.2148, 682.4695
702.6970, 685.4987
703.1791, 688.7003
703.6612, 691.7067
704.1433, 693.3834
704.6254, 692.1989
705.1075, 690.9967
705.5897, 692.9482
706.0718, 696.4054
706.5539, 697.4929
707.0360, 695.6354
707.5181, 693.7377
708.0002, 694.1801
708.4824, 696.5468
708.9645, 698.7517
709.4466, 700.8068
709.9287, 702.7028
710.4108, 704.1654
710.8929, 705.7414
711.3751, 708.1866
711.8572, 710.9768
712.3393, 712.5875
712.8214, 711.9506
713.3035, 711.3957
713.7856, 713.3776
714.2678, 716.8054
714.7499, 718.9637
715.2320, 719.6171
715.7141, 721.5382
716.1962, 726.8702
716.6783, 734.1251
717.1605, 738.8266
717.6426, 739.8778
718.1247, 740.4286
718.6068, 739.8402
719.0889, 739.4536
719.5710, 739.8958
720.0532, 740.9482
720.5353, 742.0814
721.0174, 743.0762
721.4995, 744.6801
721.9816, 748.4114
722.4637, 752.8727
722.9459, 755.0118
723.4280, 754.8022
723.9101, 754.3655
724.3922, 754.6088
724.8743, 755.7018
725.3564, 758.1233
725.8386, 762.5863
726.3207, 765.8165
726.8028, 766.8912
727.2849, 767.8649
727.7670, 769.0006
728.2491, 770.5720
728.7313, 773.0386
729.2134, 776.4466
729.6955, 779.8881
730.1776, 782.9537
730.6597, 785.5458
731.1418, 787.3931
731.6240, 788.5780
732.1061, 789.4979
732.5882, 790.2404
733.0704, 791.1165
733.5525, 792.5408
734.0346, 794.5433
734.5167, 796.4120
734.9988, 796.8512
735.4810, 798.9207
735.9631, 805.2777
736.4452, 811.7562
736.9273, 814.2918
737.4094, 813.3640
737.8915, 813.0909
738.3737, 816.0675
738.8558, 819.9718
739.3379, 821.8661
739.8200, 822.5747
740.3021, 824.9521
740.7842, 829.5566
741.2664, 834.1940
741.7485, 837.1375
742.2306, 838.6522
742.7127, 839.9233
743.1948, 840.0257
743.6769, 841.6014
744.1591, 845.5052
744.6412, 850.0978
745.1233, 855.2200
745.6054, 860.2489
746.0875, 863.9754
746.5696, 865.7904
747.0518, 867.1693
747.5339, 869.4963
748.0160, 871.9959
748.4981, 873.0558
748.9802, 872.7825
749.4623, 872.5303
749.9445, 872.8890
750.4266, 874.2894
750.9087, 877.7703
751.3908, 884.0189
751.8729, 889.1066
752.3550, 893.0127
752.8372, 895.7743
753.3193, 896.5007
753.8014, 896.7009
754.2835, 898.2695
754.7656, 901.3844
755.2477, 904.0099
755.7299, 904.8084
756.2120, 905.0233
756.6941, 906.2374
757.1762, 907.7635
757.6583, 907.4907
758.1404, 904.9710
758.6226, 902.3868
759.1047, 901.8844
759.5868, 903.2316
760.0689, 904.9473
760.5510, 907.3220
761.0331, 909.2740
761.5153, 910.3957
761.9974, 911.2560
762.4795, 912.2968
762.9616, 913.4242
763.4437, 914.2101
763.9258, 913.6880
764.4080, 914.3810
764.8901, 919.5475
765.3722, 925.2599
765.8543, 926.3823
766.3364, 923.4782
766.8185, 920.5422
767.3007, 919.7281
767.7828, 920.1341
768.2649, 920.2111
768.7470, 919.9269
769.2291, 920.1712
769.7112, 921.5139
770.1934, 921.8984
770.6755, 919.7959
771.1576, 916.4863
771.6397, 914.3932
772.1218, 913.8369
772.6039, 912.0376
773.0861, 906.4461
773.5682, 901.7816
774.0503, 902.1058
774.5324, 904.2023
775.0145, 902.8766
775.4966, 897.5062
775.9788, 892.4229
776.4609, 891.7991
776.9430, 893.4360
777.4251, 891.6118
777.9072, 886.4335
778.3893, 882.2015
778.8715, 879.9323
779.3536, 878.6700
779.8357, 877.7570
780.3178, 877.1389
780.7999, 876.4518
781.2820, 875.3543
781.7642, 874.6709
782.2463, 874.8751
782.7284, 875.0817
783.2105, 875.1748
783.6926, 874.7382
784.1747, 872.8164
784.6569, 868.8981
785.1390, 864.9130
785.6211, 862.1888
786.1032, 860.7301
786.5853, 860.8671
787.0674, 862.4335
787.5496, 864.5942
788.0317, 867.1403
788.5138, 868.8226
788.9959, 867.5778
789.4780, 863.1167
789.9601, 859.8940
790.4423, 858.2932
790.9244, 857.3506
791.4065, 857.2637
791.8886, 857.3924
792.3707, 857.5565
792.8528, 857.5646
793.3350, 856.5767
793.8171, 853.3975
794.2992, 850.3845
794.7813, 849.3994
795.2634, 849.2526
795.7455, 848.4997
796.2277, 846.8872
796.7098, 844.6227
797.1919, 841.8489
797.6740, 838.2686
798.1561, 833.0934
798.6382, 826.2607
799.1204, 819.2539
799.6025, 811.7643
800.0846, 805.1266
800.5667, 800.2064
801.0488, 796.3251
801.5309, 792.2076
802.0131, 787.6161
802.4952, 784.0117
802.9773, 781.9500
803.4594, 780.3778
803.9415, 779.4255
804.4236, 778.3773
804.9058, 776.3538
805.3879, 773.3200
805.8700, 769.9384
806.3521, 766.3505
806.8342, 763.1078
807.3163, 761.6801
807.7985, 761.4617
808.2806, 759.4216
808.7627, 754.9785
809.2448, 751.2086
809.7269, 750.5421
810.2090, 751.7421
810.6912, 750.9850
811.1733, 747.6117
811.6554, 743.8392
812.1375, 738.4885
812.6196, 734.1213
813.1017, 732.0270
813.5839, 731.3072
814.0660, 731.3757
814.5481, 732.2159
815.0302, 731.2643
815.5123, 725.6259
815.9944, 719.4897
816.4766, 715.9163
816.9587, 714.3563
817.4408, 714.1593
817.9229, 714.8925
818.4050, 715.5135
818.8871, 715.3734
819.3693, 714.1064
819.8514, 709.7322
820.3335, 702.0095
820.8156, 697.5649
821.2977, 698.1730
821.7798, 699.9556
822.2620, 701.0739
822.7441, 701.1270
823.2262, 698.8427
823.7083, 693.2732
824.1904, 687.5344
824.6725, 679.9881
825.1547, 674.1520
825.6368, 673.6056
826.1189, 674.7498
826.6010, 672.1860
827.0831, 665.2367
827.5652, 658.9538
828.0474, 657.8841
828.5295, 658.2072
829.0116, 655.3346
829.4937, 650.1622
829.9758, 644.6487
830.4579, 639.3188
830.9401, 634.6246
831.4222, 630.9488
831.9044, 628.0031
832.3865, 624.9612
832.8686, 621.8936
833.3507, 618.5386
833.8328, 615.2979
834.3149, 610.9891
834.7971, 604.3880
835.2792, 596.5978
835.7613, 589.6304
836.2434, 583.5892
836.7255, 577.9000
837.2076, 573.1265
837.6898, 568.0056
838.1719, 561.7668
838.6540, 554.9376
839.1361, 547.8715
839.6182, 540.8278
840.1003, 534.4542
840.5825, 529.5730
841.0646, 524.8564
841.5467, 517.7764
842.0288, 509.3420
842.5109, 503.1667
842.9930, 499.6581
843.4752, 496.8049
843.9573, 493.5254
844.4394, 489.6681
844.9215, 484.8477
845.4036, 478.7468
845.8857, 473.1780
846.3679, 468.0598
846.8500, 463.5809
847.3321, 460.0107
847.8142, 457.0103
848.2963, 454.4833
848.7784, 452.3729
849.2606, 449.5799
849.7427, 445.0328
850.2248, 440.8575
850.7069, 437.9001
851.1890, 435.7115
851.6711, 434.0775
852.1533, 432.7753
852.6354, 431.5935
853.1175, 430.5509
853.5996, 428.6831
854.0817, 423.9223
854.5638, 417.6611
855.0460, 413.7682
855.5281, 412.2914
856.0102, 411.6108
856.4923, 411.1618
856.9744, 410.4235
857.4565, 408.6530
857.9387, 405.8896
858.4208, 403.5871
858.9029, 402.3775
859.3850, 400.0207
859.8671, 394.6305
860.3492, 389.5816
860.8314, 387.9269
861.3135, 388.5001
861.7956, 388.1550
862.2777, 386.4637
862.7598, 384.1733
863.2419, 380.9018
863.7241, 377.6749
864.2062, 375.3831
864.6883, 373.5499
865.1704, 370.9534
865.6525, 367.4429
866.1346, 364.7966
866.6168, 365.1790
867.0989, 366.6286
867.5810, 365.9191
868.0631, 363.6091
868.5452, 361.6857
869.0273, 360.5125
869.5095, 359.0066
869.9916, 356.2213
870.4737, 353.0500
870.9558, 352.1641
871.4379, 354.2320
871.9200, 354.6806
872.4022, 352.8537
872.8843, 350.4689
873.3664, 347.7199
873.8485, 345.2298
874.3306, 344.0568
874.8127, 344.2101
875.2949, 344.5712
875.7770, 345.7221
876.2591, 346.2269
876.7412, 345.4445
877.2233, 344.0254
877.7054, 342.1429
878.1876, 340.1668
878.6697, 338.8701
879.1518, 338.6584
879.6339, 338.7745
880.1160, 338.9190
880.5981, 338.8379
881.0803, 337.8205
881.5624, 336.2346
882.0445, 335.2651
882.5266, 335.3273
883.0087, 336.1988
883.4908, 337.8791
883.9730, 339.9938
884.4551, 340.8682
884.9372, 340.4125
885.4193, 340.2152
885.9014, 340.5727
886.3835, 341.2203
886.8657, 342.1241
887.3478, 343.0634
887.8299, 343.3982
888.3120, 342.7619
888.7941, 342.4976
889.2762, 342.2415
889.7584, 342.8026
890.2405, 344.7229
890.7226, 347.3736
891.2047, 350.0889
891.6868, 352.8714
892.1689, 356.2317
892.6511, 360.6645
893.1332, 365.2665
893.6153, 370.2746
894.0974, 374.7426
894.5795, 376.4730
895.0616, 376.8297
895.5438, 379.8446
896.0259, 387.1995
896.5080, 396.0195
896.9901, 403.4145
897.4722, 409.9118
897.9543, 416.6322
898.4365, 423.5124
898.9186, 430.1796
899.4007, 436.4900
899.8828, 442.9484
900.3649, 450.1117
900.8470, 457.6419
901.3292, 464.2629
901.8113, 469.5988
902.2934, 475.8051
902.7755, 483.0746
903.2576, 491.1438
903.7397, 500.0795
904.2219, 509.5572
904.7040, 519.2819
905.1861, 529.3734
905.6682, 538.4412
906.1503, 545.3764
906.6324, 552.7003
907.1146, 561.4860
907.5967, 570.5428
908.0788, 579.3185
908.5609, 587.5086
909.0430, 594.8535
909.5251, 601.7781
910.0073, 605.8018
910.4894, 605.5852
910.9715, 601.6600
911.4536, 593.8051
911.9357, 582.8783
912.4178, 570.3757
912.9000, 556.6740
913.3821, 541.3671
913.8642, 523.6296
914.3463, 504.8749
914.8284, 487.1772
915.3105, 470.7629
915.7927, 456.5013
916.2748, 444.5904
916.7569, 434.7397
917.2390, 426.9436
917.7211, 420.3467
918.2032, 413.1435
918.6854, 405.2515
919.1675, 400.5669
919.6496, 400.5502
920.1317, 399.0920
920.6138, 393.2743
921.0959, 387.5202
921.5781, 385.9593
922.0602, 387.7411
922.5423, 388.7452
923.0244, 389.0291
923.5065, 388.4780
923.9886, 385.9368
924.4708, 383.8627
924.9529, 383.2014
925.4350, 383.6990
925.9171, 385.3511
926.3992, 387.9895
926.8813, 390.2871
927.3635, 390.8454
927.8456, 391.9755
928.3277, 396.2891
928.8098, 400.9524
929.2919, 402.1255
929.7740, 400.8022
930.2562, 400.6321
930.7383, 403.0963
931.2205, 406.5004
931.7026, 409.6342
932.1847, 412.3354
932.6668, 414.1255
933.1489, 415.1812
933.6310, 415.9359
934.1132, 416.5591
934.5953, 417.7309
935.0774, 420.0151
935.5595, 422.9494
936.0416, 425.2755
936.5237, 426.9840
937.0059, 429.7088
937.4880, 433.7055
937.9701, 437.6329
938.4522, 440.9262
938.9343, 443.9793
939.4164, 447.0546
939.8986, 450.2384
940.3807, 455.3180
940.8628, 465.2809
941.3449, 471.1375
941.8270, 468.5641
942.3091, 465.8184
942.7913, 467.6999
943.2734, 471.9650
943.7555, 475.0316
944.2376, 476.5364
944.7197, 478.3961
945.2018, 481.5688
945.6840, 484.3250
946.1661, 485.8954
946.6482, 486.8453
947.1303, 487.4478
947.6124, 487.9243
948.0945, 488.7572
948.5767, 490.2258
949.0588, 491.4688
949.5409, 491.2388
950.0230, 491.1564
950.5051, 493.3559
950.9872, 496.7502
951.4694, 499.2030
951.9515, 500.3386
952.4336, 501.0237
952.9157, 501.7650
953.3978, 502.6415
953.8799, 504.3034
954.3621, 506.0803
954.8442, 505.7038
955.3263, 503.3727
955.8084, 501.3010
956.2905, 500.3677
956.7726, 501.1069
957.2548, 504.7445
957.7369, 510.0821
958.2190, 511.4333
958.7011, 508.5709
959.1832, 506.5308
959.6653, 506.2200
960.1475, 505.8403
960.6296, 504.2695
961.1117, 502.1351
961.5938, 500.5963
962.0759, 499.7172
962.5580, 498.7985
963.0402, 498.0902
963.5223, 496.7764
964.0044, 494.1994
964.4865, 491.5469
964.9686, 490.0759
965.4507, 489.2157
965.9329, 487.1116
966.4150, 483.1750
966.8971, 479.6013
967.3792, 477.2971
967.8613, 474.4541
968.3434, 470.2713
968.8256, 465.3306
969.3077, 460.0368
969.7898, 454.5146
970.2719, 449.0468
970.7540, 443.5189
971.2361, 438.4247
971.7183, 433.8384
972.2004, 429.8557
972.6825, 427.1064
973.1646, 424.7884
973.6467, 421.5746
974.1288, 417.2935
974.6110, 412.8898
975.0931, 409.0380
975.5752, 405.0868
976.0573, 400.0818
976.5394, 394.7702
977.0215, 390.3022
977.5037, 386.5648
977.9858, 382.8807
978.4679, 378.9764
978.9500, 375.1341
979.4321, 371.8972
979.9142, 368.6574
980.3964, 363.9369
980.8785, 358.1769
981.3606, 352.8654
981.8427, 348.2523
982.3248, 344.6804
982.8069, 342.4291
983.2891, 339.7856
983.7712, 333.5377
984.2533, 324.4922
984.7354, 318.7624
985.2175, 316.4504
985.6996, 313.9577
986.1818, 310.5562
986.6639, 306.4027
987.1460, 301.4359
987.6281, 296.2097
988.1102, 292.0193
988.5923, 288.9455
989.0745, 286.2158
989.5566, 283.9645
990.0387, 281.6615
990.5208, 279.2986
991.0029, 276.6089
991.4850, 273.2905
991.9672, 269.5044
992.4493, 265.8405
992.9314, 262.3904
993.4135, 258.8500
993.8956, 254.2830
994.3777, 250.9146
994.8599, 250.6729
995.3420, 250.9688
995.8241, 249.2306
996.3062, 245.7845
996.7883, 242.6714
997.2704, 239.7442
997.7526, 237.7094
998.2347, 237.9047
998.7168, 237.5986
999.1989, 234.5621
999.6810, 230.7855
1000.163, 229.2133
1000.645, 229.6992
1001.127, 228.9442
1001.609, 224.9838
1002.092, 221.1928
1002.574, 218.8598
1003.056, 217.2664
1003.538, 215.9670
1004.020, 214.9879
1004.502, 214.7702
1004.984, 215.2221
1005.466, 214.9708
1005.949, 213.0942
1006.431, 210.5534
1006.913, 207.3629
1007.395, 204.4031
1007.877, 202.9538
1008.359, 202.6076
1008.841, 202.4137
1009.323, 201.9920
1009.805, 200.8509
1010.288, 198.0475
1010.770, 195.0116
1011.252, 193.6614
1011.734, 193.2603
1012.216, 192.6413
1012.698, 191.6406
1013.180, 190.2496
1013.662, 188.4917
1014.145, 186.7679
1014.627, 185.3482
1015.109, 184.3604
1015.591, 184.4746
1016.073, 185.2237
1016.555, 184.9468
1017.037, 183.5514
1017.519, 182.1507
1018.001, 181.3066
1018.484, 180.6741
1018.966, 179.7729
1019.448, 178.7330
1019.930, 178.3138
1020.412, 178.3506
1020.894, 176.9794
1021.376, 173.9153
1021.858, 171.3122
1022.341, 170.4217
1022.823, 170.5649
1023.305, 170.8447
1023.787, 171.1891
1024.269, 170.6536
1024.751, 169.1501
1025.233, 168.7387
1025.715, 170.0477
1026.198, 170.8038
1026.680, 169.4409
1027.162, 167.0164
1027.644, 165.4140
1028.126, 164.6332
1028.608, 165.0231
1029.090, 167.0918
1029.572, 167.7498
1030.054, 165.9169
1030.536, 163.7722
1031.019, 162.6929
1031.501, 162.4385
1031.983, 162.5404
1032.465, 163.0542
1032.947, 163.5126
1033.429, 164.0278
1033.911, 164.2063
1034.393, 164.0192
1034.876, 163.3505
1035.358, 161.9319
1035.840, 160.0813
1036.322, 158.3874
1036.804, 156.4720
1037.286, 156.6403
1037.768, 160.7397
1038.250, 163.5844
1038.733, 163.6810
1039.215, 162.6667
1039.697, 161.3204
1040.179, 159.8401
1040.661, 158.6488
1041.143, 157.5374
1041.625, 157.4797
1042.107, 159.8339
1042.589, 161.3728
1043.072, 160.6300
1043.554, 159.6765
1044.036, 160.2255
1044.518, 161.5941
1045.000, 162.0040
1045.482, 161.0264
1045.964, 160.6003
1046.446, 161.3511
1046.928, 161.9975
1047.411, 162.1555
1047.893, 162.1538
1048.375, 162.2903
1048.857, 162.4476
1049.339, 162.2645
1049.821, 161.5894
1050.303, 161.1886
1050.785, 160.7563
1051.268, 161.1714
1051.750, 164.0796
1052.232, 166.6948
1052.714, 166.0611
1053.196, 163.6080
1053.678, 162.8822
1054.160, 164.6976
1054.642, 166.1100
1055.125, 165.9537
1055.607, 165.9115
1056.089, 166.8907
1056.571, 167.9688
1057.053, 168.4967
1057.535, 168.4898
1058.017, 167.8233
1058.499, 166.3199
1058.981, 165.9756
1059.464, 168.6619
1059.946, 170.9776
1060.428, 171.2038
1060.910, 170.7974
1061.392, 170.9648
1061.874, 171.5022
1062.356, 171.7269
1062.838, 171.4908
1063.320, 171.4012
1063.803, 171.6400
1064.285, 172.1144
1064.767, 173.1958
1065.249, 174.1215
1065.731, 174.0127
1066.213, 173.3294
1066.695, 173.0598
1067.177, 173.3938
1067.660, 173.6762
1068.142, 173.3871
1068.624, 173.3294
1069.106, 174.2157
1069.588, 175.1740
1070.070, 175.1959
1070.552, 174.8574
1071.034, 175.6270
1071.516, 177.6335
1071.999, 178.5919
1072.481, 175.9101
1072.963, 174.1425
1073.445, 176.5254
1073.927, 179.6014
1074.409, 180.6485
1074.891, 180.3018
1075.373, 179.7898
1075.855, 179.3797
1076.338, 179.0225
1076.820, 178.2029
1077.302, 178.2538
1077.784, 180.8901
1078.266, 183.5791
1078.748, 184.1079
1079.230, 183.4842
1079.713, 183.4465
1080.195, 184.1193
1080.677, 184.3136
1081.159, 183.1391
1081.641, 182.3763
1082.123, 183.3915
1082.605, 184.5760
1083.087, 184.6193
1083.569, 184.1873
1084.052, 184.2365
1084.534, 184.8090
1085.016, 185.3118
1085.498, 185.2644
1085.980, 185.9585
1086.462, 189.4512
1086.944, 192.2256
1087.426, 191.1694
1087.908, 188.6719
1088.391, 187.3880
1088.873, 187.4647
1089.355, 188.1949
1089.837, 189.5874
1090.319, 190.6969
1090.801, 190.8894
1091.283, 191.0074
1091.765, 191.7008
1092.248, 192.4115
1092.730, 192.4642
1093.212, 192.0437
1093.694, 191.7736
1094.176, 191.8115
1094.658, 191.8784
1095.140, 191.7549
1095.622, 191.7915
1096.104, 192.2306
1096.587, 192.8195
1097.069, 193.2477
1097.551, 193.6805
1098.033, 194.5838
1098.515, 196.0604
1098.997, 197.2737
1099.479, 198.0372
1099.961, 198.4243
1100.443, 197.8060
1100.926, 197.4855
1101.408, 198.7036
1101.890, 200.6824
1102.372, 202.2823
1102.854, 203.3482
1103.336, 203.8246
1103.818, 203.4806
1104.300, 202.8548
1104.783, 200.9584
1105.265, 200.0552
1105.747, 202.5287
1106.229, 205.9346
1106.711, 206.9545
1107.193, 205.7887
1107.675, 205.4667
1108.157, 207.2592
1108.640, 208.1750
1109.122, 206.7201
1109.604, 205.7143
1110.086, 206.5811
1110.568, 208.1325
1111.050, 209.3908
1111.532, 210.3454
1112.014, 211.0962
1112.496, 211.5122
1112.979, 212.1024
1113.461, 213.4721
1113.943, 214.2137
1114.425, 213.3777
1114.907, 212.4265
1115.389, 212.3596
1115.871, 212.9290
1116.353, 213.5381
1116.835, 214.0902
1117.318, 215.3130
1117.800, 218.2167
1118.282, 219.8872
1118.764, 219.1735
1119.246, 218.2067
1119.728, 217.8068
1120.210, 218.2047
1120.692, 220.1273
1121.175, 223.5159
1121.657, 224.8905
1122.139, 223.2457
1122.621, 222.3711
1123.103, 222.6117
1123.585, 223.6328
1124.067, 225.7230
1124.549, 227.6875
1125.031, 228.0798
1125.514, 227.2611
1125.996, 226.8445
1126.478, 226.7498
1126.960, 227.6484
1127.442, 229.8750
1127.924, 231.5492
1128.406, 231.9579
1128.888, 232.3022
1129.370, 233.6263
1129.853, 235.3751
1130.335, 236.0613
1130.817, 235.6926
1131.299, 236.8034
1131.781, 239.5121
1132.263, 241.1842
1132.745, 241.2461
1133.227, 241.1496
1133.710, 241.7089
1134.192, 242.7162
1134.674, 243.8936
1135.156, 245.2459
1135.638, 247.0344
1136.120, 249.1087
1136.602, 250.0317
1137.084, 249.7928
1137.567, 250.1055
1138.049, 251.6417
1138.531, 253.8271
1139.013, 256.3425
1139.495, 258.5874
1139.977, 258.9395
1140.459, 258.1816
1140.941, 258.5697
1141.423, 259.9875
1141.906, 261.4450
1142.388, 262.6883
1142.870, 263.9705
1143.352, 265.4549
1143.834, 267.0956
1144.316, 269.1163
1144.798, 271.0562
1145.280, 272.0106
1145.762, 272.4384
1146.245, 273.2442
1146.727, 274.4960
1147.209, 275.8476
1147.691, 277.1720
1148.173, 278.5788
1148.655, 280.5800
1149.137, 282.2402
1149.619, 282.3275
1150.102, 281.9491
1150.584, 281.9992
1151.066, 282.7574
1151.548, 284.9142
1152.030, 288.3123
1152.512, 290.8565
1152.994, 291.2641
1153.476, 291.3840
1153.958, 292.0320
1154.441, 292.7764
1154.923, 292.8794
1155.405, 293.2320
1155.887, 295.0428
1156.369, 298.1004
1156.851, 301.4946
1157.333, 305.5716
1157.815, 307.9692
1158.297, 306.9901
1158.780, 305.8680
1159.262, 305.0929
1159.744, 305.0578
1160.226, 306.4487
1160.708, 308.5905
1161.190, 310.1000
1161.672, 310.8604
1162.154, 312.5457
1162.637, 316.1503
1163.119, 318.7777
1163.601, 319.6247
1164.083, 320.5529
1164.565, 322.5945
1165.047, 324.6240
1165.529, 325.3245
1166.011, 325.0954
1166.494, 325.4840
1166.976, 326.4344
1167.458, 328.4261
1167.940, 331.6957
1168.422, 335.0343
1168.904, 338.3732
1169.386, 340.4361
1169.868, 340.1559
1170.350, 338.8903
1170.833, 338.7018
1171.315, 339.5926
1171.797, 342.0721
1172.279, 345.9079
1172.761, 348.2365
1173.243, 348.8781
1173.725, 350.0108
1174.207, 352.4785
1174.689, 355.5107
1175.172, 358.7369
1175.654, 361.1190
1176.136, 359.8416
1176.618, 356.8248
1177.100, 356.2639
1177.582, 357.9090
1178.064, 361.1173
1178.547, 365.1423
1179.029, 367.4442
1179.511, 366.6675
1179.993, 366.0584
1180.475, 369.0720
1180.957, 372.9023
1181.439, 375.0189
1181.921, 376.1413
1182.403, 376.7662
1182.885, 377.3697
1183.368, 378.9169
1183.850, 381.4618
1184.332, 383.3656
1184.814, 383.3646
1185.296, 383.6859
1185.778, 385.8851
1186.260, 387.9242
1186.742, 387.6340
1187.225, 387.2599
1187.707, 389.6206
1188.189, 394.0863
1188.671, 398.0656
1189.153, 401.5467
1189.635, 403.6749
1190.117, 403.4038
1190.599, 403.2764
1191.082, 403.2613
1191.564, 404.0957
1192.046, 406.5366
1192.528, 409.6324
1193.010, 412.0802
1193.492, 413.9738
1193.974, 416.1314
1194.456, 418.6092
1194.938, 421.1060
1195.421, 423.6722
1195.903, 425.8133
1196.385, 427.3323
1196.867, 428.5854
1197.349, 429.7397
1197.831, 431.2515
1198.313, 434.2307
1198.795, 438.2507
1199.277, 441.0257
1199.760, 442.8630
1200.242, 445.6047
1200.724, 449.1752
1201.206, 451.2514
1201.688, 451.0907
1202.170, 450.9662
1202.652, 452.7302
1203.134, 455.5101
1203.617, 458.4384
1204.099, 461.5113
1204.581, 464.7227
1205.063, 468.0522
1205.545, 471.5362
1206.027, 475.0941
1206.509, 478.5848
1206.991, 481.9623
1207.474, 485.0543
1207.956, 487.8886
1208.438, 490.2363
1208.920, 491.1990
1209.402, 492.4099
1209.884, 495.6317
1210.366, 499.6851
1210.848, 502.2281
1211.330, 503.4265
1211.813, 506.5513
1212.295, 513.5785
1212.777, 519.1920
1213.259, 522.3691
1213.741, 525.6610
1214.223, 530.1631
1214.705, 534.1571
1215.187, 536.0178
1215.669, 537.2081
1216.152, 540.5244
1216.634, 545.7973
1217.116, 549.9468
1217.598, 552.8250
1218.080, 556.3935
1218.562, 560.9102
1219.044, 564.2960
1219.526, 565.7885
1220.009, 567.7889
1220.491, 572.2494
1220.973, 578.4261
1221.455, 585.9129
1221.937, 593.6984
1222.419, 598.7098
1222.901, 601.9447
1223.383, 606.1960
1223.865, 611.4726
1224.348, 615.7905
1224.830, 618.6446
1225.312, 622.5383
1225.794, 629.4430
1226.276, 637.4549
1226.758, 647.1057
1227.240, 655.2362
1227.722, 656.4319
1228.204, 656.0836
1228.687, 661.9725
1229.169, 672.8829
1229.651, 682.4882
1230.133, 689.6363
1230.615, 695.1573
1231.097, 697.1974
1231.579, 700.5524
1232.061, 706.2119
1232.544, 713.4239
1233.026, 722.9780
1233.508, 732.5668
1233.990, 738.9364
1234.472, 743.4535
1234.954, 752.2992
1235.436, 766.6241
1235.918, 777.0123
1236.401, 783.0416
1236.883, 789.9144
1237.365, 798.7034
1237.847, 806.8282
1238.329, 812.8439
1238.811, 818.3958
1239.293, 825.1769
1239.775, 833.1331
1240.257, 843.1038
1240.740, 853.8035
1241.222, 861.7788
1241.704, 868.0203
1242.186, 875.7189
1242.668, 885.2663
1243.150, 895.0734
1243.632, 904.4867
1244.114, 914.1434
1244.596, 925.4696
1245.079, 935.9235
1245.561, 941.0269
1246.043, 947.4164
1246.525, 963.6096
1247.007, 983.1068
1247.489, 995.5139
1247.971, 1001.082
1248.453, 1007.936
1248.936, 1017.494
1249.418, 1026.681
1249.900, 1034.825
1250.382, 1043.929
1250.864, 1054.679
1251.346, 1065.820
1251.828, 1076.745
1252.310, 1087.501
1252.792, 1098.291
1253.275, 1108.921
1253.757, 1118.458
1254.239, 1127.022
1254.721, 1135.281
1255.203, 1143.698
1255.685, 1156.468
1256.167, 1173.913
1256.649, 1190.558
1257.131, 1203.683
1257.614, 1215.088
1258.096, 1225.618
1258.578, 1236.744
1259.060, 1250.584
1259.542, 1265.716
1260.024, 1281.127
1260.506, 1295.903
1260.988, 1307.260
1261.471, 1316.558
1261.953, 1330.882
1262.435, 1353.458
1262.917, 1374.401
1263.399, 1390.014
1263.881, 1405.468
1264.363, 1421.201
1264.845, 1438.298
1265.328, 1457.921
1265.810, 1478.551
1266.292, 1499.109
1266.774, 1519.039
1267.256, 1535.442
1267.738, 1547.563
1268.220, 1563.600
1268.702, 1583.571
1269.184, 1605.277
1269.667, 1628.250
1270.149, 1652.509
1270.631, 1678.127
1271.113, 1702.267
1271.595, 1721.593
1272.077, 1740.071
1272.559, 1763.430
1273.041, 1789.773
1273.523, 1817.084
1274.006, 1844.879
1274.488, 1873.581
1274.970, 1902.180
1275.452, 1927.198
1275.934, 1947.703
1276.416, 1972.175
1276.898, 2006.309
1277.380, 2040.853
1277.863, 2072.235
1278.345, 2104.698
1278.827, 2140.389
1279.309, 2177.806
1279.791, 2216.448
1280.273, 2255.255
1280.755, 2291.111
1281.237, 2324.081
1281.719, 2359.521
1282.202, 2397.409
1282.684, 2437.341
1283.166, 2479.313
1283.648, 2522.828
1284.130, 2567.787
1284.612, 2614.937
1285.094, 2665.348
1285.576, 2717.284
1286.059, 2769.752
1286.541, 2821.535
1287.023, 2872.684
1287.505, 2923.532
##END=



