##NAMES=Turquoise
##RRUFFID=R050554
##IDEAL CHEMISTRY=Cu^2+^Al_6_(P^5+^O_4_)_4_(OH)_8_&#183;4H_2_O
##LOCALITY=Bishop mine, Lynch Station, Campbell County, Virginia, USA
##OWNER=RRUFF
##SOURCE=Dave Bunk Minerals
##DESCRIPTION=Group of blue bladed crystals
##STATUS=The identification of this mineral has been confirmed by X-ray diffraction and chemical analysis
##URL=rruff.info/R050554
##MEASURED CHEMISTRY=(Cu_0.97_Zn_0.02_Ca_0.01_)_Σ=1_Al_6.00_(P_1.00_O_4_)_4_(OH)_8_·4H_2_O
92.37695, 502.7582
92.85907, 496.5189
93.34119, 497.9195
93.82330, 502.8489
94.30542, 506.4937
94.78754, 508.0970
95.26965, 508.6362
95.75177, 508.5002
96.23389, 508.4228
96.71600, 507.7098
97.19812, 506.1385
97.68024, 503.8054
98.16235, 500.8448
98.64447, 497.2306
99.12659, 492.6631
99.60870, 487.1968
100.0908, 482.6629
100.5729, 478.5138
101.0551, 474.0377
101.5372, 468.7811
102.0193, 462.8087
102.5014, 456.8316
102.9835, 450.1263
103.4656, 443.9626
103.9478, 439.5532
104.4299, 435.8073
104.9120, 430.7061
105.3941, 422.5244
105.8762, 410.7849
106.3583, 399.8851
106.8405, 390.0359
107.3226, 380.5025
107.8047, 370.4925
108.2868, 360.0531
108.7689, 350.2996
109.2510, 342.7267
109.7332, 337.4519
110.2153, 332.6477
110.6974, 328.2906
111.1795, 324.2253
111.6616, 319.9284
112.1437, 314.8761
112.6259, 310.6266
113.1080, 309.0977
113.5901, 310.0654
114.0722, 311.4154
114.5543, 311.7939
115.0364, 311.2607
115.5185, 311.0321
116.0007, 311.2733
116.4828, 312.0105
116.9649, 313.4832
117.4470, 315.6922
117.9291, 318.0464
118.4112, 319.6031
118.8934, 319.6549
119.3755, 320.6640
119.8576, 323.5995
120.3397, 327.0701
120.8218, 330.0692
121.3039, 332.1827
121.7861, 333.5895
122.2682, 334.8239
122.7503, 336.0972
123.2324, 336.8905
123.7145, 336.9177
124.1966, 336.4759
124.6788, 336.0781
125.1609, 336.0821
125.6430, 336.3264
126.1251, 335.3855
126.6072, 332.9539
127.0893, 329.9872
127.5715, 326.5735
128.0536, 322.8316
128.5357, 319.2454
129.0178, 316.0534
129.4999, 313.3567
129.9821, 311.2303
130.4642, 309.7688
130.9463, 308.8160
131.4284, 308.3115
131.9105, 308.3282
132.3926, 308.4510
132.8748, 308.4425
133.3569, 308.3183
133.8390, 308.0669
134.3211, 307.3011
134.8032, 306.3456
135.2853, 306.4066
135.7674, 308.1563
136.2496, 310.0902
136.7317, 311.5519
137.2138, 312.5867
137.6959, 313.3570
138.1780, 314.1496
138.6601, 315.0611
139.1423, 314.9673
139.6244, 313.4035
140.1065, 311.1724
140.5886, 308.2133
141.0707, 304.7260
141.5528, 301.1631
142.0350, 298.0520
142.5171, 295.4763
142.9992, 293.2088
143.4813, 291.1364
143.9634, 289.3791
144.4455, 288.1636
144.9277, 287.5006
145.4098, 286.9680
145.8919, 285.8009
146.3740, 282.9165
146.8561, 281.5073
147.3382, 282.8921
147.8204, 285.4383
148.3025, 287.1501
148.7846, 287.2946
149.2667, 286.4569
149.7488, 285.6656
150.2309, 284.7811
150.7131, 284.2541
151.1952, 284.4920
151.6773, 285.2727
152.1594, 285.8715
152.6415, 285.9346
153.1236, 285.7601
153.6058, 286.0213
154.0879, 287.0254
154.5700, 287.5244
155.0521, 286.1814
155.5342, 282.9164
156.0163, 279.7754
156.4985, 277.3032
156.9806, 275.4540
157.4627, 274.5211
157.9448, 274.7579
158.4269, 275.1344
158.9090, 273.8339
159.3912, 269.8597
159.8733, 266.7413
160.3554, 265.5431
160.8375, 265.3619
161.3196, 265.5923
161.8017, 266.0133
162.2839, 266.4624
162.7660, 266.4247
163.2481, 265.3561
163.7302, 264.5069
164.2123, 263.7208
164.6944, 263.3277
165.1766, 263.7954
165.6587, 265.4271
166.1408, 268.0372
166.6229, 270.4587
167.1050, 272.2689
167.5871, 274.3536
168.0693, 277.0316
168.5514, 280.1276
169.0335, 283.2350
169.5156, 286.0161
169.9977, 288.5728
170.4798, 292.0387
170.9620, 296.9359
171.4441, 302.0302
171.9262, 306.9188
172.4083, 311.5542
172.8904, 315.9094
173.3725, 319.8643
173.8547, 323.4466
174.3368, 327.2210
174.8189, 332.0367
175.3010, 336.4882
175.7831, 339.5410
176.2652, 341.1620
176.7474, 341.5528
177.2295, 340.6970
177.7116, 338.6481
178.1937, 335.4502
178.6758, 330.1111
179.1579, 323.9695
179.6401, 318.8681
180.1222, 314.8964
180.6043, 311.8234
181.0864, 309.6569
181.5685, 308.2058
182.0506, 307.2893
182.5328, 306.7527
183.0149, 306.6946
183.4970, 307.4369
183.9791, 309.0738
184.4612, 311.5027
184.9433, 315.2602
185.4255, 319.5947
185.9076, 323.1900
186.3897, 324.9285
186.8718, 325.0345
187.3539, 325.9273
187.8360, 328.0247
188.3182, 330.5859
188.8003, 333.4478
189.2824, 336.5942
189.7645, 340.1566
190.2466, 344.4306
190.7287, 349.5316
191.2109, 352.8603
191.6930, 351.9575
192.1751, 351.6760
192.6572, 354.0880
193.1393, 358.5783
193.6214, 363.2531
194.1036, 366.4422
194.5857, 367.9935
195.0678, 369.2876
195.5499, 370.3766
196.0320, 371.2374
196.5141, 371.7880
196.9963, 372.0708
197.4784, 372.2303
197.9605, 372.3687
198.4426, 372.4701
198.9247, 372.7708
199.4068, 373.1270
199.8890, 373.7607
200.3711, 375.0402
200.8532, 376.9224
201.3353, 378.6830
201.8174, 379.4738
202.2995, 379.2422
202.7817, 379.9275
203.2638, 381.9605
203.7459, 384.7352
204.2280, 388.0620
204.7101, 391.9876
205.1922, 395.4139
205.6744, 396.8216
206.1565, 396.6901
206.6386, 397.3053
207.1207, 400.1678
207.6028, 403.6245
208.0849, 405.4521
208.5671, 405.3917
209.0492, 404.1260
209.5313, 401.6542
210.0134, 398.3795
210.4955, 395.0635
210.9776, 391.9080
211.4598, 388.9000
211.9419, 385.9890
212.4240, 383.1788
212.9061, 380.4989
213.3882, 377.9562
213.8703, 375.5365
214.3525, 373.2299
214.8346, 371.1133
215.3167, 369.1059
215.7988, 366.9140
216.2809, 364.2940
216.7630, 361.8674
217.2451, 360.0922
217.7273, 358.6461
218.2094, 356.9906
218.6915, 354.8643
219.1736, 352.2597
219.6557, 349.0819
220.1378, 344.6568
220.6200, 340.4884
221.1021, 337.0465
221.5842, 334.1595
222.0663, 331.4345
222.5484, 328.5337
223.0305, 325.5798
223.5127, 323.7760
223.9948, 324.5627
224.4769, 325.0805
224.9590, 324.4936
225.4411, 323.2442
225.9232, 322.0841
226.4054, 321.4720
226.8875, 321.4109
227.3696, 321.9488
227.8517, 324.1885
228.3338, 325.8818
228.8159, 326.4132
229.2981, 326.0598
229.7802, 325.3790
230.2623, 324.7447
230.7444, 324.0996
231.2265, 322.7828
231.7086, 320.5596
232.1908, 317.9930
232.6729, 315.2353
233.1550, 312.2240
233.6371, 308.7019
234.1192, 304.4252
234.6013, 299.5779
235.0835, 295.5991
235.5656, 292.5322
236.0477, 290.0467
236.5298, 288.1569
237.0119, 286.7834
237.4940, 285.7435
237.9762, 284.9294
238.4583, 284.3878
238.9404, 284.3523
239.4225, 285.2453
239.9046, 286.0663
240.3867, 286.6095
240.8689, 286.8365
241.3510, 286.6038
241.8331, 285.7657
242.3152, 284.4876
242.7973, 283.2342
243.2794, 281.7129
243.7616, 280.6458
244.2437, 280.9219
244.7258, 282.0107
245.2079, 282.2208
245.6900, 280.6159
246.1721, 278.0018
246.6543, 275.9711
247.1364, 274.5021
247.6185, 273.5552
248.1006, 273.2793
248.5827, 273.5527
249.0648, 273.9372
249.5470, 274.2903
250.0291, 274.7026
250.5112, 275.2904
250.9933, 276.0635
251.4754, 276.9173
251.9576, 277.7276
252.4397, 278.5478
252.9218, 279.6541
253.4039, 281.1850
253.8860, 282.9553
254.3681, 284.7409
254.8503, 286.5433
255.3324, 288.3661
255.8145, 290.2686
256.2966, 292.2111
256.7787, 294.0404
257.2608, 295.9370
257.7430, 297.3859
258.2251, 298.1251
258.7072, 298.1718
259.1893, 297.6251
259.6714, 296.3623
260.1535, 294.4928
260.6357, 292.6901
261.1178, 291.5560
261.5999, 289.6857
262.0820, 285.7464
262.5641, 280.3499
263.0462, 275.3795
263.5284, 272.4283
264.0105, 271.1024
264.4926, 268.9135
264.9747, 265.3125
265.4568, 261.6054
265.9389, 258.2614
266.4211, 255.2880
266.9032, 252.7284
267.3853, 250.7324
267.8674, 249.1620
268.3495, 247.3937
268.8316, 245.3248
269.3138, 243.1891
269.7959, 240.8047
270.2780, 238.4684
270.7601, 236.6886
271.2422, 235.8747
271.7243, 235.6575
272.2065, 234.7628
272.6886, 232.6647
273.1707, 230.7745
273.6528, 229.3134
274.1349, 228.2846
274.6170, 227.9363
275.0992, 228.4938
275.5813, 229.2618
276.0634, 228.3553
276.5455, 224.5919
277.0276, 221.3313
277.5097, 219.0318
277.9919, 217.4911
278.4740, 216.7087
278.9561, 216.6698
279.4382, 216.9280
279.9203, 216.5726
280.4024, 215.1161
280.8846, 214.0924
281.3667, 214.1379
281.8488, 214.2967
282.3309, 213.6285
282.8130, 211.9925
283.2951, 210.2750
283.7773, 209.8920
284.2594, 211.5293
284.7415, 212.8255
285.2236, 213.9181
285.7057, 214.5668
286.1878, 214.4963
286.6700, 213.7476
287.1521, 212.6571
287.6342, 211.4488
288.1163, 209.8269
288.5984, 209.3497
289.0805, 210.6808
289.5627, 212.4513
290.0448, 214.4838
290.5269, 216.4924
291.0090, 217.8721
291.4911, 217.9075
291.9732, 216.4144
292.4554, 215.9351
292.9375, 217.2289
293.4196, 218.7588
293.9017, 220.2471
294.3838, 221.5856
294.8659, 222.6781
295.3481, 223.4424
295.8302, 223.8999
296.3123, 224.2966
296.7944, 224.0751
297.2765, 224.4090
297.7586, 226.0434
298.2408, 228.2829
298.7229, 230.0096
299.2050, 230.5701
299.6871, 230.3497
300.1692, 230.8366
300.6513, 232.9706
301.1335, 234.7083
301.6156, 235.6915
302.0977, 236.2635
302.5798, 236.7682
303.0619, 237.3445
303.5440, 237.9737
304.0262, 238.6017
304.5083, 238.8713
304.9904, 239.7322
305.4725, 241.4596
305.9546, 243.5615
306.4367, 245.7307
306.9189, 247.8570
307.4010, 249.9292
307.8831, 251.9618
308.3652, 254.1073
308.8473, 255.7514
309.3294, 256.1586
309.8116, 256.7398
310.2937, 258.4484
310.7758, 261.2565
311.2579, 264.4775
311.7400, 267.4348
312.2221, 270.1238
312.7043, 272.7292
313.1864, 275.2347
313.6685, 277.6987
314.1506, 280.0785
314.6327, 282.4387
315.1148, 284.9765
315.5970, 287.8835
316.0791, 291.0912
316.5612, 293.6267
317.0433, 294.9925
317.5254, 296.2575
318.0075, 297.0917
318.4897, 298.0732
318.9718, 300.4248
319.4539, 304.8642
319.9360, 310.2510
320.4181, 312.9113
320.9002, 309.6190
321.3824, 307.4546
321.8645, 307.3621
322.3466, 308.2607
322.8287, 309.1696
323.3108, 309.7350
323.7929, 310.1110
324.2751, 310.5794
324.7572, 311.4052
325.2393, 311.7775
325.7214, 311.4047
326.2035, 310.8631
326.6856, 310.5451
327.1678, 310.4938
327.6499, 310.5089
328.1320, 310.3983
328.6141, 310.1925
329.0962, 309.6772
329.5783, 308.5702
330.0605, 307.4657
330.5426, 306.6932
331.0247, 306.1465
331.5068, 305.5824
331.9889, 304.8883
332.4710, 304.0167
332.9532, 302.1768
333.4353, 298.2555
333.9174, 294.5020
334.3995, 291.3231
334.8816, 288.5890
335.3637, 286.1164
335.8459, 283.8365
336.3280, 281.6747
336.8101, 279.4872
337.2922, 277.4007
337.7743, 275.0641
338.2564, 272.4039
338.7386, 269.5258
339.2206, 266.4483
339.7028, 263.1955
340.1849, 259.9601
340.6670, 257.0005
341.1491, 254.2993
341.6312, 251.9656
342.1133, 250.7575
342.5955, 249.2591
343.0776, 246.3323
343.5597, 242.2064
344.0418, 238.1354
344.5239, 235.3301
345.0060, 233.8639
345.4882, 232.3639
345.9703, 231.0538
346.4524, 229.4715
346.9345, 227.2897
347.4166, 224.7600
347.8987, 222.3007
348.3809, 220.1621
348.8630, 218.3141
349.3451, 216.6670
349.8272, 215.1104
350.3093, 213.9493
350.7914, 213.3445
351.2736, 213.0524
351.7557, 212.9097
352.2378, 212.8528
352.7199, 212.7524
353.2020, 212.3496
353.6841, 211.5022
354.1663, 210.7840
354.6484, 210.2939
355.1305, 209.9171
355.6126, 209.6006
356.0947, 209.3380
356.5768, 209.1511
357.0590, 209.0924
357.5411, 209.1701
358.0232, 209.1791
358.5053, 208.9012
358.9874, 208.8154
359.4695, 209.1769
359.9517, 209.8673
360.4338, 210.6378
360.9159, 211.3555
361.3980, 212.0437
361.8801, 212.8367
362.3622, 213.9018
362.8444, 214.6803
363.3265, 215.0619
363.8086, 215.0489
364.2907, 214.4222
364.7728, 212.9907
365.2549, 211.6266
365.7371, 211.5147
366.2192, 212.7593
366.7013, 214.3052
367.1834, 216.1650
367.6655, 218.0573
368.1476, 219.8148
368.6298, 221.4276
369.1119, 222.8698
369.5940, 224.0852
370.0761, 225.1034
370.5582, 226.0335
371.0403, 226.8399
371.5225, 227.6402
372.0046, 228.3623
372.4867, 229.1277
372.9688, 230.2781
373.4509, 232.2341
373.9330, 234.4614
374.4152, 236.1249
374.8973, 237.1608
375.3794, 238.1106
375.8615, 239.1678
376.3436, 240.3255
376.8257, 241.5491
377.3079, 242.7939
377.7900, 244.2152
378.2721, 246.2231
378.7542, 248.5935
379.2363, 250.2862
379.7184, 250.8494
380.2006, 250.9047
380.6827, 251.2614
381.1648, 251.9134
381.6469, 252.4235
382.1290, 252.5541
382.6111, 252.5030
383.0933, 252.5450
383.5754, 252.7149
384.0575, 252.9476
384.5396, 253.4293
385.0217, 253.9738
385.5038, 253.5269
385.9860, 251.2247
386.4681, 248.6806
386.9502, 246.7916
387.4323, 245.4768
387.9144, 244.4319
388.3965, 243.5977
388.8787, 242.8219
389.3608, 241.6633
389.8429, 239.9350
390.3250, 238.2839
390.8071, 236.7866
391.2892, 235.4588
391.7714, 234.3333
392.2535, 233.4162
392.7356, 232.6341
393.2177, 231.8405
393.6998, 230.9087
394.1819, 230.8071
394.6641, 232.8239
395.1462, 234.4429
395.6283, 233.7703
396.1104, 231.3929
396.5925, 229.2436
397.0746, 228.5629
397.5568, 229.1523
398.0389, 229.9085
398.5210, 231.0995
399.0031, 232.1289
399.4852, 233.1966
399.9673, 233.9536
400.4495, 233.6894
400.9316, 232.2873
401.4137, 230.8218
401.8958, 231.1172
402.3779, 234.2983
402.8600, 236.1628
403.3422, 235.8547
403.8243, 235.1971
404.3064, 234.7956
404.7885, 234.8318
405.2706, 235.4726
405.7527, 236.9452
406.2349, 239.1180
406.7170, 240.8570
407.1991, 241.7565
407.6812, 242.7761
408.1633, 244.2086
408.6454, 245.8376
409.1276, 247.3963
409.6097, 248.7817
410.0918, 250.1728
410.5739, 252.0482
411.0560, 254.6498
411.5381, 256.3895
412.0203, 256.0261
412.5024, 255.5434
412.9845, 256.1746
413.4666, 257.7958
413.9487, 259.4546
414.4308, 260.6781
414.9130, 261.4294
415.3951, 261.5388
415.8772, 260.9335
416.3593, 259.8541
416.8414, 258.1582
417.3235, 256.1494
417.8057, 254.0984
418.2878, 251.7714
418.7699, 250.0265
419.2520, 250.2359
419.7341, 252.1396
420.2162, 253.1356
420.6984, 252.1071
421.1805, 250.2735
421.6626, 249.1172
422.1447, 248.6050
422.6268, 248.4167
423.1089, 248.8501
423.5911, 249.3585
424.0732, 249.0448
424.5553, 247.8080
425.0374, 246.5078
425.5195, 245.7616
426.0016, 245.5385
426.4838, 245.3866
426.9659, 245.4087
427.4480, 245.3923
427.9301, 245.2114
428.4122, 244.9254
428.8943, 244.7241
429.3765, 244.7049
429.8586, 244.6156
430.3407, 243.9787
430.8228, 242.3799
431.3049, 241.1319
431.7870, 240.1381
432.2692, 239.5839
432.7513, 239.9226
433.2334, 240.9485
433.7155, 241.8334
434.1976, 241.9238
434.6797, 241.2500
435.1619, 240.2149
435.6440, 238.2461
436.1261, 236.5657
436.6082, 235.6153
437.0903, 234.9555
437.5724, 233.9730
438.0546, 232.4783
438.5367, 230.9236
439.0188, 230.1472
439.5009, 230.5797
439.9830, 230.3920
440.4651, 229.1426
440.9473, 227.6077
441.4294, 225.8820
441.9115, 224.1430
442.3936, 222.7727
442.8757, 222.1639
443.3578, 222.0291
443.8400, 221.4149
444.3221, 220.2169
444.8042, 218.7874
445.2863, 216.6783
445.7684, 214.6974
446.2505, 213.8230
446.7327, 214.3158
447.2148, 214.9670
447.6969, 214.5659
448.1790, 213.3380
448.6611, 212.6113
449.1432, 212.8219
449.6254, 213.1033
450.1075, 212.5051
450.5896, 211.3288
451.0717, 210.5139
451.5538, 210.4738
452.0359, 210.7846
452.5181, 211.0190
453.0002, 211.2132
453.4823, 211.6838
453.9644, 212.6772
454.4465, 213.9081
454.9286, 214.6361
455.4108, 214.5554
455.8929, 214.9461
456.3750, 216.5478
456.8571, 218.5222
457.3392, 219.9200
457.8214, 220.6298
458.3035, 221.1775
458.7856, 221.9939
459.2677, 223.0816
459.7498, 224.4378
460.2319, 226.6160
460.7141, 228.3882
461.1962, 228.9025
461.6783, 228.9617
462.1604, 230.0195
462.6425, 232.5730
463.1246, 235.2853
463.6068, 235.6419
464.0889, 232.2558
464.5710, 230.1902
465.0531, 230.7881
465.5352, 231.3782
466.0173, 230.5715
466.4995, 228.6681
466.9816, 226.7304
467.4637, 225.4447
467.9458, 224.6189
468.4279, 223.6447
468.9100, 222.4854
469.3922, 221.2630
469.8743, 219.6799
470.3564, 218.2448
470.8385, 217.6265
471.3206, 217.8974
471.8027, 217.9326
472.2849, 216.4407
472.7670, 213.9296
473.2491, 212.5262
473.7312, 212.7775
474.2133, 213.0938
474.6954, 212.0981
475.1776, 210.3180
475.6597, 208.9654
476.1418, 208.2867
476.6239, 208.0203
477.1060, 208.3899
477.5881, 209.0672
478.0703, 208.8829
478.5524, 207.2756
479.0345, 205.3436
479.5166, 204.7567
479.9987, 205.8715
480.4808, 206.7153
480.9630, 207.0922
481.4451, 207.2491
481.9272, 207.3907
482.4093, 207.4679
482.8914, 207.2453
483.3735, 206.5498
483.8557, 205.5391
484.3378, 204.7829
484.8199, 204.7093
485.3020, 204.2702
485.7841, 202.8948
486.2662, 201.5239
486.7484, 201.1700
487.2305, 201.7372
487.7126, 202.0599
488.1947, 200.8570
488.6768, 198.2872
489.1589, 196.9662
489.6411, 197.6916
490.1232, 198.4339
490.6053, 198.5487
491.0874, 198.3364
491.5695, 198.1268
492.0516, 198.0135
492.5338, 197.8925
493.0159, 197.7554
493.4980, 197.5670
493.9801, 196.8858
494.4622, 195.2840
494.9443, 193.8772
495.4265, 193.8532
495.9086, 194.7803
496.3907, 195.5107
496.8728, 195.8713
497.3549, 195.8454
497.8370, 195.1355
498.3192, 193.9619
498.8013, 193.2224
499.2834, 193.3484
499.7655, 193.7943
500.2476, 193.5421
500.7297, 192.1236
501.2119, 191.7366
501.6940, 193.5921
502.1761, 195.6370
502.6582, 196.3555
503.1403, 195.9370
503.6224, 195.4356
504.1045, 195.5210
504.5866, 195.9556
505.0688, 195.8517
505.5509, 194.5323
506.0330, 193.7466
506.5151, 193.9628
506.9972, 194.4225
507.4793, 194.5997
507.9615, 194.4470
508.4436, 194.1894
508.9257, 193.9750
509.4078, 193.8158
509.8899, 193.8338
510.3720, 194.1895
510.8542, 194.3694
511.3363, 194.0327
511.8184, 193.5060
512.3005, 192.9975
512.7827, 192.5117
513.2648, 192.4141
513.7469, 193.3968
514.2290, 194.9807
514.7111, 195.7703
515.1932, 195.5488
515.6754, 194.6986
516.1575, 193.1680
516.6396, 191.2076
517.1217, 189.9603
517.6038, 189.6897
518.0859, 189.8824
518.5681, 191.0074
519.0502, 192.2666
519.5323, 191.8680
520.0144, 189.3456
520.4965, 186.6715
520.9786, 186.3239
521.4608, 188.7550
521.9429, 190.8160
522.4250, 193.0058
522.9071, 194.3787
523.3892, 194.0906
523.8713, 192.9086
524.3535, 191.9021
524.8356, 191.5190
525.3177, 191.6035
525.7998, 191.9991
526.2819, 192.8031
526.7640, 193.4254
527.2462, 193.7468
527.7283, 193.9531
528.2104, 193.9181
528.6925, 193.8495
529.1746, 194.2504
529.6567, 195.5511
530.1389, 197.0690
530.6210, 197.7571
531.1031, 197.6748
531.5852, 197.8906
532.0673, 198.8110
532.5494, 199.9860
533.0316, 200.9291
533.5137, 201.6540
533.9958, 202.1978
534.4779, 202.5326
534.9600, 202.7174
535.4421, 202.6818
535.9243, 202.5208
536.4064, 202.5298
536.8885, 202.8538
537.3706, 203.3983
537.8527, 203.9538
538.3348, 204.4290
538.8170, 205.1284
539.2991, 206.3218
539.7812, 207.4766
540.2633, 208.4648
540.7454, 209.1558
541.2275, 209.2957
541.7097, 208.6755
542.1918, 207.5834
542.6739, 206.8146
543.1560, 206.5420
543.6381, 206.0278
544.1202, 205.0777
544.6024, 203.8736
545.0845, 202.5262
545.5666, 201.0228
546.0487, 199.3041
546.5308, 196.8618
547.0129, 194.4185
547.4951, 193.4284
547.9772, 193.8442
548.4593, 193.9110
548.9414, 192.8690
549.4235, 191.1297
549.9056, 189.2256
550.3878, 186.9906
550.8699, 185.4605
551.3520, 185.5412
551.8341, 185.8697
552.3162, 185.3582
552.7983, 184.0501
553.2805, 182.3983
553.7626, 180.6128
554.2447, 178.8466
554.7268, 177.5282
555.2089, 176.6969
555.6910, 176.2888
556.1732, 176.7668
556.6553, 177.2065
557.1374, 176.9419
557.6195, 176.1118
558.1016, 175.3311
558.5837, 175.0403
559.0659, 174.9632
559.5480, 174.2828
560.0301, 172.8050
560.5122, 171.9389
560.9943, 172.5621
561.4764, 173.5031
561.9586, 173.3853
562.4407, 172.3074
562.9228, 171.8165
563.4049, 173.1288
563.8870, 174.8594
564.3691, 175.4936
564.8513, 175.1507
565.3334, 174.6372
565.8155, 174.2578
566.2976, 174.0863
566.7797, 174.3466
567.2618, 175.6352
567.7440, 175.8813
568.2261, 174.0581
568.7082, 172.1458
569.1903, 171.2163
569.6724, 171.1458
570.1545, 171.5286
570.6367, 172.1966
571.1188, 172.7486
571.6009, 172.0848
572.0830, 169.6236
572.5651, 168.1755
573.0472, 168.9839
573.5294, 169.9597
574.0115, 170.0076
574.4936, 169.3090
574.9757, 168.4691
575.4578, 167.7250
575.9399, 166.9608
576.4221, 165.9653
576.9042, 164.8004
577.3863, 163.7465
577.8684, 162.8082
578.3505, 162.2583
578.8326, 162.6519
579.3148, 164.0927
579.7969, 164.6680
580.2790, 163.3584
580.7611, 162.1853
581.2432, 162.4024
581.7253, 163.3397
582.2075, 163.7595
582.6896, 163.2537
583.1717, 162.4832
583.6538, 162.3402
584.1359, 162.8778
584.6180, 163.6762
585.1002, 165.1871
585.5823, 166.4229
586.0643, 167.2096
586.5464, 167.4990
587.0286, 167.0663
587.5107, 165.7900
587.9928, 164.5273
588.4749, 164.1357
588.9570, 164.4456
589.4391, 164.9354
589.9213, 165.6763
590.4034, 165.9622
590.8855, 164.9466
591.3676, 163.1415
591.8497, 162.4949
592.3318, 163.9033
592.8140, 164.9205
593.2961, 164.5278
593.7782, 163.4942
594.2603, 162.6591
594.7424, 162.1226
595.2245, 161.5228
595.7067, 160.5546
596.1888, 159.3058
596.6709, 158.2847
597.1530, 157.6450
597.6351, 156.9678
598.1172, 155.9953
598.5994, 155.1291
599.0815, 154.6881
599.5636, 154.6535
600.0457, 154.7868
600.5278, 155.0977
601.0099, 155.3707
601.4921, 155.1237
601.9742, 154.3499
602.4563, 153.5502
602.9384, 152.9138
603.4205, 152.3019
603.9026, 151.3448
604.3848, 149.9821
604.8669, 149.3450
605.3490, 150.3314
605.8311, 151.3855
606.3132, 151.1869
606.7953, 150.3197
607.2775, 150.2343
607.7596, 151.4850
608.2417, 153.2559
608.7238, 154.2652
609.2059, 154.3528
609.6880, 154.4690
610.1702, 154.4396
610.6523, 154.6533
611.1344, 155.4469
611.6165, 156.4751
612.0986, 157.2786
612.5807, 157.7285
613.0629, 157.9469
613.5450, 157.7141
614.0271, 157.3288
614.5092, 157.9458
614.9913, 159.8152
615.4734, 161.6862
615.9556, 162.7691
616.4377, 163.2509
616.9198, 163.8203
617.4019, 164.5660
617.8840, 165.2273
618.3661, 165.5267
618.8483, 165.8850
619.3304, 166.8283
619.8125, 168.2353
620.2946, 169.4676
620.7767, 170.0712
621.2589, 170.3365
621.7410, 171.1770
622.2231, 172.8925
622.7052, 174.2879
623.1873, 174.6866
623.6694, 175.2083
624.1516, 176.6847
624.6337, 178.8176
625.1158, 180.6971
625.5979, 182.0300
626.0800, 182.8736
626.5621, 182.7369
627.0443, 182.0825
627.5264, 182.8319
628.0085, 185.6208
628.4906, 188.4618
628.9727, 189.2666
629.4548, 188.0216
629.9370, 187.7659
630.4191, 189.3709
630.9012, 190.7075
631.3833, 191.0719
631.8654, 191.0840
632.3475, 191.3518
632.8297, 191.9908
633.3118, 192.8511
633.7939, 193.9348
634.2760, 195.0761
634.7581, 195.4755
635.2402, 194.9520
635.7224, 194.3671
636.2045, 193.6466
636.6866, 193.2995
637.1687, 193.9497
637.6508, 195.5488
638.1329, 197.1538
638.6151, 198.8820
639.0972, 200.1532
639.5793, 200.2992
640.0614, 199.5960
640.5435, 198.7800
641.0256, 198.1143
641.5078, 197.3247
641.9899, 195.9664
642.4720, 193.8941
642.9541, 192.4474
643.4362, 192.4064
643.9183, 192.0955
644.4005, 190.9417
644.8826, 189.4415
645.3647, 188.0910
645.8468, 187.0093
646.3289, 186.1386
646.8110, 185.7237
647.2932, 185.4385
647.7753, 184.2543
648.2574, 182.1072
648.7395, 180.3592
649.2216, 179.8513
649.7037, 179.7650
650.1859, 178.5147
650.6680, 175.7202
651.1501, 173.5334
651.6322, 172.4060
652.1143, 171.6369
652.5964, 171.1360
653.0786, 170.6261
653.5607, 169.5044
654.0428, 167.5876
654.5249, 165.6586
655.0070, 164.9963
655.4891, 165.6702
655.9713, 165.6355
656.4534, 164.5493
656.9355, 163.4210
657.4176, 162.7486
657.8997, 162.2896
658.3818, 161.7758
658.8640, 161.1760
659.3461, 160.5613
659.8282, 160.1106
660.3103, 159.5652
660.7924, 158.3303
661.2745, 156.6459
661.7567, 155.7048
662.2388, 156.1680
662.7209, 157.1114
663.2030, 156.6569
663.6851, 154.0264
664.1672, 152.5439
664.6494, 153.2306
665.1315, 153.9708
665.6136, 154.2003
666.0957, 154.0037
666.5778, 153.4867
667.0599, 152.6662
667.5421, 151.7972
668.0242, 151.1221
668.5063, 150.5593
668.9884, 149.8248
669.4705, 148.8979
669.9526, 148.2041
670.4348, 148.0221
670.9169, 148.1543
671.3990, 148.2173
671.8811, 148.3723
672.3632, 148.0206
672.8453, 146.4802
673.3275, 145.0962
673.8096, 144.7567
674.2917, 145.0571
674.7738, 145.1897
675.2559, 144.8462
675.7380, 144.4353
676.2202, 144.5293
676.7023, 145.0679
677.1844, 145.4158
677.6665, 145.4921
678.1486, 145.6117
678.6307, 146.2361
679.1129, 146.8181
679.5950, 146.1557
680.0771, 143.7905
680.5592, 142.2220
681.0413, 142.6678
681.5234, 143.6025
682.0056, 143.9403
682.4877, 143.7914
682.9698, 143.6131
683.4519, 143.6025
683.9340, 143.6984
684.4161, 143.8529
684.8983, 144.0860
685.3804, 144.1130
685.8625, 143.8024
686.3446, 143.5154
686.8267, 143.1261
687.3088, 142.9881
687.7910, 143.7943
688.2731, 145.7382
688.7552, 147.0841
689.2373, 146.3186
689.7194, 145.1293
690.2015, 145.6530
690.6837, 147.3916
691.1658, 148.2724
691.6479, 147.4107
692.1300, 145.9250
692.6121, 145.4987
693.0942, 146.3179
693.5764, 146.8721
694.0585, 146.6498
694.5406, 146.8599
695.0227, 148.1764
695.5048, 149.8660
695.9869, 151.3123
696.4691, 152.3883
696.9512, 152.8799
697.4333, 152.2572
697.9154, 151.2306
698.3975, 150.7853
698.8796, 150.8334
699.3618, 150.9196
699.8439, 150.9248
700.3260, 150.4940
700.8081, 148.9521
701.2902, 146.0260
701.7723, 144.5887
702.2545, 146.3472
702.7366, 147.5440
703.2187, 147.1476
703.7008, 146.0734
704.1829, 145.2743
704.6650, 144.8172
705.1472, 144.0313
705.6293, 142.0417
706.1114, 139.7857
706.5935, 138.9383
707.0756, 139.3003
707.5577, 139.6031
708.0399, 139.5027
708.5220, 139.1021
709.0041, 138.4582
709.4862, 137.5698
709.9683, 136.8166
710.4504, 136.1239
710.9326, 135.6498
711.4147, 135.9278
711.8968, 136.0654
712.3789, 134.9704
712.8610, 132.8949
713.3431, 131.2008
713.8253, 130.7488
714.3074, 131.0555
714.7895, 131.5988
715.2716, 132.2990
715.7537, 132.5622
716.2358, 132.2281
716.7180, 131.6201
717.2001, 130.9736
717.6822, 130.2893
718.1643, 129.5434
718.6464, 128.4921
719.1285, 127.7317
719.6107, 127.2786
720.0928, 127.1693
720.5749, 127.6423
721.0570, 128.4728
721.5391, 129.1423
722.0212, 129.4041
722.5034, 129.3690
722.9855, 129.0715
723.4676, 128.5721
723.9497, 128.2319
724.4318, 128.0841
724.9139, 128.1633
725.3961, 128.6280
725.8782, 129.2411
726.3603, 129.2959
726.8424, 128.4621
727.3245, 127.8495
727.8066, 127.5126
728.2888, 127.4121
728.7709, 127.6097
729.2530, 128.0048
729.7351, 128.5025
730.2172, 129.0600
730.6993, 129.4824
731.1815, 129.4506
731.6636, 129.1042
732.1457, 128.9680
732.6278, 129.0645
733.1099, 129.2933
733.5920, 129.7187
734.0742, 130.0796
734.5563, 129.9224
735.0384, 129.0963
735.5205, 128.5002
736.0026, 128.0259
736.4847, 127.9043
736.9669, 128.6644
737.4490, 129.5715
737.9311, 129.6545
738.4132, 128.8515
738.8953, 128.0576
739.3774, 127.9945
739.8596, 128.3558
740.3417, 128.5493
740.8238, 128.5786
741.3059, 128.4544
741.7880, 128.1310
742.2701, 127.8343
742.7523, 127.8086
743.2344, 128.0297
743.7165, 128.1305
744.1986, 127.9737
744.6807, 127.8950
745.1628, 128.1028
745.6450, 128.2654
746.1271, 128.0531
746.6092, 127.5694
747.0913, 127.1419
747.5734, 126.9112
748.0555, 126.8761
748.5377, 127.2423
749.0198, 127.8229
749.5019, 127.8130
749.9840, 127.0936
750.4661, 126.2857
750.9482, 125.6351
751.4304, 125.3272
751.9125, 125.9183
752.3946, 128.3185
752.8767, 129.4345
753.3588, 128.3193
753.8409, 127.0761
754.3231, 126.5172
754.8052, 126.3908
755.2873, 126.2988
755.7694, 126.1419
756.2515, 126.0230
756.7336, 126.2612
757.2158, 126.4640
757.6979, 125.7110
758.1800, 124.1990
758.6621, 123.1697
759.1442, 123.0653
759.6263, 123.4399
760.1085, 123.8182
760.5906, 124.1996
761.0727, 124.4431
761.5548, 124.4051
762.0369, 124.4442
762.5190, 124.8028
763.0012, 125.0987
763.4833, 124.8269
763.9654, 124.2018
764.4475, 124.1245
764.9296, 125.3636
765.4117, 126.5255
765.8939, 126.2631
766.3760, 125.1894
766.8581, 124.3325
767.3402, 123.8646
767.8223, 123.7709
768.3044, 124.0824
768.7866, 124.5844
769.2687, 124.7078
769.7508, 124.3167
770.2329, 124.0354
770.7150, 123.7932
771.1971, 123.7867
771.6793, 124.2224
772.1614, 124.8795
772.6435, 125.5640
773.1256, 126.2979
773.6077, 126.6100
774.0898, 125.6208
774.5720, 124.7647
775.0541, 125.8033
775.5362, 127.7429
776.0183, 128.1974
776.5004, 126.6283
776.9825, 125.0966
777.4647, 125.9425
777.9468, 128.4987
778.4289, 129.2011
778.9110, 127.6157
779.3931, 126.5201
779.8752, 126.6731
780.3574, 127.3535
780.8395, 128.2095
781.3216, 129.1090
781.8037, 129.3328
782.2858, 128.1189
782.7679, 127.2956
783.2501, 127.5056
783.7322, 128.1113
784.2143, 128.6260
784.6964, 129.0692
785.1785, 129.7961
785.6606, 131.0074
786.1428, 131.9554
786.6249, 131.2996
787.1070, 129.5486
787.5891, 129.0065
788.0712, 129.8517
788.5533, 130.4215
789.0355, 129.7667
789.5176, 128.9300
789.9997, 129.6537
790.4818, 132.3234
790.9639, 134.1337
791.4460, 134.5645
791.9282, 134.8407
792.4103, 135.4236
792.8924, 135.8380
793.3745, 135.3510
793.8566, 134.1630
794.3387, 133.5104
794.8209, 134.3441
795.3030, 135.4230
795.7851, 135.2404
796.2672, 134.4656
796.7493, 134.7308
797.2314, 136.1750
797.7136, 137.5484
798.1957, 138.0118
798.6778, 137.9896
799.1599, 138.5670
799.6420, 139.9674
800.1241, 141.0742
800.6063, 142.0437
801.0884, 142.4396
801.5705, 141.2643
802.0526, 139.7964
802.5347, 139.8149
803.0168, 141.5546
803.4990, 142.9362
803.9811, 143.1506
804.4632, 143.0657
804.9453, 142.7684
805.4274, 142.7282
805.9095, 143.8764
806.3917, 146.1675
806.8738, 148.3814
807.3559, 149.5739
807.8380, 150.0250
808.3201, 150.4012
808.8022, 150.6855
809.2844, 150.1948
809.7665, 148.5769
810.2486, 147.2894
810.7307, 147.5094
811.2128, 148.7066
811.6949, 149.2547
812.1771, 148.8963
812.6592, 148.3789
813.1413, 147.5261
813.6234, 146.7140
814.1055, 146.0423
814.5876, 145.5457
815.0698, 145.3580
815.5519, 145.4747
816.0340, 145.4613
816.5161, 144.9448
816.9982, 144.2367
817.4803, 143.6077
817.9625, 143.0964
818.4446, 142.8730
818.9267, 142.9460
819.4088, 142.9609
819.8909, 142.6094
820.3730, 141.9794
820.8552, 141.4424
821.3373, 141.1186
821.8194, 140.2393
822.3015, 138.1040
822.7836, 136.4337
823.2657, 136.8188
823.7479, 138.1988
824.2300, 138.3970
824.7121, 136.9926
825.1942, 135.8479
825.6763, 135.5355
826.1584, 135.3672
826.6406, 135.0723
827.1227, 134.6142
827.6048, 133.6998
828.0869, 132.4497
828.5690, 131.9074
829.0511, 133.4025
829.5333, 135.5033
830.0154, 135.4647
830.4975, 133.7190
830.9796, 132.3858
831.4617, 131.8825
831.9438, 131.6396
832.4260, 131.2724
832.9081, 130.8085
833.3902, 130.3029
833.8723, 129.6313
834.3544, 129.2307
834.8365, 128.9755
835.3187, 129.1712
835.8008, 130.7048
836.2829, 132.3104
836.7650, 132.0699
837.2471, 129.7689
837.7292, 128.1630
838.2114, 128.8799
838.6935, 129.7693
839.1756, 129.2585
839.6577, 128.1863
840.1398, 127.9318
840.6219, 128.5110
841.1041, 128.7384
841.5862, 127.7171
842.0683, 126.2855
842.5504, 126.0538
843.0325, 126.8193
843.5146, 127.1842
843.9968, 126.9716
844.4789, 126.7454
844.9610, 126.8948
845.4431, 126.9940
845.9252, 126.0924
846.4073, 123.6938
846.8895, 122.8442
847.3716, 125.3423
847.8537, 126.9907
848.3358, 126.1978
848.8179, 124.7241
849.3000, 124.1436
849.7822, 124.3717
850.2643, 124.3506
850.7464, 123.3650
851.2285, 122.6705
851.7106, 123.4696
852.1927, 124.6233
852.6749, 124.6403
853.1570, 123.7484
853.6391, 123.1530
854.1212, 123.4095
854.6033, 123.9261
855.0854, 123.9915
855.5676, 123.6610
856.0497, 123.1355
856.5318, 122.4091
857.0139, 121.7014
857.4960, 121.0380
857.9781, 120.5973
858.4603, 120.6329
858.9424, 121.0900
859.4245, 121.3247
859.9066, 121.2305
860.3887, 121.0932
860.8708, 120.6736
861.3530, 120.4821
861.8351, 121.2226
862.3172, 122.2439
862.7993, 122.2332
863.2814, 120.7764
863.7635, 119.4739
864.2457, 118.7241
864.7278, 118.6460
865.2099, 119.8887
865.6920, 121.6629
866.1741, 122.6305
866.6563, 122.5442
867.1384, 122.0358
867.6205, 121.5495
868.1026, 121.0240
868.5847, 120.1889
869.0668, 119.1542
869.5490, 118.6960
870.0311, 118.9416
870.5132, 119.3054
870.9953, 119.4679
871.4774, 119.4866
871.9595, 119.4602
872.4417, 119.3567
872.9238, 119.3990
873.4059, 119.8212
873.8880, 120.0176
874.3701, 119.6087
874.8522, 119.0529
875.3344, 118.6598
875.8165, 118.4474
876.2986, 118.4572
876.7807, 119.0214
877.2628, 119.3296
877.7449, 118.9594
878.2271, 118.3288
878.7092, 117.6534
879.1913, 117.0532
879.6734, 116.6974
880.1555, 116.6432
880.6376, 116.7463
881.1198, 117.0957
881.6019, 117.4017
882.0840, 116.8728
882.5661, 115.7661
883.0482, 115.2852
883.5303, 115.7246
884.0125, 116.3750
884.4946, 116.6826
884.9767, 116.6474
885.4588, 116.1198
885.9409, 114.8849
886.4230, 114.4500
886.9052, 115.3463
887.3873, 116.0629
887.8694, 115.7217
888.3515, 114.8687
888.8336, 114.4426
889.3157, 114.5454
889.7979, 114.2866
890.2800, 112.8222
890.7621, 112.0588
891.2442, 113.3499
891.7263, 114.8633
892.2084, 114.7296
892.6906, 113.4134
893.1727, 112.7796
893.6548, 113.6461
894.1369, 114.6861
894.6190, 115.1715
895.1011, 115.2288
895.5833, 114.8271
896.0654, 114.1478
896.5475, 113.5592
897.0296, 113.1884
897.5117, 113.0138
897.9938, 113.1272
898.4760, 113.2935
898.9581, 112.6752
899.4402, 111.3783
899.9223, 110.7377
900.4044, 111.0076
900.8865, 111.6582
901.3687, 112.4564
901.8508, 113.2053
902.3329, 113.4709
902.8150, 113.1903
903.2971, 112.7057
903.7792, 111.6964
904.2614, 111.0402
904.7435, 111.2775
905.2256, 111.7466
905.7077, 111.9296
906.1898, 111.8311
906.6719, 111.4841
907.1541, 110.4518
907.6362, 109.8792
908.1183, 110.6576
908.6004, 111.4120
909.0825, 110.9771
909.5646, 109.8851
910.0468, 109.1183
910.5289, 108.9365
911.0110, 108.9921
911.4931, 109.0472
911.9752, 109.2218
912.4573, 109.8953
912.9395, 110.7125
913.4216, 110.8522
913.9037, 110.2849
914.3858, 109.6287
914.8679, 109.2421
915.3500, 109.1054
915.8321, 109.2637
916.3142, 109.6727
916.7963, 109.9755
917.2784, 110.1544
917.7606, 110.4271
918.2427, 110.9444
918.7248, 111.2438
919.2069, 110.7122
919.6890, 109.5304
920.1711, 109.1272
920.6533, 109.9087
921.1354, 110.5101
921.6175, 110.8935
922.0996, 110.9865
922.5817, 110.4814
923.0638, 109.7820
923.5460, 109.4944
924.0281, 109.6705
924.5102, 109.9283
924.9923, 110.4745
925.4744, 110.7676
925.9565, 110.2649
926.4387, 109.6999
926.9208, 109.9384
927.4029, 110.7149
927.8850, 110.9599
928.3671, 110.1133
928.8492, 109.6198
929.3314, 111.1653
929.8135, 113.0305
930.2956, 113.1009
930.7777, 111.9827
931.2598, 111.1286
931.7419, 110.9175
932.2241, 111.0315
932.7062, 111.2452
933.1883, 111.5743
933.6704, 112.2992
934.1525, 113.1960
934.6346, 113.0517
935.1168, 111.7941
935.5989, 110.7325
936.0810, 110.4997
936.5631, 110.5760
937.0452, 110.2244
937.5273, 109.4876
938.0095, 109.1174
938.4916, 109.2480
938.9737, 109.1482
939.4558, 108.4905
939.9379, 107.9701
940.4200, 108.0990
940.9022, 108.6938
941.3843, 109.3419
941.8664, 110.2306
942.3485, 110.5963
942.8306, 109.9788
943.3127, 109.4503
943.7949, 109.4147
944.2770, 109.4894
944.7591, 109.3279
945.2412, 108.9635
945.7233, 108.6365
946.2054, 108.4958
946.6876, 108.1838
947.1697, 107.1384
947.6518, 106.2971
948.1339, 106.5459
948.6160, 107.3939
949.0981, 108.2705
949.5803, 108.9175
950.0624, 108.7393
950.5445, 106.6643
951.0266, 104.6801
951.5087, 105.3172
951.9908, 107.1234
952.4730, 107.5786
952.9551, 106.7539
953.4372, 106.0757
953.9193, 106.1369
954.4014, 106.3163
954.8835, 105.8189
955.3657, 104.9451
955.8478, 104.5396
956.3299, 104.5699
956.8120, 104.7952
957.2941, 105.1688
957.7762, 105.8683
958.2584, 107.0903
958.7405, 108.3782
959.2226, 108.7047
959.7047, 109.1866
960.1868, 109.4236
960.6689, 108.6947
961.1511, 108.7633
961.6332, 107.2685
962.1153, 105.5607
962.5974, 104.7880
963.0795, 104.8293
963.5616, 105.1717
964.0438, 105.9853
964.5259, 106.7466
965.0080, 107.6573
965.4901, 108.2524
965.9722, 108.2768
966.4543, 107.9897
966.9365, 107.5800
967.4186, 107.0749
967.9007, 106.6344
968.3828, 105.8428
968.8649, 105.7561
969.3470, 107.2252
969.8292, 108.8409
970.3113, 109.7961
970.7934, 110.2384
971.2755, 110.3285
971.7576, 110.1524
972.2397, 110.2853
972.7219, 111.5479
973.2040, 112.5660
973.6861, 112.0896
974.1682, 111.1584
974.6503, 110.9472
975.1324, 111.3746
975.6146, 111.9926
976.0967, 112.6184
976.5788, 112.8124
977.0609, 111.5807
977.5430, 110.1555
978.0251, 110.4371
978.5073, 111.8528
978.9894, 113.3007
979.4715, 114.4785
979.9536, 114.9298
980.4357, 114.3702
980.9178, 113.7359
981.4000, 114.7617
981.8821, 116.7989
982.3642, 117.1338
982.8463, 115.9440
983.3284, 114.8945
983.8105, 114.3933
984.2927, 114.5127
984.7748, 115.4398
985.2569, 116.5515
985.7390, 116.0467
986.2211, 113.7602
986.7032, 113.6108
987.1854, 116.1357
987.6675, 117.9955
988.1496, 118.0569
988.6317, 117.4132
989.1138, 117.0246
989.5959, 116.8221
990.0781, 116.4752
990.5602, 115.7741
991.0423, 115.5725
991.5244, 116.2040
992.0065, 116.7212
992.4886, 116.5138
992.9708, 116.2976
993.4529, 117.0774
993.9350, 118.7173
994.4171, 119.6092
994.8992, 119.1846
995.3813, 118.8951
995.8635, 118.9111
996.3456, 118.9239
996.8277, 118.8005
997.3098, 118.5983
997.7919, 118.4158
998.2740, 118.2487
998.7562, 117.9407
999.2383, 117.0674
999.7204, 116.6099
1000.203, 117.2747
1000.685, 117.9907
1001.167, 117.8164
1001.649, 117.2852
1002.131, 117.3725
1002.613, 118.2087
1003.095, 118.9913
1003.577, 119.5077
1004.059, 119.7079
1004.542, 119.2173
1005.024, 118.6787
1005.506, 118.7789
1005.988, 119.3518
1006.470, 120.0158
1006.952, 120.6278
1007.434, 120.8996
1007.916, 120.1491
1008.398, 119.4634
1008.881, 120.1737
1009.363, 121.4524
1009.845, 122.1383
1010.327, 122.2090
1010.809, 122.0368
1011.291, 121.7901
1011.773, 121.7733
1012.255, 122.3556
1012.738, 122.8708
1013.220, 124.1083
1013.702, 124.9615
1014.184, 126.3627
1014.666, 128.1562
1015.148, 129.1854
1015.630, 128.8837
1016.112, 128.3585
1016.594, 128.9800
1017.077, 130.3891
1017.559, 131.6801
1018.041, 132.8822
1018.523, 134.1395
1019.005, 135.4760
1019.487, 136.9389
1019.969, 138.5761
1020.451, 140.1918
1020.934, 141.4111
1021.416, 142.3581
1021.898, 143.7281
1022.380, 145.5274
1022.862, 148.0000
1023.344, 151.2506
1023.826, 154.3340
1024.308, 156.6619
1024.791, 158.5305
1025.273, 160.3820
1025.755, 162.2368
1026.237, 164.6636
1026.719, 167.7393
1027.201, 170.8089
1027.683, 173.7646
1028.165, 176.4968
1028.647, 178.7778
1029.130, 181.0982
1029.612, 184.5103
1030.094, 189.1266
1030.576, 193.6147
1031.058, 198.2252
1031.540, 201.7587
1032.022, 203.4945
1032.504, 205.1647
1032.986, 208.0920
1033.469, 211.6786
1033.951, 214.5466
1034.433, 216.4830
1034.915, 219.0156
1035.397, 222.6030
1035.879, 225.8247
1036.361, 228.4234
1036.843, 230.5559
1037.326, 232.3524
1037.808, 233.7500
1038.290, 234.6221
1038.772, 235.0354
1039.254, 234.6192
1039.736, 232.8085
1040.218, 231.0737
1040.700, 229.9265
1041.182, 228.7052
1041.665, 227.3240
1042.147, 225.4544
1042.629, 222.2389
1043.111, 217.3369
1043.593, 212.5639
1044.075, 207.2414
1044.557, 203.0605
1045.039, 201.9172
1045.521, 200.5161
1046.004, 196.1201
1046.486, 189.9653
1046.968, 184.6939
1047.450, 180.5650
1047.932, 176.9308
1048.414, 174.0854
1048.896, 171.2088
1049.378, 167.4074
1049.861, 164.1537
1050.343, 163.3066
1050.825, 163.5020
1051.307, 161.7210
1051.789, 157.3309
1052.271, 153.7225
1052.753, 151.9081
1053.235, 150.4942
1053.718, 149.4773
1054.200, 148.3155
1054.682, 146.1862
1055.164, 143.7820
1055.646, 142.5321
1056.128, 142.7061
1056.610, 142.7769
1057.092, 142.1357
1057.574, 141.6028
1058.057, 141.8129
1058.539, 141.9057
1059.021, 141.0497
1059.503, 139.6639
1059.985, 138.4288
1060.467, 137.4611
1060.949, 137.0736
1061.431, 138.1019
1061.913, 138.7371
1062.396, 138.1441
1062.878, 137.0255
1063.360, 135.6077
1063.842, 134.2027
1064.324, 133.4004
1064.806, 133.2279
1065.288, 132.6706
1065.770, 131.1366
1066.253, 129.4461
1066.735, 127.7819
1067.217, 126.2435
1067.699, 124.7810
1068.181, 123.5515
1068.663, 123.0346
1069.145, 123.1455
1069.627, 122.6227
1070.109, 120.3318
1070.592, 118.4401
1071.074, 118.3447
1071.556, 118.5787
1072.038, 118.1217
1072.520, 117.2182
1073.002, 116.3013
1073.484, 115.4343
1073.966, 114.4827
1074.448, 113.3473
1074.931, 112.2243
1075.413, 111.1214
1075.895, 110.1580
1076.377, 109.2992
1076.859, 108.7073
1077.341, 108.7942
1077.823, 109.3960
1078.305, 109.6706
1078.788, 109.2601
1079.270, 108.7302
1079.752, 108.2734
1080.234, 107.8687
1080.716, 107.7086
1081.198, 107.4476
1081.680, 106.2052
1082.162, 104.4756
1082.644, 104.2513
1083.127, 106.5993
1083.609, 108.1488
1084.091, 106.4579
1084.573, 104.6095
1085.055, 104.5263
1085.537, 105.2287
1086.019, 106.0127
1086.501, 106.5290
1086.984, 106.0125
1087.466, 104.1103
1087.948, 102.9769
1088.430, 104.3239
1088.912, 105.6653
1089.394, 105.4328
1089.876, 104.8458
1090.358, 105.1463
1090.840, 105.9771
1091.323, 106.3571
1091.805, 106.0864
1092.287, 105.9486
1092.769, 106.2548
1093.251, 106.7270
1093.733, 107.6161
1094.215, 108.2711
1094.697, 108.0613
1095.179, 107.3213
1095.662, 106.4376
1096.144, 105.5426
1096.626, 105.2806
1097.108, 106.4892
1097.590, 107.3609
1098.072, 107.2375
1098.554, 106.6721
1099.036, 105.5065
1099.519, 104.4263
1100.001, 104.4120
1100.483, 105.3719
1100.965, 106.2681
1101.447, 107.1013
1101.929, 107.3170
1102.411, 106.2852
1102.893, 105.1900
1103.375, 104.4427
1103.858, 104.0218
1104.340, 104.0277
1104.822, 104.3101
1105.304, 104.4281
1105.786, 104.3751
1106.268, 103.9630
1106.750, 102.7467
1107.232, 101.7100
1107.714, 101.4666
1108.197, 101.2528
1108.679, 100.1023
1109.161, 98.62336
1109.643, 98.38440
1110.125, 99.75231
1110.607, 100.5476
1111.089, 100.5621
1111.571, 99.99825
1112.054, 98.22573
1112.536, 96.60454
1113.018, 95.96622
1113.500, 95.91881
1113.982, 96.00328
1114.464, 96.22210
1114.946, 95.88994
1115.428, 94.15205
1115.911, 93.30010
1116.393, 94.01106
1116.875, 94.85384
1117.357, 95.48965
1117.839, 95.76766
1118.321, 95.43342
1118.803, 94.58653
1119.285, 93.79116
1119.767, 92.93839
1120.250, 92.42579
1120.732, 92.39506
1121.214, 92.42811
1121.696, 92.47478
1122.178, 92.41770
1122.660, 92.09029
1123.142, 91.64780
1123.624, 91.50663
1124.106, 91.70271
1124.589, 91.94444
1125.071, 92.28754
1125.553, 92.48145
1126.035, 92.47939
1126.517, 92.26730
1126.999, 91.71119
1127.481, 91.23100
1127.963, 91.57314
1128.446, 92.63488
1128.928, 93.23318
1129.410, 93.34264
1129.892, 93.16164
1130.374, 92.67284
1130.856, 92.19398
1131.338, 91.85289
1131.820, 91.60988
1132.302, 91.41017
1132.785, 91.31107
1133.267, 91.62224
1133.749, 92.29124
1134.231, 92.42396
1134.713, 91.99232
1135.195, 91.30302
1135.677, 90.44833
1136.159, 90.11277
1136.641, 90.86499
1137.124, 91.93336
1137.606, 91.88856
1138.088, 91.07258
1138.570, 90.72688
1139.052, 90.79771
1139.534, 91.18037
1140.016, 91.75078
1140.498, 91.81065
1140.981, 91.04453
1141.463, 90.23186
1141.945, 90.21935
1142.427, 90.65848
1142.909, 91.04009
1143.391, 91.36263
1143.873, 91.67986
1144.355, 91.92316
1144.838, 91.74129
1145.320, 91.14037
1145.802, 90.82407
1146.284, 91.27906
1146.766, 92.14182
1147.248, 93.51485
1147.730, 94.68864
1148.212, 94.31895
1148.694, 93.36035
1149.177, 93.68266
1149.659, 95.18099
1150.141, 96.38029
1150.623, 96.73440
1151.105, 96.59148
1151.587, 95.68942
1152.069, 94.93199
1152.551, 95.11109
1153.033, 95.60088
1153.516, 95.73988
1153.998, 95.67770
1154.480, 95.87569
1154.962, 96.39956
1155.444, 96.82553
1155.926, 96.92419
1156.408, 97.03405
1156.890, 97.46397
1157.373, 97.69669
1157.855, 97.01113
1158.337, 96.27567
1158.819, 96.85849
1159.301, 98.38535
1159.783, 98.79496
1160.265, 97.41517
1160.747, 96.25926
1161.229, 95.44698
1161.712, 94.87987
1162.194, 94.84122
1162.676, 94.65752
1163.158, 93.57038
1163.640, 92.28667
1164.122, 92.25533
1164.604, 93.53835
1165.086, 93.76753
1165.568, 92.46804
1166.051, 91.54948
1166.533, 91.22697
1167.015, 91.23619
1167.497, 91.56247
1167.979, 91.92397
1168.461, 92.02984
1168.943, 91.94347
1169.425, 91.86076
1169.908, 91.78256
1170.390, 91.70238
1170.872, 91.62222
1171.354, 91.41988
1171.836, 91.06381
1172.318, 90.69963
1172.800, 90.39742
1173.282, 90.31787
1173.765, 90.79906
1174.247, 91.58796
1174.729, 91.92714
1175.211, 91.91582
1175.693, 91.83701
1176.175, 91.76216
1176.657, 91.97300
1177.139, 92.47625
1177.621, 92.42842
1178.104, 91.01539
1178.586, 89.45744
1179.068, 89.33752
1179.550, 89.86987
1180.032, 89.94212
1180.514, 89.86179
1180.996, 90.58770
1181.478, 91.83275
1181.960, 92.05106
1182.443, 90.63691
1182.925, 89.44009
1183.407, 89.64151
1183.889, 90.27689
1184.371, 91.03951
1184.853, 91.71201
1185.335, 92.23386
1185.817, 92.47656
1186.300, 92.21621
1186.782, 91.46569
1187.264, 90.50733
1187.746, 89.04737
1188.228, 88.12341
1188.710, 88.40660
1189.192, 88.61717
1189.674, 88.01150
1190.156, 87.43929
1190.639, 87.78027
1191.121, 88.53966
1191.603, 88.62039
1192.085, 87.96457
1192.567, 87.37017
1193.049, 86.71445
1193.531, 86.54542
1194.013, 87.15895
1194.495, 87.45488
1194.978, 86.79308
1195.460, 86.27048
1195.942, 87.20107
1196.424, 86.51427
1196.906, 86.19353
1197.388, 86.41875
1197.870, 85.47617
1198.352, 85.68330
1198.835, 86.39668
1199.317, 87.40129
1199.799, 87.60566
1200.281, 86.42273
1200.763, 84.87443
1201.245, 83.96400
1201.727, 83.68560
1202.209, 84.40382
1202.692, 85.55940
1203.174, 85.95255
1203.656, 85.74357
1204.138, 85.59370
1204.620, 85.65789
1205.102, 85.80688
1205.584, 86.02219
1206.066, 86.04992
1206.548, 85.56332
1207.031, 84.98193
1207.513, 84.48199
1207.995, 84.18371
1208.477, 84.19289
1208.959, 84.49448
1209.441, 85.27161
1209.923, 86.49412
1210.405, 86.90395
1210.887, 85.34319
1211.370, 84.30303
1211.852, 84.69889
1212.334, 85.02628
1212.816, 84.30927
1213.298, 83.63464
1213.780, 84.07492
1214.262, 85.14591
1214.744, 85.58555
1215.227, 85.30225
1215.709, 85.43667
1216.191, 86.18779
1216.673, 86.55843
1217.155, 86.44219
1217.637, 85.72781
1218.119, 84.27719
1218.601, 82.74992
1219.083, 81.76218
1219.566, 81.37285
1220.048, 82.09756
1220.530, 81.83735
1221.012, 82.17975
1221.494, 82.81997
1221.976, 82.82316
1222.458, 83.81213
1222.940, 84.28101
1223.422, 83.57641
1223.905, 82.86135
1224.387, 83.16364
1224.869, 83.92620
1225.351, 84.91160
1225.833, 85.70879
1226.315, 85.78810
1226.797, 85.33287
1227.279, 84.41039
1227.762, 83.30000
1228.244, 82.93593
1228.726, 83.79529
1229.208, 84.28234
1229.690, 83.28621
1230.172, 82.62617
1230.654, 83.24870
1231.136, 84.07520
1231.619, 84.36628
1232.101, 84.46987
1232.583, 85.03857
1233.065, 85.90400
1233.547, 85.88163
1234.029, 85.99749
1234.511, 86.14954
1234.993, 85.26066
1235.475, 85.70890
1235.958, 84.71139
1236.440, 83.77166
1236.922, 83.79058
1237.404, 84.14517
1237.886, 83.92028
1238.368, 83.48307
1238.850, 84.30003
1239.332, 85.89041
1239.814, 86.13713
1240.297, 85.23563
1240.779, 84.68066
1241.261, 84.72259
1241.743, 84.50333
1242.225, 83.55714
1242.707, 82.60971
1243.189, 82.17800
1243.671, 82.17500
1244.154, 82.78133
1244.636, 83.53970
1245.118, 84.04621
1245.600, 84.29777
1246.082, 84.45574
1246.564, 84.46255
1247.046, 83.78938
1247.528, 81.71133
1248.010, 80.74311
1248.493, 82.62621
1248.975, 83.73768
1249.457, 82.36362
1249.939, 81.10455
1250.421, 81.56968
1250.903, 82.72829
1251.385, 83.23168
1251.867, 83.19231
1252.349, 83.32442
1252.832, 83.69151
1253.314, 83.20047
1253.796, 81.78218
1254.278, 81.19654
1254.760, 81.82157
1255.242, 82.63748
1255.724, 83.09114
1256.206, 83.50448
1256.689, 84.43383
1257.171, 85.21972
1257.653, 84.31400
1258.135, 82.79660
1258.617, 82.71923
1259.099, 83.46192
1259.581, 83.37142
1260.063, 82.47015
1260.546, 82.04895
1261.028, 82.57639
1261.510, 83.35154
1261.992, 84.49746
1262.474, 85.21178
1262.956, 85.11166
1263.438, 84.54833
1263.920, 83.21069
1264.402, 81.93504
1264.885, 81.84636
1265.367, 82.61276
1265.849, 83.05786
1266.331, 83.14436
1266.813, 83.20061
1267.295, 83.32480
1267.777, 82.74076
1268.259, 81.14278
1268.741, 80.44299
1269.224, 81.51315
1269.706, 83.01215
1270.188, 83.69437
1270.670, 83.97839
1271.152, 84.90466
1271.634, 84.47263
1272.116, 85.27055
1272.598, 83.71481
1273.081, 82.74118
1273.563, 82.48137
1274.045, 82.67758
1274.527, 83.18584
1275.009, 83.48942
1275.491, 83.09509
1275.973, 82.97733
1276.455, 84.22546
1276.938, 85.11279
1277.420, 84.03162
1277.902, 82.77326
1278.384, 83.27735
1278.866, 84.64599
1279.348, 84.90342
1279.830, 84.10847
1280.312, 83.85641
1280.794, 84.30885
1281.276, 84.70277
1281.759, 85.03059
1282.241, 85.17856
1282.723, 85.13422
1283.205, 84.66170
1283.687, 83.58707
1284.169, 82.30274
1284.651, 81.12610
1285.133, 80.37232
1285.616, 80.57563
1286.098, 81.73148
##END=



