##NAMES=Tyrrellite
##RRUFFID=R060481
##IDEAL CHEMISTRY=Cu^2+^(Co^3+^,Ni^3+^)_2_Se^2-^_4_
##LOCALITY=Eagle Claims, near Hal Lake, Beaverlodge Lake area, Saskatchewan, Canada
##OWNER=RRUFF
##SOURCE=Michael Scott
##DESCRIPTION=Gray metallic bleb
##STATUS=The identification of this mineral is confirmed by single-crystal X-ray diffraction and chemical analysis.
##URL=rruff.info/R060481
##MEASURED CHEMISTRY=Cu_1.00_(Co_1.37_Ni_0.63_)_Î£=2_Se_4.00_
8.975323e+001, 0.000000e+000
9.023535e+001, 1.478775e+002
9.071747e+001, 1.496669e+002
9.119958e+001, 1.497410e+002
9.168170e+001, 1.502207e+002
9.216382e+001, 1.487193e+002
9.264594e+001, 1.447245e+002
9.312805e+001, 1.390047e+002
9.361017e+001, 1.328322e+002
9.409229e+001, 1.273184e+002
9.457440e+001, 1.227115e+002
9.505651e+001, 1.182926e+002
9.553863e+001, 1.138589e+002
9.602074e+001, 1.097415e+002
9.650286e+001, 1.063493e+002
9.698498e+001, 1.037883e+002
9.746709e+001, 1.015743e+002
9.794921e+001, 9.899765e+001
9.843133e+001, 9.554748e+001
9.891344e+001, 9.241322e+001
9.939556e+001, 8.986996e+001
9.987768e+001, 8.782275e+001
1.003598e+002, 8.606100e+001
1.008419e+002, 8.437363e+001
1.013240e+002, 8.294234e+001
1.018061e+002, 8.217039e+001
1.022883e+002, 8.262123e+001
1.027704e+002, 8.333823e+001
1.032525e+002, 8.351463e+001
1.037346e+002, 8.314050e+001
1.042167e+002, 8.229433e+001
1.046988e+002, 8.086660e+001
1.051810e+002, 7.902022e+001
1.056631e+002, 7.691917e+001
1.061452e+002, 7.443954e+001
1.066273e+002, 7.172035e+001
1.071094e+002, 6.933457e+001
1.075915e+002, 6.742847e+001
1.080737e+002, 6.571169e+001
1.085558e+002, 6.401582e+001
1.090379e+002, 6.237558e+001
1.095200e+002, 6.091249e+001
1.100021e+002, 5.976805e+001
1.104842e+002, 5.901831e+001
1.109664e+002, 5.821647e+001
1.114485e+002, 5.723206e+001
1.119306e+002, 5.630107e+001
1.124127e+002, 5.551020e+001
1.128948e+002, 5.488625e+001
1.133769e+002, 5.441932e+001
1.138591e+002, 5.410981e+001
1.143412e+002, 5.407087e+001
1.148233e+002, 5.399842e+001
1.153054e+002, 5.397883e+001
1.157875e+002, 5.389080e+001
1.162696e+002, 5.358393e+001
1.167517e+002, 5.299560e+001
1.172339e+002, 5.224116e+001
1.177160e+002, 5.157150e+001
1.181981e+002, 5.091065e+001
1.186802e+002, 5.043648e+001
1.191623e+002, 5.026375e+001
1.196444e+002, 5.032793e+001
1.201266e+002, 5.046527e+001
1.206087e+002, 5.064243e+001
1.210908e+002, 5.081928e+001
1.215729e+002, 5.095496e+001
1.220550e+002, 5.111629e+001
1.225371e+002, 5.112399e+001
1.230193e+002, 5.069374e+001
1.235014e+002, 4.975402e+001
1.239835e+002, 4.897733e+001
1.244656e+002, 4.885101e+001
1.249477e+002, 4.900225e+001
1.254298e+002, 4.911444e+001
1.259120e+002, 4.904756e+001
1.263941e+002, 4.892231e+001
1.268762e+002, 4.901557e+001
1.273583e+002, 4.941537e+001
1.278404e+002, 4.991363e+001
1.283225e+002, 5.055870e+001
1.288047e+002, 5.122608e+001
1.292868e+002, 5.175021e+001
1.297689e+002, 5.202223e+001
1.302510e+002, 5.205430e+001
1.307331e+002, 5.201674e+001
1.312152e+002, 5.186258e+001
1.316974e+002, 5.167855e+001
1.321795e+002, 5.144602e+001
1.326616e+002, 5.119458e+001
1.331437e+002, 5.097314e+001
1.336258e+002, 5.081210e+001
1.341079e+002, 5.069677e+001
1.345901e+002, 5.079161e+001
1.350722e+002, 5.104391e+001
1.355543e+002, 5.149511e+001
1.360364e+002, 5.220859e+001
1.365185e+002, 5.317281e+001
1.370006e+002, 5.428820e+001
1.374828e+002, 5.545784e+001
1.379649e+002, 5.670978e+001
1.384470e+002, 5.788550e+001
1.389291e+002, 5.897896e+001
1.394112e+002, 5.999505e+001
1.398933e+002, 6.084857e+001
1.403755e+002, 6.144782e+001
1.408576e+002, 6.215785e+001
1.413397e+002, 6.363133e+001
1.418218e+002, 6.579514e+001
1.423039e+002, 6.778780e+001
1.427860e+002, 6.926027e+001
1.432681e+002, 7.027778e+001
1.437503e+002, 7.110555e+001
1.442324e+002, 7.187781e+001
1.447145e+002, 7.232939e+001
1.451966e+002, 7.233641e+001
1.456787e+002, 7.189408e+001
1.461608e+002, 7.105312e+001
1.466430e+002, 6.983587e+001
1.471251e+002, 6.823193e+001
1.476072e+002, 6.632069e+001
1.480893e+002, 6.353252e+001
1.485714e+002, 6.078277e+001
1.490535e+002, 5.862366e+001
1.495357e+002, 5.716757e+001
1.500178e+002, 5.604870e+001
1.504999e+002, 5.474579e+001
1.509820e+002, 5.312355e+001
1.514641e+002, 5.158429e+001
1.519462e+002, 5.017097e+001
1.524284e+002, 4.883015e+001
1.529105e+002, 4.751009e+001
1.533926e+002, 4.619874e+001
1.538747e+002, 4.490770e+001
1.543568e+002, 4.366994e+001
1.548389e+002, 4.249047e+001
1.553211e+002, 4.137739e+001
1.558032e+002, 4.031699e+001
1.562853e+002, 3.932401e+001
1.567674e+002, 3.843793e+001
1.572495e+002, 3.768184e+001
1.577316e+002, 3.702401e+001
1.582138e+002, 3.633212e+001
1.586959e+002, 3.552996e+001
1.591780e+002, 3.478168e+001
1.596601e+002, 3.417367e+001
1.601422e+002, 3.365533e+001
1.606243e+002, 3.310397e+001
1.611065e+002, 3.244401e+001
1.615886e+002, 3.170300e+001
1.620707e+002, 3.102488e+001
1.625528e+002, 3.037363e+001
1.630349e+002, 2.981128e+001
1.635170e+002, 2.939228e+001
1.639991e+002, 2.910861e+001
1.644813e+002, 2.889084e+001
1.649634e+002, 2.869097e+001
1.654455e+002, 2.853821e+001
1.659276e+002, 2.849432e+001
1.664097e+002, 2.868586e+001
1.668918e+002, 2.889404e+001
1.673740e+002, 2.881531e+001
1.678561e+002, 2.837880e+001
1.683382e+002, 2.799340e+001
1.688203e+002, 2.798371e+001
1.693024e+002, 2.814916e+001
1.697845e+002, 2.825020e+001
1.702667e+002, 2.816169e+001
1.707488e+002, 2.797512e+001
1.712309e+002, 2.791046e+001
1.717130e+002, 2.803581e+001
1.721951e+002, 2.816308e+001
1.726772e+002, 2.819463e+001
1.731594e+002, 2.818519e+001
1.736415e+002, 2.822406e+001
1.741236e+002, 2.839117e+001
1.746057e+002, 2.864634e+001
1.750878e+002, 2.873311e+001
1.755699e+002, 2.845169e+001
1.760521e+002, 2.821727e+001
1.765342e+002, 2.810652e+001
1.770163e+002, 2.812170e+001
1.774984e+002, 2.826003e+001
1.779805e+002, 2.853184e+001
1.784626e+002, 2.893903e+001
1.789448e+002, 2.932731e+001
1.794269e+002, 2.971754e+001
1.799090e+002, 3.006976e+001
1.803911e+002, 3.030643e+001
1.808732e+002, 3.048333e+001
1.813553e+002, 3.074867e+001
1.818375e+002, 3.125973e+001
1.823196e+002, 3.207304e+001
1.828017e+002, 3.253814e+001
1.832838e+002, 3.260221e+001
1.837659e+002, 3.245803e+001
1.842480e+002, 3.215454e+001
1.847301e+002, 3.171508e+001
1.852123e+002, 3.117813e+001
1.856944e+002, 3.057463e+001
1.861765e+002, 2.989431e+001
1.866586e+002, 2.918475e+001
1.871407e+002, 2.835371e+001
1.876228e+002, 2.756391e+001
1.881050e+002, 2.694065e+001
1.885871e+002, 2.649826e+001
1.890692e+002, 2.616187e+001
1.895513e+002, 2.590536e+001
1.900334e+002, 2.572351e+001
1.905155e+002, 2.544879e+001
1.909977e+002, 2.490476e+001
1.914798e+002, 2.433350e+001
1.919619e+002, 2.403990e+001
1.924440e+002, 2.409215e+001
1.929261e+002, 2.424263e+001
1.934082e+002, 2.428297e+001
1.938904e+002, 2.423711e+001
1.943725e+002, 2.414855e+001
1.948546e+002, 2.402264e+001
1.953367e+002, 2.386385e+001
1.958188e+002, 2.367197e+001
1.963009e+002, 2.342958e+001
1.967831e+002, 2.319248e+001
1.972652e+002, 2.296057e+001
1.977473e+002, 2.275502e+001
1.982294e+002, 2.265122e+001
1.987115e+002, 2.272704e+001
1.991936e+002, 2.294616e+001
1.996758e+002, 2.316524e+001
2.001579e+002, 2.344063e+001
2.006400e+002, 2.362192e+001
2.011221e+002, 2.358367e+001
2.016042e+002, 2.339502e+001
2.020863e+002, 2.322639e+001
2.025685e+002, 2.320907e+001
2.030506e+002, 2.333285e+001
2.035327e+002, 2.342575e+001
2.040148e+002, 2.346684e+001
2.044969e+002, 2.349464e+001
2.049790e+002, 2.350207e+001
2.054612e+002, 2.350555e+001
2.059433e+002, 2.354509e+001
2.064254e+002, 2.368221e+001
2.069075e+002, 2.392981e+001
2.073896e+002, 2.402075e+001
2.078717e+002, 2.369267e+001
2.083539e+002, 2.344036e+001
2.088360e+002, 2.346351e+001
2.093181e+002, 2.370924e+001
2.098002e+002, 2.399855e+001
2.102823e+002, 2.416685e+001
2.107644e+002, 2.418950e+001
2.112466e+002, 2.430448e+001
2.117287e+002, 2.459542e+001
2.122108e+002, 2.489090e+001
2.126929e+002, 2.514831e+001
2.131750e+002, 2.535382e+001
2.136571e+002, 2.550063e+001
2.141393e+002, 2.557881e+001
2.146214e+002, 2.558081e+001
2.151035e+002, 2.555880e+001
2.155856e+002, 2.557008e+001
2.160677e+002, 2.551542e+001
2.165498e+002, 2.529471e+001
2.170320e+002, 2.494042e+001
2.175141e+002, 2.459473e+001
2.179962e+002, 2.439387e+001
2.184783e+002, 2.436076e+001
2.189604e+002, 2.428693e+001
2.194425e+002, 2.418832e+001
2.199247e+002, 2.404232e+001
2.204068e+002, 2.376746e+001
2.208889e+002, 2.339142e+001
2.213710e+002, 2.310170e+001
2.218531e+002, 2.308511e+001
2.223352e+002, 2.336517e+001
2.228174e+002, 2.354685e+001
2.232995e+002, 2.361037e+001
2.237816e+002, 2.359303e+001
2.242637e+002, 2.347464e+001
2.247458e+002, 2.326445e+001
2.252279e+002, 2.309690e+001
2.257100e+002, 2.312131e+001
2.261922e+002, 2.330404e+001
2.266743e+002, 2.336356e+001
2.271564e+002, 2.320957e+001
2.276385e+002, 2.297087e+001
2.281206e+002, 2.274898e+001
2.286027e+002, 2.254863e+001
2.290849e+002, 2.237405e+001
2.295670e+002, 2.225369e+001
2.300491e+002, 2.216303e+001
2.305312e+002, 2.203272e+001
2.310133e+002, 2.187480e+001
2.314954e+002, 2.165961e+001
2.319776e+002, 2.134132e+001
2.324597e+002, 2.091119e+001
2.329418e+002, 2.043895e+001
2.334239e+002, 1.990185e+001
2.339060e+002, 1.936128e+001
2.343881e+002, 1.892310e+001
2.348703e+002, 1.865691e+001
2.353524e+002, 1.846832e+001
2.358345e+002, 1.820779e+001
2.363166e+002, 1.784076e+001
2.367987e+002, 1.754071e+001
2.372808e+002, 1.744815e+001
2.377630e+002, 1.745608e+001
2.382451e+002, 1.745369e+001
2.387272e+002, 1.739961e+001
2.392093e+002, 1.733160e+001
2.396914e+002, 1.731704e+001
2.401735e+002, 1.737530e+001
2.406557e+002, 1.742483e+001
2.411378e+002, 1.744309e+001
2.416199e+002, 1.743422e+001
2.421020e+002, 1.738063e+001
2.425841e+002, 1.725942e+001
2.430662e+002, 1.714491e+001
2.435484e+002, 1.717376e+001
2.440305e+002, 1.738685e+001
2.445126e+002, 1.763634e+001
2.449947e+002, 1.798055e+001
2.454768e+002, 1.829108e+001
2.459589e+002, 1.844616e+001
2.464410e+002, 1.840174e+001
2.469232e+002, 1.822590e+001
2.474053e+002, 1.800241e+001
2.478874e+002, 1.765338e+001
2.483695e+002, 1.745527e+001
2.488516e+002, 1.757705e+001
2.493337e+002, 1.777715e+001
2.498159e+002, 1.786300e+001
2.502980e+002, 1.777761e+001
2.507801e+002, 1.761738e+001
2.512622e+002, 1.755198e+001
2.517443e+002, 1.765121e+001
2.522264e+002, 1.768660e+001
2.527086e+002, 1.761063e+001
2.531907e+002, 1.749246e+001
2.536728e+002, 1.738328e+001
2.541549e+002, 1.729480e+001
2.546370e+002, 1.719901e+001
2.551191e+002, 1.703748e+001
2.556013e+002, 1.673038e+001
2.560834e+002, 1.653795e+001
2.565655e+002, 1.658302e+001
2.570476e+002, 1.663777e+001
2.575297e+002, 1.651972e+001
2.580118e+002, 1.621336e+001
2.584940e+002, 1.586748e+001
2.589761e+002, 1.569220e+001
2.594582e+002, 1.578418e+001
2.599403e+002, 1.580634e+001
2.604224e+002, 1.569922e+001
2.609045e+002, 1.558334e+001
2.613867e+002, 1.554342e+001
2.618688e+002, 1.558141e+001
2.623509e+002, 1.563308e+001
2.628330e+002, 1.562135e+001
2.633151e+002, 1.551885e+001
2.637972e+002, 1.545230e+001
2.642794e+002, 1.541037e+001
2.647615e+002, 1.540530e+001
2.652436e+002, 1.547391e+001
2.657257e+002, 1.559808e+001
2.662078e+002, 1.570761e+001
2.666899e+002, 1.573047e+001
2.671721e+002, 1.565034e+001
2.676542e+002, 1.558228e+001
2.681363e+002, 1.552248e+001
2.686184e+002, 1.547513e+001
2.691005e+002, 1.544269e+001
2.695826e+002, 1.542487e+001
2.700648e+002, 1.542065e+001
2.705469e+002, 1.543017e+001
2.710290e+002, 1.545376e+001
2.715111e+002, 1.548034e+001
2.719932e+002, 1.554686e+001
2.724753e+002, 1.558037e+001
2.729575e+002, 1.553202e+001
2.734396e+002, 1.542216e+001
2.739217e+002, 1.531393e+001
2.744038e+002, 1.525652e+001
2.748859e+002, 1.523975e+001
2.753680e+002, 1.513348e+001
2.758501e+002, 1.480539e+001
2.763322e+002, 1.455095e+001
2.768144e+002, 1.455831e+001
2.772965e+002, 1.471606e+001
2.777786e+002, 1.476071e+001
2.782607e+002, 1.453275e+001
2.787428e+002, 1.410780e+001
2.792249e+002, 1.380990e+001
2.797071e+002, 1.366095e+001
2.801892e+002, 1.358073e+001
2.806713e+002, 1.361970e+001
2.811534e+002, 1.370613e+001
2.816355e+002, 1.369429e+001
2.821176e+002, 1.350812e+001
2.825998e+002, 1.323248e+001
2.830819e+002, 1.310011e+001
2.835640e+002, 1.320853e+001
2.840461e+002, 1.325236e+001
2.845282e+002, 1.311775e+001
2.850103e+002, 1.289519e+001
2.854925e+002, 1.271086e+001
2.859746e+002, 1.260464e+001
2.864567e+002, 1.255532e+001
2.869388e+002, 1.253225e+001
2.874209e+002, 1.253561e+001
2.879030e+002, 1.256036e+001
2.883852e+002, 1.263885e+001
2.888673e+002, 1.272529e+001
2.893494e+002, 1.277743e+001
2.898315e+002, 1.278736e+001
2.903136e+002, 1.272854e+001
2.907957e+002, 1.252899e+001
2.912779e+002, 1.215776e+001
2.917600e+002, 1.190505e+001
2.922421e+002, 1.185465e+001
2.927242e+002, 1.190419e+001
2.932063e+002, 1.198081e+001
2.936884e+002, 1.207297e+001
2.941706e+002, 1.213818e+001
2.946527e+002, 1.212187e+001
2.951348e+002, 1.202354e+001
2.956169e+002, 1.197583e+001
2.960990e+002, 1.202329e+001
2.965811e+002, 1.209398e+001
2.970633e+002, 1.214601e+001
2.975454e+002, 1.217444e+001
2.980275e+002, 1.216658e+001
2.985096e+002, 1.210718e+001
2.989917e+002, 1.199960e+001
2.994738e+002, 1.188918e+001
2.999560e+002, 1.173408e+001
3.004381e+002, 1.161446e+001
3.009202e+002, 1.159105e+001
3.014023e+002, 1.164933e+001
3.018844e+002, 1.172620e+001
3.023665e+002, 1.180288e+001
3.028487e+002, 1.186449e+001
3.033308e+002, 1.187073e+001
3.038129e+002, 1.179064e+001
3.042950e+002, 1.171169e+001
3.047771e+002, 1.165594e+001
3.052592e+002, 1.162971e+001
3.057414e+002, 1.166141e+001
3.062235e+002, 1.177878e+001
3.067056e+002, 1.192743e+001
3.071877e+002, 1.199957e+001
3.076698e+002, 1.199033e+001
3.081519e+002, 1.195528e+001
3.086341e+002, 1.187160e+001
3.091162e+002, 1.178175e+001
3.095983e+002, 1.178126e+001
3.100804e+002, 1.191100e+001
3.105625e+002, 1.206041e+001
3.110446e+002, 1.204985e+001
3.115268e+002, 1.187107e+001
3.120089e+002, 1.177579e+001
3.124910e+002, 1.191000e+001
3.129731e+002, 1.210858e+001
3.134552e+002, 1.217966e+001
3.139373e+002, 1.209436e+001
3.144195e+002, 1.191667e+001
3.149016e+002, 1.165091e+001
3.153837e+002, 1.131325e+001
3.158658e+002, 1.111938e+001
3.163479e+002, 1.118339e+001
3.168300e+002, 1.132933e+001
3.173121e+002, 1.144030e+001
3.177943e+002, 1.150800e+001
3.182764e+002, 1.151328e+001
3.187585e+002, 1.141523e+001
3.192406e+002, 1.124544e+001
3.197227e+002, 1.115602e+001
3.202048e+002, 1.122324e+001
3.206870e+002, 1.129197e+001
3.211691e+002, 1.124886e+001
3.216512e+002, 1.112915e+001
3.221333e+002, 1.107039e+001
3.226154e+002, 1.116289e+001
3.230975e+002, 1.132380e+001
3.235797e+002, 1.132743e+001
3.240618e+002, 1.109059e+001
3.245439e+002, 1.090522e+001
3.250260e+002, 1.092630e+001
3.255081e+002, 1.106147e+001
3.259902e+002, 1.112798e+001
3.264724e+002, 1.105953e+001
3.269545e+002, 1.094094e+001
3.274366e+002, 1.090646e+001
3.279187e+002, 1.096568e+001
3.284008e+002, 1.102810e+001
3.288829e+002, 1.109696e+001
3.293651e+002, 1.115135e+001
3.298472e+002, 1.114946e+001
3.303293e+002, 1.108401e+001
3.308114e+002, 1.102527e+001
3.312935e+002, 1.105387e+001
3.317756e+002, 1.117828e+001
3.322578e+002, 1.125934e+001
3.327399e+002, 1.132526e+001
3.332220e+002, 1.132153e+001
3.337041e+002, 1.112872e+001
3.341862e+002, 1.078414e+001
3.346683e+002, 1.054310e+001
3.351505e+002, 1.061464e+001
3.356326e+002, 1.094742e+001
3.361147e+002, 1.113295e+001
3.365968e+002, 1.111256e+001
3.370789e+002, 1.102937e+001
3.375610e+002, 1.090857e+001
3.380432e+002, 1.076966e+001
3.385253e+002, 1.066125e+001
3.390074e+002, 1.061032e+001
3.394895e+002, 1.059295e+001
3.399716e+002, 1.054215e+001
3.404537e+002, 1.042560e+001
3.409359e+002, 1.033902e+001
3.414180e+002, 1.030966e+001
3.419001e+002, 1.031679e+001
3.423822e+002, 1.034005e+001
3.428643e+002, 1.037354e+001
3.433464e+002, 1.040858e+001
3.438286e+002, 1.043216e+001
3.443107e+002, 1.043762e+001
3.447928e+002, 1.045095e+001
3.452749e+002, 1.049853e+001
3.457570e+002, 1.053566e+001
3.462391e+002, 1.050803e+001
3.467213e+002, 1.042231e+001
3.472034e+002, 1.035320e+001
3.476855e+002, 1.037916e+001
3.481676e+002, 1.050821e+001
3.486497e+002, 1.053983e+001
3.491318e+002, 1.039029e+001
3.496140e+002, 1.024518e+001
3.500961e+002, 1.018998e+001
3.505782e+002, 1.020259e+001
3.510603e+002, 1.021962e+001
3.515424e+002, 1.020292e+001
3.520245e+002, 1.016550e+001
3.525067e+002, 1.016421e+001
3.529888e+002, 1.023248e+001
3.534709e+002, 1.029519e+001
3.539530e+002, 1.036997e+001
3.544351e+002, 1.042406e+001
3.549172e+002, 1.040527e+001
3.553994e+002, 1.029759e+001
3.558815e+002, 1.015329e+001
3.563636e+002, 1.005795e+001
3.568457e+002, 1.001774e+001
3.573278e+002, 1.002378e+001
3.578099e+002, 1.018957e+001
3.582920e+002, 1.031352e+001
3.587741e+002, 1.020060e+001
3.592563e+002, 9.872870e+000
3.597384e+002, 9.539401e+000
3.602205e+002, 9.404062e+000
3.607026e+002, 9.484768e+000
3.611847e+002, 9.596787e+000
3.616668e+002, 9.853049e+000
3.621490e+002, 1.002239e+001
3.626311e+002, 9.949050e+000
3.631132e+002, 9.737158e+000
3.635953e+002, 9.594913e+000
3.640774e+002, 9.655285e+000
3.645595e+002, 9.860941e+000
3.650417e+002, 9.966248e+000
3.655238e+002, 9.891826e+000
3.660059e+002, 9.818767e+000
3.664880e+002, 9.768093e+000
3.669701e+002, 9.729223e+000
3.674522e+002, 9.689074e+000
3.679344e+002, 9.644151e+000
3.684165e+002, 9.603291e+000
3.688986e+002, 9.586163e+000
3.693807e+002, 9.613942e+000
3.698628e+002, 9.606475e+000
3.703449e+002, 9.507334e+000
3.708271e+002, 9.419515e+000
3.713092e+002, 9.408111e+000
3.717913e+002, 9.465256e+000
3.722734e+002, 9.533118e+000
3.727555e+002, 9.560892e+000
3.732376e+002, 9.549930e+000
3.737198e+002, 9.543494e+000
3.742019e+002, 9.530611e+000
3.746840e+002, 9.538089e+000
3.751661e+002, 9.592739e+000
3.756482e+002, 9.668135e+000
3.761303e+002, 9.728204e+000
3.766125e+002, 9.759891e+000
3.770946e+002, 9.756596e+000
3.775767e+002, 9.694746e+000
3.780588e+002, 9.551059e+000
3.785409e+002, 9.414420e+000
3.790230e+002, 9.263794e+000
3.795052e+002, 9.156538e+000
3.799873e+002, 9.161195e+000
3.804694e+002, 9.289752e+000
3.809515e+002, 9.448222e+000
3.814336e+002, 9.558992e+000
3.819157e+002, 9.622150e+000
3.823979e+002, 9.616460e+000
3.828800e+002, 9.473155e+000
3.833621e+002, 9.338442e+000
3.838442e+002, 9.330723e+000
3.843263e+002, 9.418439e+000
3.848084e+002, 9.484757e+000
3.852906e+002, 9.440563e+000
3.857727e+002, 9.335880e+000
3.862548e+002, 9.294964e+000
3.867369e+002, 9.339575e+000
3.872190e+002, 9.369676e+000
3.877011e+002, 9.307642e+000
3.881833e+002, 9.200342e+000
3.886654e+002, 9.107553e+000
3.891475e+002, 9.029810e+000
3.896296e+002, 8.988280e+000
3.901117e+002, 9.009665e+000
3.905938e+002, 9.089017e+000
3.910760e+002, 9.204917e+000
3.915581e+002, 9.409707e+000
3.920402e+002, 9.570334e+000
3.925223e+002, 9.468358e+000
3.930044e+002, 9.084585e+000
3.934865e+002, 8.748534e+000
3.939687e+002, 8.586958e+000
3.944508e+002, 8.553651e+000
3.949329e+002, 8.607687e+000
3.954150e+002, 8.752860e+000
3.958971e+002, 8.888058e+000
3.963792e+002, 8.918807e+000
3.968614e+002, 8.850523e+000
3.973435e+002, 8.790395e+000
3.978256e+002, 8.746424e+000
3.983077e+002, 8.708127e+000
3.987898e+002, 8.673718e+000
3.992719e+002, 8.640153e+000
3.997540e+002, 8.591413e+000
4.002361e+002, 8.511541e+000
4.007183e+002, 8.424020e+000
4.012004e+002, 8.403058e+000
4.016825e+002, 8.478108e+000
4.021646e+002, 8.555722e+000
4.026467e+002, 8.622685e+000
4.031288e+002, 8.682693e+000
4.036110e+002, 8.745512e+000
4.040931e+002, 8.811561e+000
4.045752e+002, 8.860443e+000
4.050573e+002, 8.862245e+000
4.055394e+002, 8.799435e+000
4.060215e+002, 8.779939e+000
4.065037e+002, 8.857217e+000
4.069858e+002, 8.921515e+000
4.074679e+002, 8.871276e+000
4.079500e+002, 8.761014e+000
4.084321e+002, 8.753920e+000
4.089142e+002, 8.970107e+000
4.093964e+002, 9.326288e+000
4.098785e+002, 9.436504e+000
4.103606e+002, 8.968526e+000
4.108427e+002, 8.679589e+000
4.113248e+002, 8.782309e+000
4.118069e+002, 9.005919e+000
4.122891e+002, 9.085905e+000
4.127712e+002, 8.956816e+000
4.132533e+002, 8.743140e+000
4.137354e+002, 8.602369e+000
4.142175e+002, 8.542910e+000
4.146996e+002, 8.521482e+000
4.151818e+002, 8.566165e+000
4.156639e+002, 8.624118e+000
4.161460e+002, 8.684057e+000
4.166281e+002, 8.741470e+000
4.171102e+002, 8.797262e+000
4.175923e+002, 8.866712e+000
4.180745e+002, 8.922169e+000
4.185566e+002, 8.844171e+000
4.190387e+002, 8.536816e+000
4.195208e+002, 8.311858e+000
4.200029e+002, 8.311863e+000
4.204850e+002, 8.407256e+000
4.209672e+002, 8.503781e+000
4.214493e+002, 8.580977e+000
4.219314e+002, 8.610106e+000
4.224135e+002, 8.520288e+000
4.228956e+002, 8.321277e+000
4.233777e+002, 8.218313e+000
4.238599e+002, 8.284604e+000
4.243420e+002, 8.397246e+000
4.248241e+002, 8.482656e+000
4.253062e+002, 8.537624e+000
4.257883e+002, 8.547794e+000
4.262704e+002, 8.468270e+000
4.267526e+002, 8.358065e+000
4.272347e+002, 8.309339e+000
4.277168e+002, 8.325145e+000
4.281989e+002, 8.353961e+000
4.286810e+002, 8.385475e+000
4.291631e+002, 8.402808e+000
4.296453e+002, 8.366044e+000
4.301274e+002, 8.232310e+000
4.306095e+002, 8.141582e+000
4.310916e+002, 8.183503e+000
4.315737e+002, 8.314239e+000
4.320558e+002, 8.478304e+000
4.325380e+002, 8.674920e+000
4.330201e+002, 8.802619e+000
4.335022e+002, 8.712767e+000
4.339843e+002, 8.366689e+000
4.344664e+002, 8.104194e+000
4.349485e+002, 7.933857e+000
4.354307e+002, 7.852186e+000
4.359128e+002, 7.899472e+000
4.363949e+002, 8.042225e+000
4.368770e+002, 8.180923e+000
4.373591e+002, 8.258076e+000
4.378412e+002, 8.287083e+000
4.383234e+002, 8.317267e+000
4.388055e+002, 8.366628e+000
4.392876e+002, 8.393785e+000
4.397697e+002, 8.390125e+000
4.402518e+002, 8.366382e+000
4.407339e+002, 8.333661e+000
4.412160e+002, 8.293707e+000
4.416982e+002, 8.235518e+000
4.421803e+002, 8.135646e+000
4.426624e+002, 7.975878e+000
4.431445e+002, 7.906655e+000
4.436266e+002, 8.023801e+000
4.441087e+002, 8.133533e+000
4.445909e+002, 8.171880e+000
4.450730e+002, 8.163487e+000
4.455551e+002, 8.161584e+000
4.460372e+002, 8.196516e+000
4.465193e+002, 8.234900e+000
4.470014e+002, 8.182872e+000
4.474836e+002, 7.982637e+000
4.479657e+002, 7.865304e+000
4.484478e+002, 7.933451e+000
4.489299e+002, 8.054414e+000
4.494120e+002, 8.171385e+000
4.498941e+002, 8.270216e+000
4.503763e+002, 8.328277e+000
4.508584e+002, 8.316812e+000
4.513405e+002, 8.247945e+000
4.518226e+002, 8.164314e+000
4.523047e+002, 8.050635e+000
4.527868e+002, 7.963427e+000
4.532690e+002, 7.975487e+000
4.537511e+002, 8.025775e+000
4.542332e+002, 8.017735e+000
4.547153e+002, 7.894912e+000
4.551974e+002, 7.780856e+000
4.556795e+002, 7.803363e+000
4.561617e+002, 7.929746e+000
4.566438e+002, 8.019073e+000
4.571259e+002, 8.031919e+000
4.576080e+002, 7.993306e+000
4.580901e+002, 7.907187e+000
4.585722e+002, 7.771223e+000
4.590544e+002, 7.700401e+000
4.595365e+002, 7.780390e+000
4.600186e+002, 7.887270e+000
4.605007e+002, 7.903216e+000
4.609828e+002, 7.837060e+000
4.614649e+002, 7.774594e+000
4.619471e+002, 7.767506e+000
4.624292e+002, 7.804959e+000
4.629113e+002, 7.842572e+000
4.633934e+002, 7.899604e+000
4.638755e+002, 7.931897e+000
4.643576e+002, 7.911668e+000
4.648398e+002, 7.876853e+000
4.653219e+002, 7.871539e+000
4.658040e+002, 7.901338e+000
4.662861e+002, 7.933529e+000
4.667682e+002, 7.930632e+000
4.672503e+002, 7.887792e+000
4.677325e+002, 7.855901e+000
4.682146e+002, 7.835661e+000
4.686967e+002, 7.825995e+000
4.691788e+002, 7.818137e+000
4.696609e+002, 7.823321e+000
4.701430e+002, 7.868711e+000
4.706252e+002, 7.968520e+000
4.711073e+002, 8.078543e+000
4.715894e+002, 8.122691e+000
4.720715e+002, 8.095257e+000
4.725536e+002, 8.025591e+000
4.730357e+002, 7.830902e+000
4.735179e+002, 7.670813e+000
4.740000e+002, 7.681777e+000
4.744821e+002, 7.823463e+000
4.749642e+002, 7.917253e+000
4.754463e+002, 7.805600e+000
4.759284e+002, 7.592933e+000
4.764106e+002, 7.529115e+000
4.768927e+002, 7.642531e+000
4.773748e+002, 7.723891e+000
4.778569e+002, 7.630152e+000
4.783390e+002, 7.471770e+000
4.788211e+002, 7.429743e+000
4.793033e+002, 7.539313e+000
4.797854e+002, 7.661319e+000
4.802675e+002, 7.740430e+000
4.807496e+002, 7.781431e+000
4.812317e+002, 7.770753e+000
4.817138e+002, 7.702252e+000
4.821959e+002, 7.667949e+000
4.826780e+002, 7.774926e+000
4.831602e+002, 8.017607e+000
4.836423e+002, 8.140973e+000
4.841244e+002, 8.091422e+000
4.846065e+002, 7.989362e+000
4.850886e+002, 7.824989e+000
4.855707e+002, 7.653389e+000
4.860529e+002, 7.578774e+000
4.865350e+002, 7.638792e+000
4.870171e+002, 7.760407e+000
4.874992e+002, 7.825166e+000
4.879813e+002, 7.819203e+000
4.884634e+002, 7.792099e+000
4.889456e+002, 7.690084e+000
4.894277e+002, 7.621466e+000
4.899098e+002, 7.681757e+000
4.903919e+002, 7.817015e+000
4.908740e+002, 7.897821e+000
4.913561e+002, 7.839418e+000
4.918383e+002, 7.694809e+000
4.923204e+002, 7.605507e+000
4.928025e+002, 7.578166e+000
4.932846e+002, 7.588446e+000
4.937667e+002, 7.670455e+000
4.942488e+002, 7.760586e+000
4.947310e+002, 7.822209e+000
4.952131e+002, 7.851260e+000
4.956952e+002, 7.855880e+000
4.961773e+002, 7.833809e+000
4.966594e+002, 7.792003e+000
4.971415e+002, 7.750398e+000
4.976237e+002, 7.711046e+000
4.981058e+002, 7.663519e+000
4.985879e+002, 7.599154e+000
4.990700e+002, 7.522839e+000
4.995521e+002, 7.438487e+000
5.000342e+002, 7.326697e+000
5.005164e+002, 7.254291e+000
5.009985e+002, 7.279611e+000
5.014806e+002, 7.359513e+000
5.019627e+002, 7.418186e+000
5.024448e+002, 7.440002e+000
5.029269e+002, 7.450766e+000
5.034091e+002, 7.477764e+000
5.038912e+002, 7.521996e+000
5.043733e+002, 7.534421e+000
5.048554e+002, 7.453995e+000
5.053375e+002, 7.413291e+000
5.058196e+002, 7.499016e+000
5.063018e+002, 7.642927e+000
5.067839e+002, 7.759872e+000
5.072660e+002, 7.815515e+000
5.077481e+002, 7.786798e+000
5.082302e+002, 7.606901e+000
5.087123e+002, 7.178948e+000
5.091945e+002, 6.950620e+000
5.096766e+002, 7.078829e+000
5.101587e+002, 7.251190e+000
5.106408e+002, 7.382561e+000
5.111229e+002, 7.467292e+000
5.116050e+002, 7.512393e+000
5.120872e+002, 7.517810e+000
5.125693e+002, 7.496966e+000
5.130514e+002, 7.474463e+000
5.135335e+002, 7.451870e+000
5.140156e+002, 7.414224e+000
5.144977e+002, 7.350740e+000
5.149799e+002, 7.277658e+000
5.154620e+002, 7.194869e+000
5.159441e+002, 7.108840e+000
5.164262e+002, 7.059769e+000
5.169083e+002, 7.084590e+000
5.173904e+002, 7.143806e+000
5.178726e+002, 7.194155e+000
5.183547e+002, 7.234327e+000
5.188368e+002, 7.258253e+000
5.193189e+002, 7.257486e+000
5.198010e+002, 7.245353e+000
5.202831e+002, 7.254809e+000
5.207653e+002, 7.296147e+000
5.212474e+002, 7.324586e+000
5.217295e+002, 7.330045e+000
5.222116e+002, 7.321380e+000
5.226937e+002, 7.308579e+000
5.231758e+002, 7.290265e+000
5.236580e+002, 7.247946e+000
5.241401e+002, 7.160525e+000
5.246222e+002, 7.049067e+000
5.251043e+002, 7.027323e+000
5.255864e+002, 7.224492e+000
5.260685e+002, 7.325368e+000
5.265507e+002, 7.214329e+000
5.270328e+002, 7.063169e+000
5.275149e+002, 7.022406e+000
5.279970e+002, 7.100394e+000
5.284791e+002, 7.192790e+000
5.289612e+002, 7.206157e+000
5.294434e+002, 7.154006e+000
5.299255e+002, 7.123610e+000
5.304076e+002, 7.135485e+000
5.308897e+002, 7.121445e+000
5.313718e+002, 7.014672e+000
5.318539e+002, 6.884927e+000
5.323361e+002, 6.795999e+000
5.328182e+002, 6.755778e+000
5.333003e+002, 6.769058e+000
5.337824e+002, 6.866520e+000
5.342645e+002, 7.014198e+000
5.347466e+002, 7.152785e+000
5.352288e+002, 7.277602e+000
5.357109e+002, 7.354897e+000
5.361930e+002, 7.352859e+000
5.366751e+002, 7.278521e+000
5.371572e+002, 7.190227e+000
5.376393e+002, 6.995535e+000
5.381215e+002, 6.899699e+000
5.386036e+002, 7.074457e+000
5.390857e+002, 7.327587e+000
5.395678e+002, 7.405298e+000
5.400499e+002, 7.263541e+000
5.405320e+002, 7.045826e+000
5.410142e+002, 6.895102e+000
5.414963e+002, 6.812150e+000
5.419784e+002, 6.769636e+000
5.424604e+002, 6.826171e+000
5.429426e+002, 6.853943e+000
5.434247e+002, 6.806434e+000
5.439068e+002, 6.727176e+000
5.443889e+002, 6.653367e+000
5.448710e+002, 6.597703e+000
5.453531e+002, 6.581040e+000
5.458353e+002, 6.665557e+000
5.463174e+002, 6.835537e+000
5.467995e+002, 6.878131e+000
5.472816e+002, 6.709514e+000
5.477637e+002, 6.567691e+000
5.482458e+002, 6.660905e+000
5.487280e+002, 6.866649e+000
5.492101e+002, 6.986682e+000
5.496922e+002, 6.957690e+000
5.501743e+002, 6.904511e+000
5.506564e+002, 6.911091e+000
5.511385e+002, 6.948836e+000
5.516207e+002, 6.952122e+000
5.521028e+002, 6.906529e+000
5.525849e+002, 6.856612e+000
5.530670e+002, 6.845120e+000
5.535491e+002, 6.872317e+000
5.540313e+002, 6.890716e+000
5.545134e+002, 6.933479e+000
5.549955e+002, 6.929901e+000
5.554776e+002, 6.802355e+000
5.559597e+002, 6.644051e+000
5.564418e+002, 6.589969e+000
5.569240e+002, 6.664470e+000
5.574061e+002, 6.755641e+000
5.578882e+002, 6.720180e+000
5.583703e+002, 6.550949e+000
5.588524e+002, 6.463171e+000
5.593345e+002, 6.496607e+000
5.598167e+002, 6.559916e+000
5.602988e+002, 6.647036e+000
5.607809e+002, 6.731659e+000
5.612630e+002, 6.792504e+000
5.617451e+002, 6.827011e+000
5.622272e+002, 6.802754e+000
5.627094e+002, 6.622232e+000
5.631915e+002, 6.355578e+000
5.636736e+002, 6.272619e+000
5.641557e+002, 6.440394e+000
5.646378e+002, 6.605047e+000
5.651199e+002, 6.580307e+000
5.656021e+002, 6.399301e+000
5.660842e+002, 6.235902e+000
5.665663e+002, 6.030832e+000
5.670484e+002, 5.926564e+000
5.675305e+002, 6.079472e+000
5.680126e+002, 6.308855e+000
5.684948e+002, 6.365558e+000
5.689769e+002, 6.219930e+000
5.694590e+002, 6.039232e+000
5.699411e+002, 5.980749e+000
5.704232e+002, 6.037028e+000
5.709053e+002, 6.068919e+000
5.713875e+002, 6.047599e+000
5.718696e+002, 6.040506e+000
5.723517e+002, 6.076071e+000
5.728338e+002, 6.118581e+000
5.733159e+002, 6.128595e+000
5.737980e+002, 6.103458e+000
5.742802e+002, 6.080051e+000
5.747623e+002, 6.095262e+000
5.752444e+002, 6.139489e+000
5.757265e+002, 6.179630e+000
5.762086e+002, 6.222733e+000
5.766907e+002, 6.229073e+000
5.771729e+002, 6.143771e+000
5.776550e+002, 6.031210e+000
5.781371e+002, 6.002402e+000
5.786192e+002, 6.080375e+000
5.791013e+002, 6.145867e+000
5.795834e+002, 6.088597e+000
5.800656e+002, 6.034002e+000
5.805477e+002, 6.191538e+000
5.810298e+002, 6.530257e+000
5.815119e+002, 6.775609e+000
5.819940e+002, 6.744548e+000
5.824761e+002, 6.509525e+000
5.829583e+002, 6.315898e+000
5.834404e+002, 6.158921e+000
5.839225e+002, 6.055041e+000
5.844046e+002, 6.021541e+000
5.848867e+002, 6.022837e+000
5.853688e+002, 6.045405e+000
5.858510e+002, 6.082060e+000
5.863331e+002, 6.121388e+000
5.868152e+002, 6.153049e+000
5.872973e+002, 6.188820e+000
5.877794e+002, 6.284850e+000
5.882615e+002, 6.467320e+000
5.887437e+002, 6.524142e+000
5.892258e+002, 6.350370e+000
5.897079e+002, 6.089694e+000
5.901900e+002, 5.830567e+000
5.906721e+002, 5.587710e+000
5.911542e+002, 5.470312e+000
5.916364e+002, 5.630966e+000
5.921185e+002, 5.829643e+000
5.926006e+002, 5.836006e+000
5.930827e+002, 5.709089e+000
5.935648e+002, 5.635308e+000
5.940469e+002, 5.684065e+000
5.945291e+002, 5.786730e+000
5.950112e+002, 5.848679e+000
5.954933e+002, 5.858924e+000
5.959754e+002, 5.878311e+000
5.964575e+002, 5.921226e+000
5.969396e+002, 5.956034e+000
5.974218e+002, 5.975517e+000
5.979039e+002, 5.978655e+000
5.983860e+002, 5.952783e+000
5.988681e+002, 5.895812e+000
5.993502e+002, 5.852592e+000
5.998323e+002, 5.908734e+000
6.003145e+002, 6.057494e+000
6.007966e+002, 6.091441e+000
6.012787e+002, 5.951821e+000
6.017608e+002, 5.803282e+000
6.022429e+002, 5.721702e+000
6.027250e+002, 5.697124e+000
6.032072e+002, 5.733945e+000
6.036893e+002, 5.861354e+000
6.041714e+002, 5.964539e+000
6.046535e+002, 5.961484e+000
6.051356e+002, 5.909487e+000
6.056177e+002, 5.898853e+000
6.060999e+002, 5.935951e+000
6.065820e+002, 5.959782e+000
6.070641e+002, 5.922021e+000
6.075462e+002, 5.840667e+000
6.080283e+002, 5.796548e+000
6.085104e+002, 5.794860e+000
6.089926e+002, 5.827394e+000
6.094747e+002, 5.947581e+000
6.099568e+002, 6.057080e+000
6.104389e+002, 6.070859e+000
6.109210e+002, 6.006774e+000
6.114031e+002, 5.950148e+000
6.118853e+002, 5.963106e+000
6.123674e+002, 6.002620e+000
6.128495e+002, 5.958374e+000
6.133316e+002, 5.817897e+000
6.138137e+002, 5.743487e+000
6.142958e+002, 5.800138e+000
6.147780e+002, 5.902047e+000
6.152601e+002, 5.983722e+000
6.157422e+002, 6.043096e+000
6.162243e+002, 6.052054e+000
6.167064e+002, 5.947916e+000
6.171885e+002, 5.848135e+000
6.176707e+002, 5.839691e+000
6.181528e+002, 5.888078e+000
6.186349e+002, 5.930532e+000
6.191170e+002, 5.946824e+000
6.195991e+002, 5.928820e+000
6.200812e+002, 5.857422e+000
6.205634e+002, 5.724740e+000
6.210455e+002, 5.654857e+000
6.215276e+002, 5.671961e+000
6.220097e+002, 5.727057e+000
6.224918e+002, 5.885970e+000
6.229739e+002, 6.034462e+000
6.234561e+002, 6.018191e+000
6.239382e+002, 5.822701e+000
6.244203e+002, 5.639943e+000
6.249023e+002, 5.663883e+000
6.253845e+002, 5.814224e+000
6.258666e+002, 5.876121e+000
6.263487e+002, 5.840829e+000
6.268308e+002, 5.763082e+000
6.273129e+002, 5.643576e+000
6.277950e+002, 5.518842e+000
6.282772e+002, 5.459610e+000
6.287593e+002, 5.468045e+000
6.292414e+002, 5.508944e+000
6.297235e+002, 5.605020e+000
6.302056e+002, 5.707161e+000
6.306877e+002, 5.784852e+000
6.311699e+002, 5.840693e+000
6.316520e+002, 5.891822e+000
6.321341e+002, 5.945934e+000
6.326162e+002, 5.986263e+000
6.330983e+002, 5.975897e+000
6.335804e+002, 5.899786e+000
6.340626e+002, 5.851800e+000
6.345447e+002, 5.860990e+000
6.350268e+002, 5.862269e+000
6.355089e+002, 5.786908e+000
6.359910e+002, 5.699422e+000
6.364731e+002, 5.722228e+000
6.369553e+002, 5.916049e+000
6.374374e+002, 6.074337e+000
6.379195e+002, 6.019644e+000
6.384016e+002, 5.837167e+000
6.388837e+002, 5.647501e+000
6.393658e+002, 5.471742e+000
6.398480e+002, 5.417898e+000
6.403301e+002, 5.589196e+000
6.408122e+002, 5.896960e+000
6.412943e+002, 6.044197e+000
6.417764e+002, 5.882648e+000
6.422585e+002, 5.771585e+000
6.427407e+002, 5.706342e+000
6.432228e+002, 5.695237e+000
6.437049e+002, 5.799799e+000
6.441870e+002, 5.960617e+000
6.446691e+002, 6.031300e+000
6.451512e+002, 5.923868e+000
6.456334e+002, 5.744568e+000
6.461155e+002, 5.656498e+000
6.465976e+002, 5.659253e+000
6.470797e+002, 5.718364e+000
6.475618e+002, 5.875530e+000
6.480439e+002, 5.988175e+000
6.485261e+002, 5.898674e+000
6.490082e+002, 5.675647e+000
6.494903e+002, 5.536655e+000
6.499724e+002, 5.531202e+000
6.504545e+002, 5.559979e+000
6.509366e+002, 5.590604e+000
6.514188e+002, 5.631241e+000
6.519009e+002, 5.710151e+000
6.523830e+002, 5.817545e+000
6.528651e+002, 5.893652e+000
6.533472e+002, 5.893388e+000
6.538293e+002, 5.829408e+000
6.543115e+002, 5.736497e+000
6.547936e+002, 5.571445e+000
6.552757e+002, 5.483279e+000
6.557578e+002, 5.534517e+000
6.562399e+002, 5.634599e+000
6.567220e+002, 5.768280e+000
6.572042e+002, 5.913329e+000
6.576863e+002, 6.014319e+000
6.581684e+002, 6.049176e+000
6.586505e+002, 6.035430e+000
6.591326e+002, 5.962189e+000
6.596147e+002, 5.854355e+000
6.600969e+002, 5.784585e+000
6.605790e+002, 5.769343e+000
6.610611e+002, 5.768441e+000
6.615432e+002, 5.743236e+000
6.620253e+002, 5.699172e+000
6.625074e+002, 5.695157e+000
6.629896e+002, 5.810572e+000
6.634717e+002, 5.860253e+000
6.639538e+002, 5.771655e+000
6.644359e+002, 5.655141e+000
6.649180e+002, 5.608101e+000
6.654001e+002, 5.619995e+000
6.658823e+002, 5.607013e+000
6.663644e+002, 5.502989e+000
6.668465e+002, 5.368728e+000
6.673286e+002, 5.324549e+000
6.678107e+002, 5.367448e+000
6.682928e+002, 5.383874e+000
6.687750e+002, 5.329184e+000
6.692571e+002, 5.291326e+000
6.697392e+002, 5.388092e+000
6.702213e+002, 5.595729e+000
6.707034e+002, 5.676889e+000
6.711855e+002, 5.472593e+000
6.716677e+002, 5.332713e+000
6.721498e+002, 5.428948e+000
6.726319e+002, 5.609415e+000
6.731140e+002, 5.727157e+000
6.735961e+002, 5.754411e+000
6.740782e+002, 5.711777e+000
6.745604e+002, 5.599265e+000
6.750425e+002, 5.454645e+000
6.755246e+002, 5.407847e+000
6.760067e+002, 5.479090e+000
6.764888e+002, 5.561028e+000
6.769709e+002, 5.655034e+000
6.774531e+002, 5.728902e+000
6.779352e+002, 5.752688e+000
6.784173e+002, 5.736260e+000
6.788994e+002, 5.713296e+000
6.793815e+002, 5.687633e+000
6.798636e+002, 5.662189e+000
6.803458e+002, 5.641850e+000
6.808279e+002, 5.621676e+000
6.813100e+002, 5.588766e+000
6.817921e+002, 5.543643e+000
6.822742e+002, 5.503982e+000
6.827563e+002, 5.482378e+000
6.832385e+002, 5.480676e+000
6.837206e+002, 5.511703e+000
6.842027e+002, 5.598642e+000
6.846848e+002, 5.667311e+000
6.851669e+002, 5.729979e+000
6.856490e+002, 5.751152e+000
6.861312e+002, 5.688220e+000
6.866133e+002, 5.564713e+000
6.870954e+002, 5.447335e+000
6.875775e+002, 5.353908e+000
6.880596e+002, 5.287702e+000
6.885417e+002, 5.239852e+000
6.890239e+002, 5.223439e+000
6.895060e+002, 5.295923e+000
6.899881e+002, 5.464599e+000
6.904702e+002, 5.610110e+000
6.909523e+002, 5.635527e+000
6.914344e+002, 5.563657e+000
6.919166e+002, 5.507786e+000
6.923987e+002, 5.447464e+000
6.928808e+002, 5.438792e+000
6.933629e+002, 5.573147e+000
6.938450e+002, 5.675469e+000
6.943271e+002, 5.593756e+000
6.948093e+002, 5.394210e+000
6.952914e+002, 5.263697e+000
6.957735e+002, 5.300134e+000
6.962556e+002, 5.382390e+000
6.967377e+002, 5.361866e+000
6.972198e+002, 5.273368e+000
6.977020e+002, 5.254895e+000
6.981841e+002, 5.332674e+000
6.986662e+002, 5.389949e+000
6.991483e+002, 5.322177e+000
6.996304e+002, 5.184720e+000
7.001125e+002, 5.191243e+000
7.005947e+002, 5.499399e+000
7.010768e+002, 5.711067e+000
7.015589e+002, 5.812177e+000
7.020410e+002, 5.824381e+000
7.025231e+002, 5.713414e+000
7.030052e+002, 5.531680e+000
7.034874e+002, 5.359840e+000
7.039695e+002, 5.226397e+000
7.044516e+002, 5.176162e+000
7.049337e+002, 5.329322e+000
7.054158e+002, 5.629725e+000
7.058979e+002, 5.797542e+000
7.063801e+002, 5.796943e+000
7.068622e+002, 5.726563e+000
7.073442e+002, 5.625854e+000
7.078264e+002, 5.506123e+000
7.083085e+002, 5.389931e+000
7.087906e+002, 5.251821e+000
7.092727e+002, 5.181091e+000
7.097548e+002, 5.222878e+000
7.102369e+002, 5.295011e+000
7.107191e+002, 5.373106e+000
7.112012e+002, 5.439905e+000
7.116833e+002, 5.460772e+000
7.121654e+002, 5.425144e+000
7.126475e+002, 5.394803e+000
7.131296e+002, 5.479781e+000
7.136118e+002, 5.643178e+000
7.140939e+002, 5.641387e+000
7.145760e+002, 5.428171e+000
7.150581e+002, 5.318440e+000
7.155402e+002, 5.539403e+000
7.160223e+002, 5.856612e+000
7.165045e+002, 5.817319e+000
7.169866e+002, 5.332406e+000
7.174687e+002, 5.065402e+000
7.179508e+002, 5.267479e+000
7.184329e+002, 5.490786e+000
7.189150e+002, 5.499766e+000
7.193972e+002, 5.394569e+000
7.198793e+002, 5.344462e+000
7.203614e+002, 5.387441e+000
7.208435e+002, 5.417755e+000
7.213256e+002, 5.296525e+000
7.218077e+002, 5.086515e+000
7.222899e+002, 5.060600e+000
7.227720e+002, 5.243459e+000
7.232541e+002, 5.406853e+000
7.237362e+002, 5.484248e+000
7.242183e+002, 5.504511e+000
7.247004e+002, 5.481689e+000
7.251826e+002, 5.417090e+000
7.256647e+002, 5.388610e+000
7.261468e+002, 5.485596e+000
7.266289e+002, 5.517055e+000
7.271110e+002, 5.318758e+000
7.275931e+002, 5.074994e+000
7.280753e+002, 5.014232e+000
7.285574e+002, 5.144146e+000
7.290395e+002, 5.306100e+000
7.295216e+002, 5.395362e+000
7.300037e+002, 5.420551e+000
7.304858e+002, 5.389551e+000
7.309680e+002, 5.300416e+000
7.314501e+002, 5.202098e+000
7.319322e+002, 5.080399e+000
7.324143e+002, 5.007257e+000
7.328964e+002, 5.062019e+000
7.333785e+002, 5.220727e+000
7.338607e+002, 5.347640e+000
7.343428e+002, 5.473834e+000
7.348249e+002, 5.520003e+000
7.353070e+002, 5.365383e+000
7.357891e+002, 5.208701e+000
7.362712e+002, 5.267151e+000
7.367534e+002, 5.468902e+000
7.372355e+002, 5.564102e+000
7.377176e+002, 5.420700e+000
7.381997e+002, 5.205578e+000
7.386818e+002, 5.178007e+000
7.391639e+002, 5.316942e+000
7.396461e+002, 5.429652e+000
7.401282e+002, 5.508982e+000
7.406103e+002, 5.517475e+000
7.410924e+002, 5.394428e+000
7.415745e+002, 5.215108e+000
7.420566e+002, 5.159012e+000
7.425388e+002, 5.272773e+000
7.430209e+002, 5.336790e+000
7.435030e+002, 5.296980e+000
7.439851e+002, 5.241355e+000
7.444672e+002, 5.196249e+000
7.449493e+002, 5.173642e+000
7.454315e+002, 5.198629e+000
7.459136e+002, 5.272733e+000
7.463957e+002, 5.343088e+000
7.468778e+002, 5.353203e+000
7.473599e+002, 5.320505e+000
7.478420e+002, 5.292825e+000
7.483242e+002, 5.269882e+000
7.488063e+002, 5.269833e+000
7.492884e+002, 5.311598e+000
7.497705e+002, 5.345947e+000
7.502526e+002, 5.304549e+000
7.507347e+002, 5.181044e+000
7.512169e+002, 5.107543e+000
7.516990e+002, 5.103386e+000
7.521811e+002, 5.119593e+000
7.526632e+002, 5.163201e+000
7.531453e+002, 5.209845e+000
7.536274e+002, 5.244204e+000
7.541096e+002, 5.261278e+000
7.545917e+002, 5.254532e+000
7.550738e+002, 5.213973e+000
7.555559e+002, 5.161057e+000
7.560380e+002, 5.118611e+000
7.565201e+002, 5.088768e+000
7.570023e+002, 5.096885e+000
7.574844e+002, 5.151528e+000
7.579665e+002, 5.159555e+000
7.584486e+002, 5.021265e+000
7.589307e+002, 4.819551e+000
7.594128e+002, 4.842186e+000
7.598950e+002, 5.330673e+000
7.603771e+002, 5.603362e+000
7.608592e+002, 5.536347e+000
7.613413e+002, 5.398975e+000
7.618234e+002, 5.284440e+000
7.623055e+002, 5.196145e+000
7.627877e+002, 5.117377e+000
7.632698e+002, 5.042623e+000
7.637519e+002, 5.008745e+000
7.642340e+002, 5.097041e+000
7.647161e+002, 5.215333e+000
7.651982e+002, 5.176055e+000
7.656804e+002, 5.012006e+000
7.661625e+002, 4.947390e+000
7.666446e+002, 5.073326e+000
7.671267e+002, 5.264953e+000
7.676088e+002, 5.363156e+000
7.680909e+002, 5.366389e+000
7.685731e+002, 5.326931e+000
7.690552e+002, 5.210443e+000
7.695373e+002, 5.106882e+000
7.700194e+002, 5.050936e+000
7.705015e+002, 5.002562e+000
7.709836e+002, 4.893806e+000
7.714658e+002, 4.753176e+000
7.719479e+002, 4.727475e+000
7.724300e+002, 4.944893e+000
7.729121e+002, 5.188092e+000
7.733942e+002, 5.329455e+000
7.738763e+002, 5.388099e+000
7.743585e+002, 5.377238e+000
7.748406e+002, 5.309309e+000
7.753227e+002, 5.218184e+000
7.758048e+002, 5.122062e+000
7.762869e+002, 5.034974e+000
7.767690e+002, 4.976758e+000
7.772512e+002, 4.935034e+000
7.777333e+002, 5.031522e+000
7.782154e+002, 5.417986e+000
7.786975e+002, 5.672603e+000
7.791796e+002, 5.369627e+000
7.796617e+002, 4.875656e+000
7.801439e+002, 4.873286e+000
7.806260e+002, 5.527494e+000
7.811081e+002, 5.941336e+000
7.815902e+002, 5.707820e+000
7.820723e+002, 5.358661e+000
7.825544e+002, 5.204825e+000
7.830366e+002, 5.182740e+000
7.835187e+002, 5.165368e+000
7.840008e+002, 5.114089e+000
7.844829e+002, 5.046218e+000
7.849650e+002, 4.965108e+000
7.854471e+002, 4.887302e+000
7.859293e+002, 4.871364e+000
7.864114e+002, 4.918205e+000
7.868935e+002, 4.969992e+000
7.873756e+002, 5.016484e+000
7.878577e+002, 5.050416e+000
7.883398e+002, 5.053743e+000
7.888220e+002, 5.035013e+000
7.893040e+002, 5.066963e+000
7.897861e+002, 5.255675e+000
7.902682e+002, 5.340387e+000
7.907504e+002, 5.231136e+000
7.912325e+002, 5.077777e+000
7.917146e+002, 4.941509e+000
7.921967e+002, 4.844638e+000
7.926788e+002, 4.813573e+000
7.931609e+002, 4.861169e+000
7.936431e+002, 4.948596e+000
7.941252e+002, 5.099397e+000
7.946073e+002, 5.243302e+000
7.950894e+002, 5.203969e+000
7.955715e+002, 5.005148e+000
7.960536e+002, 4.869130e+000
7.965358e+002, 4.890823e+000
7.970179e+002, 4.975537e+000
7.975000e+002, 4.991233e+000
7.979821e+002, 4.933681e+000
7.984642e+002, 4.915071e+000
7.989464e+002, 4.972095e+000
7.994285e+002, 5.001434e+000
7.999106e+002, 4.956550e+000
8.003927e+002, 4.891172e+000
8.008748e+002, 4.820574e+000
8.013569e+002, 4.758718e+000
8.018391e+002, 4.766309e+000
8.023212e+002, 4.926960e+000
8.028033e+002, 5.060946e+000
8.032854e+002, 5.029874e+000
8.037675e+002, 4.948904e+000
8.042496e+002, 4.984327e+000
8.047318e+002, 5.108678e+000
8.052139e+002, 5.148759e+000
8.056960e+002, 5.005096e+000
8.061781e+002, 4.811188e+000
8.066602e+002, 4.806701e+000
8.071423e+002, 4.972767e+000
8.076245e+002, 5.039614e+000
8.081066e+002, 4.980623e+000
8.085887e+002, 4.901480e+000
8.090708e+002, 4.840010e+000
8.095529e+002, 4.794671e+000
8.100350e+002, 4.767329e+000
8.105172e+002, 4.762715e+000
8.109993e+002, 4.744507e+000
8.114814e+002, 4.658966e+000
8.119635e+002, 4.628140e+000
8.124456e+002, 4.758584e+000
8.129277e+002, 4.905950e+000
8.134099e+002, 4.913285e+000
8.138920e+002, 4.797883e+000
8.143741e+002, 4.700902e+000
8.148562e+002, 4.693548e+000
8.153383e+002, 4.729385e+000
8.158204e+002, 4.750188e+000
8.163026e+002, 4.780641e+000
8.167847e+002, 4.916189e+000
8.172668e+002, 5.146066e+000
8.177489e+002, 5.288842e+000
8.182310e+002, 5.235304e+000
8.187131e+002, 5.068412e+000
8.191953e+002, 4.936816e+000
8.196774e+002, 4.835775e+000
8.201595e+002, 4.806366e+000
8.206416e+002, 4.890207e+000
8.211237e+002, 4.967173e+000
8.216058e+002, 5.000352e+000
8.220880e+002, 4.998418e+000
8.225701e+002, 4.951816e+000
8.230522e+002, 4.863955e+000
8.235343e+002, 4.823624e+000
8.240164e+002, 4.907430e+000
8.244985e+002, 4.971492e+000
8.249807e+002, 4.939017e+000
8.254628e+002, 4.863324e+000
8.259449e+002, 4.793627e+000
8.264270e+002, 4.740561e+000
8.269091e+002, 4.706728e+000
8.273912e+002, 4.696965e+000
8.278734e+002, 4.690065e+000
8.283555e+002, 4.647539e+000
8.288376e+002, 4.581010e+000
8.293197e+002, 4.527946e+000
8.298018e+002, 4.491574e+000
8.302839e+002, 4.525337e+000
8.307661e+002, 4.674994e+000
8.312482e+002, 4.850874e+000
8.317303e+002, 4.894804e+000
8.322124e+002, 4.776892e+000
8.326945e+002, 4.745293e+000
8.331766e+002, 4.878372e+000
8.336588e+002, 4.985531e+000
8.341409e+002, 5.009050e+000
8.346230e+002, 5.003443e+000
8.351051e+002, 5.041044e+000
8.355872e+002, 5.098265e+000
8.360693e+002, 5.044816e+000
8.365515e+002, 4.712371e+000
8.370336e+002, 4.467722e+000
8.375157e+002, 4.586310e+000
8.379978e+002, 4.849134e+000
8.384799e+002, 5.047934e+000
8.389620e+002, 5.148042e+000
8.394442e+002, 5.136569e+000
8.399263e+002, 5.006873e+000
8.404084e+002, 4.836164e+000
8.408905e+002, 4.708367e+000
8.413726e+002, 4.628813e+000
8.418547e+002, 4.655279e+000
8.423369e+002, 4.796799e+000
8.428190e+002, 4.903020e+000
8.433011e+002, 4.913740e+000
8.437832e+002, 4.885827e+000
8.442653e+002, 4.885360e+000
8.447474e+002, 4.911101e+000
8.452296e+002, 4.908706e+000
8.457117e+002, 4.832133e+000
8.461938e+002, 4.795503e+000
8.466759e+002, 4.816008e+000
8.471580e+002, 4.870968e+000
8.476401e+002, 4.993627e+000
8.481223e+002, 5.131278e+000
8.486044e+002, 5.160918e+000
8.490865e+002, 5.027078e+000
8.495686e+002, 4.893935e+000
8.500507e+002, 4.871576e+000
8.505328e+002, 4.875509e+000
8.510150e+002, 4.795125e+000
8.514971e+002, 4.673495e+000
8.519792e+002, 4.624852e+000
8.524613e+002, 4.680952e+000
8.529434e+002, 4.779912e+000
8.534255e+002, 4.864825e+000
8.539077e+002, 4.942308e+000
8.543898e+002, 5.060762e+000
8.548719e+002, 5.220416e+000
8.553540e+002, 5.224596e+000
8.558361e+002, 4.993659e+000
8.563182e+002, 4.784004e+000
8.568004e+002, 4.805398e+000
8.572825e+002, 4.980483e+000
8.577646e+002, 5.060134e+000
8.582467e+002, 5.000373e+000
8.587288e+002, 4.938982e+000
8.592109e+002, 4.810781e+000
8.596931e+002, 4.756797e+000
8.601752e+002, 4.899026e+000
8.606573e+002, 5.101473e+000
8.611394e+002, 5.217185e+000
8.616215e+002, 5.226374e+000
8.621036e+002, 5.148896e+000
8.625858e+002, 4.897689e+000
8.630679e+002, 4.664116e+000
8.635500e+002, 4.587972e+000
8.640321e+002, 4.606249e+000
8.645142e+002, 4.650343e+000
8.649963e+002, 4.699094e+000
8.654785e+002, 4.734435e+000
8.659606e+002, 4.745938e+000
8.664427e+002, 4.739292e+000
8.669248e+002, 4.712674e+000
8.674069e+002, 4.673368e+000
8.678890e+002, 4.662240e+000
8.683712e+002, 4.682207e+000
8.688533e+002, 4.709982e+000
8.693354e+002, 4.733596e+000
8.698175e+002, 4.773067e+000
8.702996e+002, 4.870400e+000
8.707817e+002, 5.027331e+000
8.712639e+002, 5.055182e+000
8.717459e+002, 4.852776e+000
8.722280e+002, 4.699464e+000
8.727101e+002, 4.647494e+000
8.731923e+002, 4.652674e+000
8.736744e+002, 4.728898e+000
8.741565e+002, 4.837768e+000
8.746386e+002, 4.885832e+000
8.751207e+002, 4.838188e+000
8.756028e+002, 4.789984e+000
8.760850e+002, 4.790278e+000
8.765671e+002, 4.786574e+000
8.770492e+002, 4.696543e+000
8.775313e+002, 4.591670e+000
8.780134e+002, 4.623776e+000
8.784955e+002, 4.807119e+000
8.789777e+002, 4.967279e+000
8.794598e+002, 4.948947e+000
8.799419e+002, 4.852503e+000
8.804240e+002, 4.844514e+000
8.809061e+002, 4.901567e+000
8.813882e+002, 4.947133e+000
8.818704e+002, 4.967022e+000
8.823525e+002, 4.946902e+000
8.828346e+002, 4.874701e+000
8.833167e+002, 4.769005e+000
8.837988e+002, 4.653626e+000
8.842809e+002, 4.512856e+000
8.847631e+002, 4.492602e+000
8.852452e+002, 4.655021e+000
8.857273e+002, 4.784051e+000
8.862094e+002, 4.793306e+000
8.866915e+002, 4.748889e+000
8.871736e+002, 4.700381e+000
8.876558e+002, 4.652671e+000
8.881379e+002, 4.677300e+000
8.886200e+002, 4.871393e+000
8.891021e+002, 5.003531e+000
8.895842e+002, 4.978633e+000
8.900663e+002, 4.932091e+000
8.905485e+002, 4.967886e+000
8.910306e+002, 5.049947e+000
8.915127e+002, 5.089982e+000
8.919948e+002, 5.062422e+000
8.924769e+002, 5.032690e+000
8.929590e+002, 5.109625e+000
8.934412e+002, 5.148878e+000
8.939233e+002, 4.904500e+000
8.944054e+002, 4.527541e+000
8.948875e+002, 4.346619e+000
8.953696e+002, 4.419716e+000
8.958517e+002, 4.594987e+000
8.963339e+002, 4.775783e+000
8.968160e+002, 4.933012e+000
8.972981e+002, 4.994731e+000
8.977802e+002, 4.969770e+000
8.982623e+002, 4.953087e+000
8.987444e+002, 4.955793e+000
8.992266e+002, 4.924377e+000
8.997087e+002, 4.818669e+000
9.001908e+002, 4.710915e+000
9.006729e+002, 4.725881e+000
9.011550e+002, 4.874857e+000
9.016371e+002, 4.879888e+000
9.021193e+002, 4.610148e+000
9.026014e+002, 4.439551e+000
9.030835e+002, 4.478163e+000
9.035656e+002, 4.598128e+000
9.040477e+002, 4.774731e+000
9.045298e+002, 4.957988e+000
9.050120e+002, 5.004759e+000
9.054941e+002, 4.838272e+000
9.059762e+002, 4.712239e+000
9.064583e+002, 4.710678e+000
9.069404e+002, 4.743004e+000
9.074225e+002, 4.756200e+000
9.079047e+002, 4.769588e+000
9.083868e+002, 4.823435e+000
9.088689e+002, 4.916780e+000
9.093510e+002, 5.004233e+000
9.098331e+002, 5.079236e+000
9.103152e+002, 5.104324e+000
9.107974e+002, 5.004740e+000
9.112795e+002, 4.842971e+000
9.117616e+002, 4.726471e+000
9.122437e+002, 4.666024e+000
9.127258e+002, 4.634660e+000
9.132079e+002, 4.619700e+000
9.136901e+002, 4.634439e+000
9.141722e+002, 4.717431e+000
9.146543e+002, 4.847397e+000
9.151364e+002, 4.898010e+000
9.156185e+002, 4.867032e+000
9.161006e+002, 4.805568e+000
9.165828e+002, 4.709604e+000
9.170649e+002, 4.671470e+000
9.175470e+002, 4.796006e+000
9.180291e+002, 5.013785e+000
9.185112e+002, 5.059391e+000
9.189933e+002, 4.824652e+000
9.194755e+002, 4.695201e+000
9.199576e+002, 4.713982e+000
9.204397e+002, 4.778287e+000
9.209218e+002, 4.897188e+000
9.214039e+002, 5.009862e+000
9.218860e+002, 5.046995e+000
9.223682e+002, 5.009486e+000
9.228503e+002, 4.947172e+000
9.233324e+002, 4.818457e+000
9.238145e+002, 4.731256e+000
9.242966e+002, 4.754106e+000
9.247787e+002, 4.795784e+000
9.252609e+002, 4.765154e+000
9.257430e+002, 4.701445e+000
9.262251e+002, 4.706599e+000
9.267072e+002, 4.812418e+000
9.271893e+002, 4.914205e+000
9.276714e+002, 4.936571e+000
9.281536e+002, 4.926931e+000
9.286357e+002, 4.946319e+000
9.291178e+002, 4.965491e+000
9.295999e+002, 4.901556e+000
9.300820e+002, 4.762266e+000
9.305641e+002, 4.658921e+000
9.310463e+002, 4.661883e+000
9.315284e+002, 4.738741e+000
9.320105e+002, 4.885466e+000
9.324926e+002, 5.064303e+000
9.329747e+002, 5.093272e+000
9.334568e+002, 4.972166e+000
9.339390e+002, 4.863283e+000
9.344211e+002, 4.826724e+000
9.349032e+002, 4.824113e+000
9.353853e+002, 4.811394e+000
9.358674e+002, 4.797705e+000
9.363495e+002, 4.853255e+000
9.368317e+002, 5.014113e+000
9.373138e+002, 5.074687e+000
9.377959e+002, 4.958529e+000
9.382780e+002, 4.865786e+000
9.387601e+002, 4.964385e+000
9.392422e+002, 5.104690e+000
9.397244e+002, 4.986166e+000
9.402065e+002, 4.533924e+000
9.406886e+002, 4.266360e+000
9.411707e+002, 4.228839e+000
9.416528e+002, 4.305115e+000
9.421349e+002, 4.622294e+000
9.426171e+002, 4.912127e+000
9.430992e+002, 4.952603e+000
9.435813e+002, 4.811585e+000
9.440634e+002, 4.673415e+000
9.445455e+002, 4.559158e+000
9.450276e+002, 4.504197e+000
9.455098e+002, 4.572702e+000
9.459919e+002, 4.649353e+000
9.464740e+002, 4.623919e+000
9.469561e+002, 4.578163e+000
9.474382e+002, 4.664614e+000
9.479203e+002, 4.865339e+000
9.484025e+002, 4.978775e+000
9.488846e+002, 4.858127e+000
9.493667e+002, 4.715488e+000
9.498488e+002, 4.808222e+000
9.503309e+002, 4.978281e+000
9.508130e+002, 4.947111e+000
9.512952e+002, 4.763525e+000
9.517773e+002, 4.664022e+000
9.522594e+002, 4.722370e+000
9.527415e+002, 4.789430e+000
9.532236e+002, 4.698707e+000
9.537057e+002, 4.544751e+000
9.541878e+002, 4.597535e+000
9.546699e+002, 4.815269e+000
9.551520e+002, 4.904912e+000
9.556342e+002, 4.825964e+000
9.561163e+002, 4.742923e+000
9.565984e+002, 4.743991e+000
9.570805e+002, 4.788941e+000
9.575626e+002, 4.816889e+000
9.580447e+002, 4.828131e+000
9.585269e+002, 4.830264e+000
9.590090e+002, 4.827253e+000
9.594911e+002, 4.791054e+000
9.599732e+002, 4.691753e+000
9.604553e+002, 4.612198e+000
9.609374e+002, 4.613259e+000
9.614196e+002, 4.681816e+000
9.619017e+002, 4.790206e+000
9.623838e+002, 4.980018e+000
9.628659e+002, 5.080601e+000
9.633480e+002, 5.053713e+000
9.638301e+002, 4.987509e+000
9.643123e+002, 4.844637e+000
9.647944e+002, 4.722547e+000
9.652765e+002, 4.726202e+000
9.657586e+002, 4.828973e+000
9.662407e+002, 4.905139e+000
9.667228e+002, 4.960973e+000
9.672050e+002, 4.945790e+000
9.676871e+002, 4.777330e+000
9.681692e+002, 4.612142e+000
9.686513e+002, 4.511024e+000
9.691334e+002, 4.484159e+000
9.696155e+002, 4.567210e+000
9.700977e+002, 4.744325e+000
9.705798e+002, 4.897470e+000
9.710619e+002, 4.979811e+000
9.715440e+002, 5.016640e+000
9.720261e+002, 5.001266e+000
9.725082e+002, 4.966235e+000
9.729904e+002, 4.944093e+000
9.734725e+002, 4.932230e+000
9.739546e+002, 4.916594e+000
9.744367e+002, 4.893201e+000
9.749188e+002, 4.868370e+000
9.754009e+002, 4.838732e+000
9.758831e+002, 4.819767e+000
9.763652e+002, 4.848087e+000
9.768473e+002, 4.897656e+000
9.773294e+002, 4.922184e+000
9.778115e+002, 4.911413e+000
9.782936e+002, 4.834323e+000
9.787758e+002, 4.676500e+000
9.792579e+002, 4.548842e+000
9.797400e+002, 4.618857e+000
9.802221e+002, 4.819187e+000
9.807042e+002, 4.941963e+000
9.811863e+002, 4.986613e+000
9.816685e+002, 4.907979e+000
9.821506e+002, 4.698196e+000
9.826327e+002, 4.572474e+000
9.831148e+002, 4.683379e+000
9.835969e+002, 4.904663e+000
9.840790e+002, 5.002043e+000
9.845612e+002, 4.975004e+000
9.850433e+002, 4.893080e+000
9.855254e+002, 4.735891e+000
9.860075e+002, 4.660018e+000
9.864896e+002, 4.736168e+000
9.869717e+002, 4.803767e+000
9.874539e+002, 4.718863e+000
9.879360e+002, 4.538034e+000
9.884181e+002, 4.438236e+000
9.889002e+002, 4.433087e+000
9.893823e+002, 4.467333e+000
9.898644e+002, 4.579180e+000
9.903466e+002, 4.656347e+000
9.908287e+002, 4.656408e+000
9.913108e+002, 4.615685e+000
9.917929e+002, 4.547781e+000
9.922750e+002, 4.464610e+000
9.927571e+002, 4.438704e+000
9.932393e+002, 4.491363e+000
9.937214e+002, 4.562609e+000
9.942035e+002, 4.720067e+000
9.946856e+002, 4.814529e+000
9.951677e+002, 4.707744e+000
9.956498e+002, 4.565268e+000
9.961320e+002, 4.592819e+000
9.966141e+002, 4.769950e+000
9.970962e+002, 4.877651e+000
9.975783e+002, 4.852922e+000
9.980604e+002, 4.792465e+000
9.985425e+002, 4.673830e+000
9.990247e+002, 4.575390e+000
9.995068e+002, 4.551835e+000
9.999889e+002, 4.577683e+000
1.000471e+003, 4.641702e+000
1.000953e+003, 4.727011e+000
1.001435e+003, 4.734937e+000
1.001917e+003, 4.551636e+000
1.002399e+003, 4.393075e+000
1.002882e+003, 4.377969e+000
1.003364e+003, 4.439859e+000
1.003846e+003, 4.552361e+000
1.004328e+003, 4.680917e+000
1.004810e+003, 4.782638e+000
1.005292e+003, 4.844586e+000
1.005774e+003, 4.865108e+000
1.006256e+003, 4.837901e+000
1.006739e+003, 4.776054e+000
1.007221e+003, 4.679856e+000
1.007703e+003, 4.564629e+000
1.008185e+003, 4.412405e+000
1.008667e+003, 4.265165e+000
1.009149e+003, 4.250544e+000
1.009631e+003, 4.403193e+000
1.010113e+003, 4.573796e+000
1.010595e+003, 4.639019e+000
1.011078e+003, 4.636934e+000
1.011560e+003, 4.580267e+000
1.012042e+003, 4.513892e+000
1.012524e+003, 4.594099e+000
1.013006e+003, 4.787089e+000
1.013488e+003, 4.843316e+000
1.013970e+003, 4.656872e+000
1.014452e+003, 4.413236e+000
1.014935e+003, 4.291953e+000
1.015417e+003, 4.289847e+000
1.015899e+003, 4.480112e+000
1.016381e+003, 4.794693e+000
1.016863e+003, 4.870956e+000
1.017345e+003, 4.677104e+000
1.017827e+003, 4.496185e+000
1.018309e+003, 4.473132e+000
1.018791e+003, 4.538771e+000
1.019274e+003, 4.620079e+000
1.019756e+003, 4.701245e+000
1.020238e+003, 4.681768e+000
1.020720e+003, 4.567545e+000
1.021202e+003, 4.523824e+000
1.021684e+003, 4.582454e+000
1.022166e+003, 4.654306e+000
1.022648e+003, 4.691653e+000
1.023130e+003, 4.695686e+000
1.023613e+003, 4.659935e+000
1.024095e+003, 4.588681e+000
1.024577e+003, 4.567616e+000
1.025059e+003, 4.609258e+000
1.025541e+003, 4.578592e+000
1.026023e+003, 4.424067e+000
1.026505e+003, 4.317324e+000
1.026987e+003, 4.373941e+000
1.027469e+003, 4.526677e+000
1.027952e+003, 4.662953e+000
1.028434e+003, 4.786396e+000
1.028916e+003, 4.806795e+000
1.029398e+003, 4.677243e+000
1.029880e+003, 4.619676e+000
1.030362e+003, 4.715735e+000
1.030844e+003, 4.792287e+000
1.031326e+003, 4.716179e+000
1.031809e+003, 4.569318e+000
1.032291e+003, 4.521182e+000
1.032773e+003, 4.585985e+000
1.033255e+003, 4.632007e+000
1.033737e+003, 4.669007e+000
1.034219e+003, 4.662714e+000
1.034701e+003, 4.575864e+000
1.035183e+003, 4.490770e+000
1.035666e+003, 4.460308e+000
1.036148e+003, 4.469500e+000
1.036630e+003, 4.486485e+000
1.037112e+003, 4.507395e+000
1.037594e+003, 4.559844e+000
1.038076e+003, 4.714447e+000
1.038558e+003, 4.784976e+000
1.039040e+003, 4.668242e+000
1.039522e+003, 4.536032e+000
1.040005e+003, 4.502938e+000
1.040487e+003, 4.530272e+000
1.040969e+003, 4.531837e+000
1.041451e+003, 4.494352e+000
1.041933e+003, 4.501334e+000
1.042415e+003, 4.620656e+000
1.042897e+003, 4.691434e+000
1.043379e+003, 4.656885e+000
1.043861e+003, 4.592346e+000
1.044344e+003, 4.497487e+000
1.044826e+003, 4.423310e+000
1.045308e+003, 4.500916e+000
1.045790e+003, 4.778676e+000
1.046272e+003, 4.915204e+000
1.046754e+003, 4.761134e+000
1.047236e+003, 4.618751e+000
1.047718e+003, 4.554888e+000
1.048201e+003, 4.533075e+000
1.048683e+003, 4.536809e+000
1.049165e+003, 4.559706e+000
1.049647e+003, 4.609656e+000
1.050129e+003, 4.695395e+000
1.050611e+003, 4.706674e+000
1.051093e+003, 4.509649e+000
1.051575e+003, 4.388829e+000
1.052057e+003, 4.508304e+000
1.052540e+003, 4.656109e+000
1.053022e+003, 4.656475e+000
1.053504e+003, 4.582009e+000
1.053986e+003, 4.591006e+000
1.054468e+003, 4.708435e+000
1.054950e+003, 4.789149e+000
1.055432e+003, 4.789961e+000
1.055914e+003, 4.754843e+000
1.056396e+003, 4.658098e+000
1.056879e+003, 4.570367e+000
1.057361e+003, 4.559953e+000
1.057843e+003, 4.589720e+000
1.058325e+003, 4.594292e+000
1.058807e+003, 4.563171e+000
1.059289e+003, 4.514668e+000
1.059771e+003, 4.413628e+000
1.060253e+003, 4.351753e+000
1.060736e+003, 4.373870e+000
1.061218e+003, 4.437901e+000
1.061700e+003, 4.554595e+000
1.062182e+003, 4.670937e+000
1.062664e+003, 4.694857e+000
1.063146e+003, 4.618843e+000
1.063628e+003, 4.546417e+000
1.064110e+003, 4.463095e+000
1.064593e+003, 4.463693e+000
1.065075e+003, 4.738951e+000
1.065557e+003, 4.962765e+000
1.066039e+003, 4.825831e+000
1.066521e+003, 4.498693e+000
1.067003e+003, 4.212045e+000
1.067485e+003, 4.024850e+000
1.067967e+003, 4.011559e+000
1.068449e+003, 4.327674e+000
1.068932e+003, 4.599065e+000
1.069414e+003, 4.635552e+000
1.069896e+003, 4.587703e+000
1.070378e+003, 4.544683e+000
1.070860e+003, 4.504487e+000
1.071342e+003, 4.428831e+000
1.071824e+003, 4.331169e+000
1.072306e+003, 4.310896e+000
1.072788e+003, 4.448622e+000
1.073271e+003, 4.566476e+000
1.073753e+003, 4.555216e+000
1.074235e+003, 4.521904e+000
1.074717e+003, 4.547664e+000
1.075199e+003, 4.596761e+000
1.075681e+003, 4.614532e+000
1.076163e+003, 4.601255e+000
1.076645e+003, 4.591416e+000
1.077127e+003, 4.588075e+000
1.077610e+003, 4.617357e+000
1.078092e+003, 4.766017e+000
1.078574e+003, 4.869699e+000
1.079056e+003, 4.759935e+000
1.079538e+003, 4.582385e+000
1.080020e+003, 4.514548e+000
1.080502e+003, 4.549437e+000
1.080984e+003, 4.587555e+000
1.081467e+003, 4.602900e+000
1.081949e+003, 4.597204e+000
1.082431e+003, 4.575041e+000
1.082913e+003, 4.527675e+000
1.083395e+003, 4.396201e+000
1.083877e+003, 4.278262e+000
1.084359e+003, 4.320268e+000
1.084841e+003, 4.460070e+000
1.085323e+003, 4.505565e+000
1.085806e+003, 4.398178e+000
1.086288e+003, 4.282738e+000
1.086770e+003, 4.152777e+000
1.087252e+003, 4.114149e+000
1.087734e+003, 4.346083e+000
1.088216e+003, 4.586625e+000
1.088698e+003, 4.539333e+000
1.089180e+003, 4.321336e+000
1.089662e+003, 4.223498e+000
1.090145e+003, 4.305699e+000
1.090627e+003, 4.374974e+000
1.091109e+003, 4.337733e+000
1.091591e+003, 4.301346e+000
1.092073e+003, 4.336306e+000
1.092555e+003, 4.366230e+000
1.093037e+003, 4.282809e+000
1.093519e+003, 4.173621e+000
1.094002e+003, 4.228651e+000
1.094484e+003, 4.454817e+000
1.094966e+003, 4.570976e+000
1.095448e+003, 4.359701e+000
1.095930e+003, 4.216323e+000
1.096412e+003, 4.327823e+000
1.096894e+003, 4.485010e+000
1.097376e+003, 4.586112e+000
1.097859e+003, 4.632835e+000
1.098341e+003, 4.621764e+000
1.098823e+003, 4.565001e+000
1.099305e+003, 4.533048e+000
1.099787e+003, 4.601243e+000
1.100269e+003, 4.570402e+000
1.100751e+003, 4.202885e+000
1.101233e+003, 3.946741e+000
1.101715e+003, 4.145617e+000
1.102198e+003, 4.471865e+000
1.102680e+003, 4.581906e+000
1.103162e+003, 4.501772e+000
1.103644e+003, 4.425269e+000
1.104126e+003, 4.381646e+000
1.104608e+003, 4.338097e+000
1.105090e+003, 4.288224e+000
1.105572e+003, 4.238659e+000
1.106054e+003, 4.153280e+000
1.106537e+003, 4.103936e+000
1.107019e+003, 4.170677e+000
1.107501e+003, 4.313358e+000
1.107983e+003, 4.437213e+000
1.108465e+003, 4.538385e+000
1.108947e+003, 4.603749e+000
1.109429e+003, 4.660674e+000
1.109911e+003, 4.640851e+000
1.110394e+003, 4.428180e+000
1.110876e+003, 4.242904e+000
1.111358e+003, 4.248995e+000
1.111840e+003, 4.351861e+000
1.112322e+003, 4.404963e+000
1.112804e+003, 4.405776e+000
1.113286e+003, 4.368743e+000
1.113768e+003, 4.233937e+000
1.114250e+003, 4.161685e+000
1.114733e+003, 4.194842e+000
1.115215e+003, 4.249400e+000
1.115697e+003, 4.310758e+000
1.116179e+003, 4.356276e+000
1.116661e+003, 4.346558e+000
1.117143e+003, 4.293501e+000
1.117625e+003, 4.289381e+000
1.118107e+003, 4.382181e+000
1.118589e+003, 4.406166e+000
1.119072e+003, 4.320786e+000
1.119554e+003, 4.242266e+000
1.120036e+003, 4.188808e+000
1.120518e+003, 4.186509e+000
1.121000e+003, 4.278583e+000
1.121482e+003, 4.424820e+000
1.121964e+003, 4.510750e+000
1.122446e+003, 4.538299e+000
1.122929e+003, 4.475436e+000
1.123411e+003, 4.266212e+000
1.123893e+003, 4.168493e+000
1.124375e+003, 4.272867e+000
1.124857e+003, 4.387469e+000
1.125339e+003, 4.385306e+000
1.125821e+003, 4.333131e+000
1.126303e+003, 4.349756e+000
1.126786e+003, 4.429369e+000
1.127268e+003, 4.467060e+000
1.127750e+003, 4.461718e+000
1.128232e+003, 4.411382e+000
1.128714e+003, 4.305715e+000
1.129196e+003, 4.237765e+000
1.129678e+003, 4.254672e+000
1.130160e+003, 4.296221e+000
1.130642e+003, 4.288728e+000
1.131125e+003, 4.258644e+000
1.131607e+003, 4.321302e+000
1.132089e+003, 4.467072e+000
1.132571e+003, 4.503295e+000
1.133053e+003, 4.423210e+000
1.133535e+003, 4.408715e+000
1.134017e+003, 4.515112e+000
1.134499e+003, 4.567454e+000
1.134981e+003, 4.421822e+000
1.135464e+003, 4.184614e+000
1.135946e+003, 4.010893e+000
1.136428e+003, 3.915093e+000
1.136910e+003, 4.005948e+000
1.137392e+003, 4.234714e+000
1.137874e+003, 4.354827e+000
1.138356e+003, 4.334543e+000
1.138838e+003, 4.312868e+000
1.139321e+003, 4.361186e+000
1.139803e+003, 4.423429e+000
1.140285e+003, 4.443705e+000
1.140767e+003, 4.429884e+000
1.141249e+003, 4.393031e+000
1.141731e+003, 4.335304e+000
1.142213e+003, 4.246900e+000
1.142695e+003, 4.142683e+000
1.143177e+003, 4.054515e+000
1.143660e+003, 3.999319e+000
1.144142e+003, 4.024170e+000
1.144624e+003, 4.202521e+000
1.145106e+003, 4.377778e+000
1.145588e+003, 4.357763e+000
1.146070e+003, 4.263140e+000
1.146552e+003, 4.208641e+000
1.147034e+003, 4.213734e+000
1.147516e+003, 4.347966e+000
1.147999e+003, 4.565452e+000
1.148481e+003, 4.642278e+000
1.148963e+003, 4.458941e+000
1.149445e+003, 4.285323e+000
1.149927e+003, 4.303122e+000
1.150409e+003, 4.378319e+000
1.150891e+003, 4.467721e+000
1.151373e+003, 4.519567e+000
1.151856e+003, 4.449470e+000
1.152338e+003, 4.307745e+000
1.152820e+003, 4.209031e+000
1.153302e+003, 4.177558e+000
1.153784e+003, 4.181618e+000
1.154266e+003, 4.259984e+000
1.154748e+003, 4.301758e+000
1.155230e+003, 4.225677e+000
1.155713e+003, 4.151162e+000
1.156195e+003, 4.167928e+000
1.156677e+003, 4.219966e+000
1.157159e+003, 4.223303e+000
1.157641e+003, 4.184121e+000
1.158123e+003, 4.180573e+000
1.158605e+003, 4.230078e+000
1.159087e+003, 4.293626e+000
1.159569e+003, 4.408111e+000
1.160052e+003, 4.482421e+000
1.160534e+003, 4.480437e+000
1.161016e+003, 4.442987e+000
1.161498e+003, 4.368658e+000
1.161980e+003, 4.298458e+000
1.162462e+003, 4.338036e+000
1.162944e+003, 4.506903e+000
1.163426e+003, 4.567083e+000
1.163908e+003, 4.462571e+000
1.164391e+003, 4.419543e+000
1.164873e+003, 4.495277e+000
1.165355e+003, 4.553932e+000
1.165837e+003, 4.533061e+000
1.166319e+003, 4.455973e+000
1.166801e+003, 4.328390e+000
1.167283e+003, 4.190141e+000
1.167765e+003, 4.246831e+000
1.168247e+003, 4.510651e+000
1.168730e+003, 4.540680e+000
1.169212e+003, 4.308338e+000
1.169694e+003, 4.254828e+000
1.170176e+003, 4.504934e+000
1.170658e+003, 4.740594e+000
1.171140e+003, 4.742714e+000
1.171622e+003, 4.607222e+000
1.172104e+003, 4.437641e+000
1.172587e+003, 4.275496e+000
1.173069e+003, 4.306664e+000
1.173551e+003, 4.467378e+000
1.174033e+003, 4.495267e+000
1.174515e+003, 4.388530e+000
1.174997e+003, 4.330730e+000
1.175479e+003, 4.388270e+000
1.175961e+003, 4.470695e+000
1.176443e+003, 4.514554e+000
1.176926e+003, 4.520973e+000
1.177408e+003, 4.452538e+000
1.177890e+003, 4.376161e+000
1.178372e+003, 4.400716e+000
1.178854e+003, 4.489886e+000
1.179336e+003, 4.586672e+000
1.179818e+003, 4.662080e+000
1.180300e+003, 4.641622e+000
1.180782e+003, 4.473392e+000
1.181265e+003, 4.383337e+000
1.181747e+003, 4.602639e+000
1.182229e+003, 4.832248e+000
1.182711e+003, 4.898825e+000
1.183193e+003, 4.862527e+000
1.183675e+003, 4.710069e+000
1.184157e+003, 4.534944e+000
1.184639e+003, 4.526654e+000
1.185122e+003, 4.697719e+000
1.185604e+003, 4.769876e+000
1.186086e+003, 4.570113e+000
1.186568e+003, 4.445860e+000
1.187050e+003, 4.484060e+000
1.187532e+003, 4.572196e+000
1.188014e+003, 4.756781e+000
1.188496e+003, 4.886737e+000
1.188979e+003, 4.778735e+000
1.189461e+003, 4.521456e+000
1.189943e+003, 4.376335e+000
1.190425e+003, 4.366777e+000
1.190907e+003, 4.323198e+000
1.191389e+003, 4.193555e+000
1.191871e+003, 4.193047e+000
1.192353e+003, 4.412405e+000
1.192835e+003, 4.587050e+000
1.193318e+003, 4.561536e+000
1.193800e+003, 4.501443e+000
1.194282e+003, 4.623738e+000
1.194764e+003, 4.861922e+000
1.195246e+003, 4.951606e+000
1.195728e+003, 4.897288e+000
1.196210e+003, 4.783727e+000
1.196692e+003, 4.621567e+000
1.197174e+003, 4.543712e+000
1.197657e+003, 4.578134e+000
1.198139e+003, 4.577679e+000
1.198621e+003, 4.444170e+000
1.199103e+003, 4.335390e+000
1.199585e+003, 4.526374e+000
1.200067e+003, 4.838363e+000
1.200549e+003, 4.910665e+000
1.201031e+003, 4.825097e+000
1.201514e+003, 4.721055e+000
1.201996e+003, 4.638776e+000
1.202478e+003, 4.648447e+000
1.202960e+003, 4.751574e+000
1.203442e+003, 4.823187e+000
1.203924e+003, 4.783528e+000
1.204406e+003, 4.713002e+000
1.204888e+003, 4.634477e+000
1.205370e+003, 4.591115e+000
1.205853e+003, 4.680227e+000
1.206335e+003, 4.779861e+000
1.206817e+003, 4.692180e+000
1.207299e+003, 4.498302e+000
1.207781e+003, 4.452683e+000
1.208263e+003, 4.613567e+000
1.208745e+003, 4.767043e+000
1.209227e+003, 4.952680e+000
1.209709e+003, 4.989485e+000
1.210192e+003, 4.634034e+000
1.210674e+003, 4.366272e+000
1.211156e+003, 4.543542e+000
1.211638e+003, 4.820661e+000
1.212120e+003, 4.839991e+000
1.212602e+003, 4.673584e+000
1.213084e+003, 4.595820e+000
1.213566e+003, 4.625030e+000
1.214049e+003, 4.655673e+000
1.214531e+003, 4.696443e+000
1.215013e+003, 4.693664e+000
1.215495e+003, 4.620875e+000
1.215977e+003, 4.591632e+000
1.216459e+003, 4.675653e+000
1.216941e+003, 4.783836e+000
1.217423e+003, 4.816154e+000
1.217906e+003, 4.770709e+000
1.218388e+003, 4.583032e+000
1.218870e+003, 4.308713e+000
1.219352e+003, 4.255493e+000
1.219834e+003, 4.398872e+000
1.220316e+003, 4.530361e+000
1.220798e+003, 4.602347e+000
1.221280e+003, 4.670346e+000
1.221762e+003, 4.765406e+000
1.222245e+003, 4.845125e+000
1.222727e+003, 4.846165e+000
1.223209e+003, 4.830439e+000
1.223691e+003, 4.867183e+000
1.224173e+003, 4.931641e+000
1.224655e+003, 5.050070e+000
1.225137e+003, 5.144199e+000
1.225619e+003, 5.014385e+000
1.226101e+003, 4.685487e+000
1.226584e+003, 4.488603e+000
1.227066e+003, 4.568677e+000
1.227548e+003, 4.700816e+000
1.228030e+003, 4.903646e+000
1.228512e+003, 5.017747e+000
1.228994e+003, 4.870011e+000
1.229476e+003, 4.711969e+000
1.229958e+003, 4.800560e+000
1.230441e+003, 4.982573e+000
1.230923e+003, 4.951025e+000
1.231405e+003, 4.715760e+000
1.231887e+003, 4.634623e+000
1.232369e+003, 4.790339e+000
1.232851e+003, 4.835927e+000
1.233333e+003, 4.714959e+000
1.233815e+003, 4.637809e+000
1.234297e+003, 4.677621e+000
1.234780e+003, 4.728693e+000
1.235262e+003, 4.711751e+000
1.235744e+003, 4.673642e+000
1.236226e+003, 4.708340e+000
1.236708e+003, 4.783816e+000
1.237190e+003, 4.734006e+000
1.237672e+003, 4.601678e+000
1.238154e+003, 4.608148e+000
1.238636e+003, 4.734118e+000
1.239119e+003, 4.761852e+000
1.239601e+003, 4.642739e+000
1.240083e+003, 4.529105e+000
1.240565e+003, 4.513076e+000
1.241047e+003, 4.557307e+000
1.241529e+003, 4.674474e+000
1.242011e+003, 4.783486e+000
1.242493e+003, 4.776459e+000
1.242975e+003, 4.737401e+000
1.243458e+003, 4.728305e+000
1.243940e+003, 4.789937e+000
1.244422e+003, 5.066061e+000
1.244904e+003, 5.540320e+000
1.245386e+003, 5.717911e+000
1.245868e+003, 5.215570e+000
1.246350e+003, 4.881201e+000
1.246832e+003, 4.981104e+000
1.247315e+003, 5.103944e+000
1.247797e+003, 5.173696e+000
1.248279e+003, 5.138361e+000
1.248761e+003, 4.890371e+000
1.249243e+003, 4.582846e+000
1.249725e+003, 4.501773e+000
1.250207e+003, 4.633761e+000
1.250689e+003, 4.749373e+000
1.251172e+003, 4.851674e+000
1.251654e+003, 4.899711e+000
1.252136e+003, 4.889547e+000
1.252618e+003, 4.840957e+000
1.253100e+003, 4.760223e+000
1.253582e+003, 4.701690e+000
1.254064e+003, 4.705115e+000
1.254546e+003, 4.726444e+000
1.255028e+003, 4.702255e+000
1.255510e+003, 4.655976e+000
1.255993e+003, 4.604348e+000
1.256475e+003, 4.578803e+000
1.256957e+003, 4.667981e+000
1.257439e+003, 4.827345e+000
1.257921e+003, 4.950793e+000
1.258403e+003, 5.011106e+000
1.258885e+003, 5.015786e+000
1.259367e+003, 4.947947e+000
1.259850e+003, 4.901533e+000
1.260332e+003, 4.960998e+000
1.260814e+003, 4.998398e+000
1.261296e+003, 4.893261e+000
1.261778e+003, 4.803755e+000
1.262260e+003, 4.935600e+000
1.262742e+003, 5.113267e+000
1.263224e+003, 4.996030e+000
1.263707e+003, 4.638326e+000
1.264189e+003, 4.523092e+000
1.264671e+003, 4.742017e+000
1.265153e+003, 4.889336e+000
1.265635e+003, 4.946062e+000
1.266117e+003, 5.009297e+000
1.266599e+003, 5.105441e+000
1.267081e+003, 5.183273e+000
1.267563e+003, 5.218299e+000
1.268046e+003, 5.179139e+000
1.268528e+003, 4.999653e+000
1.269010e+003, 4.772481e+000
1.269492e+003, 4.719391e+000
1.269974e+003, 4.785522e+000
1.270456e+003, 4.866491e+000
1.270938e+003, 4.934098e+000
1.271420e+003, 4.914263e+000
1.271902e+003, 4.827533e+000
1.272385e+003, 4.806751e+000
1.272867e+003, 4.902933e+000
1.273349e+003, 4.966054e+000
1.273831e+003, 4.875144e+000
1.274313e+003, 4.772807e+000
1.274795e+003, 4.708478e+000
1.275277e+003, 4.681013e+000
1.275759e+003, 4.687935e+000
1.276242e+003, 4.731976e+000
1.276724e+003, 4.860222e+000
1.277206e+003, 5.021822e+000
1.277688e+003, 5.049051e+000
1.278170e+003, 4.923738e+000
1.278652e+003, 4.830667e+000
1.279134e+003, 4.777205e+000
1.279616e+003, 4.727423e+000
1.280099e+003, 4.673826e+000
1.280581e+003, 4.641450e+000
1.281063e+003, 4.637277e+000
1.281545e+003, 4.682433e+000
1.282027e+003, 4.801176e+000
1.282509e+003, 4.937971e+000
1.282991e+003, 5.001147e+000
1.283473e+003, 5.009843e+000
1.283955e+003, 5.005676e+000
##END=



