##NAMES=Uchucchacuaite
##RRUFFID=R070760
##IDEAL CHEMISTRY=Ag^1+^Mn^2+^Pb^2+^_3_Sb^3+^_5_S^2-^_12_
##LOCALITY=Inakuraishi mine, Shakotan peninsula, Shiribeshi Province, Hokkaido Island, Japan
##OWNER=RRUFF
##SOURCE=Michael Scott
##DESCRIPTION=Steel gray metallic massive associated with rhodochrosite
##STATUS=The identification of this mineral is confirmed by single-crystal X-ray diffraction and chemical analysis.
##URL=rruff.info/R070760
##MEASURED CHEMISTRY=Ag_1.00_(Mn_0.82_Sb_0.11_Ag_0.04_Bi_0.02_)_Î£=0.99_Pb_2.98_Sb_5.00_S_12.00_
130.2827, 228.2830
130.7648, 226.1332
131.2469, 217.4344
131.7290, 203.5170
132.2112, 194.7882
132.6933, 197.0092
133.1754, 208.4146
133.6575, 217.4151
134.1396, 223.6445
134.6217, 228.5706
135.1039, 236.2547
135.5860, 247.6563
136.0681, 254.2523
136.5502, 247.5985
137.0323, 225.8290
137.5145, 216.0813
137.9966, 224.9448
138.4787, 245.4982
138.9608, 252.0433
139.4429, 239.7905
139.9250, 224.1146
140.4072, 217.5561
140.8893, 223.9275
141.3714, 227.4934
141.8535, 225.0219
142.3356, 216.4106
142.8177, 207.3085
143.2998, 196.2701
143.7820, 186.0296
144.2641, 179.9079
144.7462, 177.4948
145.2283, 179.6321
145.7104, 187.5740
146.1925, 205.1269
146.6747, 218.8639
147.1568, 229.7233
147.6389, 236.7833
148.1210, 236.7934
148.6031, 219.0184
149.0852, 203.6374
149.5674, 199.5636
150.0495, 221.7832
150.5316, 237.5441
151.0137, 244.4475
151.4958, 243.0493
151.9779, 239.5200
152.4601, 227.5675
152.9422, 217.0898
153.4243, 214.9683
153.9064, 232.1089
154.3885, 247.6947
154.8706, 258.0147
155.3528, 262.9618
155.8349, 263.0155
156.3170, 255.0630
156.7991, 243.1591
157.2812, 232.2608
157.7633, 224.6178
158.2455, 217.4306
158.7276, 209.0854
159.2097, 197.7500
159.6918, 188.9333
160.1739, 183.7737
160.6560, 182.3071
161.1382, 184.7426
161.6203, 195.3567
162.1024, 207.5247
162.5845, 216.8155
163.0666, 221.8023
163.5487, 224.1842
164.0309, 224.8878
164.5130, 223.7967
164.9951, 219.9372
165.4772, 206.5565
165.9593, 192.1885
166.4414, 186.0336
166.9236, 204.1519
167.4057, 222.6426
167.8878, 222.6599
168.3699, 202.5601
168.8520, 182.1181
169.3341, 172.4548
169.8163, 171.3227
170.2984, 174.8164
170.7805, 186.7700
171.2626, 199.8144
171.7447, 205.9557
172.2268, 203.2285
172.7090, 197.5856
173.1911, 191.7632
173.6732, 186.5894
174.1553, 184.8352
174.6374, 191.8303
175.1195, 202.3429
175.6017, 208.5837
176.0838, 207.9989
176.5659, 203.9247
177.0480, 196.8033
177.5301, 174.2384
178.0122, 189.3909
178.4944, 197.2714
178.9765, 198.2712
179.4586, 171.7809
179.9407, 180.7884
180.4228, 175.5700
180.9049, 169.7682
181.3871, 183.7716
181.8692, 174.6814
182.3513, 178.4470
182.8334, 180.1171
183.3155, 188.6849
183.7976, 194.3441
184.2797, 197.2508
184.7619, 189.1620
185.2440, 195.2719
185.7261, 195.6913
186.2082, 195.8775
186.6903, 203.9858
187.1724, 197.4958
187.6546, 205.4790
188.1367, 207.6844
188.6188, 215.8637
189.1009, 214.9497
189.5830, 208.8111
190.0651, 206.5554
190.5473, 208.3132
191.0294, 210.4542
191.5115, 209.9458
191.9936, 207.0598
192.4757, 205.3004
192.9578, 205.5577
193.4400, 207.1355
193.9221, 207.8886
194.4042, 207.6895
194.8863, 207.4346
195.3684, 207.4232
195.8505, 207.6181
196.3327, 210.1433
196.8148, 217.8931
197.2969, 229.0825
197.7790, 230.1217
198.2611, 218.7498
198.7432, 203.7594
199.2254, 195.4797
199.7075, 191.0609
200.1896, 195.3771
200.6717, 197.8848
201.1538, 198.6811
201.6359, 192.6404
202.1181, 195.4283
202.6002, 194.6781
203.0823, 193.7828
203.5644, 197.8133
204.0465, 192.7670
204.5286, 196.7193
205.0108, 197.0796
205.4929, 199.0839
205.9750, 197.5283
206.4571, 197.0721
206.9392, 194.5895
207.4213, 204.5388
207.9035, 216.1219
208.3856, 223.1992
208.8677, 225.0030
209.3498, 225.2098
209.8319, 222.8759
210.3140, 219.3261
210.7962, 221.2319
211.2783, 230.8876
211.7604, 241.5141
212.2425, 247.9179
212.7246, 249.3242
213.2067, 249.1491
213.6889, 247.2403
214.1710, 243.8246
214.6531, 242.6973
215.1352, 245.3191
215.6173, 248.1272
216.0994, 247.1103
216.5816, 240.3769
217.0637, 234.6234
217.5458, 231.2906
218.0279, 230.4844
218.5100, 231.0111
218.9921, 234.2835
219.4743, 237.4415
219.9564, 235.6816
220.4385, 224.8662
220.9206, 217.7599
221.4027, 219.4282
221.8848, 232.3857
222.3670, 241.7775
222.8491, 245.8742
223.3312, 247.4209
223.8133, 252.0869
224.2954, 264.1564
224.7775, 272.0078
225.2596, 269.8375
225.7418, 251.9599
226.2239, 239.7364
226.7060, 233.1893
227.1881, 232.3663
227.6702, 239.0314
228.1523, 260.4743
228.6345, 278.4578
229.1166, 282.7375
229.5987, 265.1409
230.0808, 252.5897
230.5629, 247.4406
231.0450, 248.2577
231.5272, 249.6381
232.0093, 253.5786
232.4914, 255.4895
232.9735, 252.4913
233.4556, 243.3105
233.9377, 231.2726
234.4199, 212.2365
234.9020, 188.3635
235.3841, 182.7078
235.8662, 208.0871
236.3483, 237.1501
236.8304, 248.2727
237.3126, 230.2094
237.7947, 216.0054
238.2768, 211.7624
238.7589, 217.2755
239.2410, 218.7942
239.7231, 214.3991
240.2053, 207.9173
240.6874, 202.5099
241.1695, 196.8540
241.6516, 194.7201
242.1337, 198.4595
242.6158, 208.9568
243.0980, 213.7983
243.5801, 210.3801
244.0622, 203.4873
244.5443, 198.7890
245.0264, 198.1879
245.5085, 196.3443
245.9907, 190.5442
246.4728, 178.8669
246.9549, 174.8778
247.4370, 182.1499
247.9191, 194.5493
248.4012, 203.1328
248.8834, 205.8257
249.3655, 208.3690
249.8476, 213.5194
250.3297, 223.6660
250.8118, 226.3943
251.2939, 218.2193
251.7761, 204.6717
252.2582, 195.2621
252.7403, 189.7501
253.2224, 188.8281
253.7045, 193.3735
254.1866, 205.2849
254.6688, 217.2380
255.1509, 230.9290
255.6330, 243.7589
256.1151, 248.9359
256.5972, 241.9122
257.0793, 235.1599
257.5615, 234.5195
258.0436, 242.7220
258.5257, 249.4049
259.0078, 254.4472
259.4899, 257.9459
259.9720, 260.4816
260.4542, 262.7280
260.9363, 262.7811
261.4184, 258.2166
261.9005, 245.5683
262.3826, 239.7081
262.8647, 242.4444
263.3469, 252.2456
263.8290, 264.8858
264.3111, 282.9903
264.7932, 298.9034
265.2753, 308.1308
265.7574, 309.5029
266.2396, 307.3573
266.7217, 300.1704
267.2038, 290.0829
267.6859, 285.4644
268.1680, 287.5654
268.6501, 292.4308
269.1323, 298.5692
269.6144, 307.0889
270.0965, 311.1288
270.5786, 308.5276
271.0607, 301.0070
271.5428, 295.9414
272.0250, 294.0368
272.5071, 292.9041
272.9892, 290.3306
273.4713, 285.7330
273.9534, 283.0444
274.4355, 282.9395
274.9177, 285.1435
275.3998, 289.3817
275.8819, 296.7411
276.3640, 302.7913
276.8461, 303.5295
277.3282, 298.5681
277.8104, 291.3457
278.2925, 279.8579
278.7746, 266.9125
279.2567, 268.1744
279.7388, 286.9985
280.2209, 307.0547
280.7031, 311.4368
281.1852, 299.3421
281.6673, 291.3526
282.1494, 294.2873
282.6315, 304.2455
283.1136, 303.6079
283.5958, 290.5144
284.0779, 276.5013
284.5600, 273.8418
285.0421, 282.1634
285.5242, 289.4413
286.0063, 292.6807
286.4884, 292.6037
286.9706, 290.8257
287.4527, 287.0493
287.9348, 283.6759
288.4169, 282.0916
288.8990, 282.5069
289.3811, 287.7052
289.8633, 304.2708
290.3454, 324.1836
290.8275, 320.6195
291.3096, 291.7302
291.7917, 259.3652
292.2738, 244.0079
292.7560, 243.3398
293.2381, 246.1525
293.7202, 251.0522
294.2023, 256.1911
294.6844, 257.9892
295.1665, 256.4576
295.6487, 251.3677
296.1308, 239.2992
296.6129, 222.7327
297.0950, 210.2687
297.5771, 207.2637
298.0592, 208.7439
298.5414, 205.8324
299.0235, 198.4730
299.5056, 191.3264
299.9877, 188.8582
300.4698, 189.6977
300.9519, 190.5837
301.4341, 189.5087
301.9162, 188.3488
302.3983, 191.1580
302.8804, 197.7751
303.3625, 201.9701
303.8446, 196.5059
304.3268, 185.2151
304.8089, 175.0110
305.2910, 167.9930
305.7731, 163.5079
306.2552, 160.6278
306.7373, 159.3868
307.2195, 161.0418
307.7016, 171.1329
308.1837, 183.6477
308.6658, 190.0745
309.1479, 180.5862
309.6300, 168.8270
310.1122, 165.1671
310.5943, 169.2138
311.0764, 174.6054
311.5585, 178.5711
312.0406, 181.4398
312.5227, 183.6194
313.0049, 185.9866
313.4870, 187.0631
313.9691, 185.1941
314.4512, 180.6282
314.9333, 176.6967
315.4154, 174.8728
315.8976, 174.4554
316.3797, 174.7818
316.8618, 175.9665
317.3439, 177.5690
317.8260, 180.2705
318.3081, 183.8209
318.7903, 185.3512
319.2724, 181.3053
319.7545, 176.1882
320.2366, 173.5698
320.7187, 172.8986
321.2008, 176.2148
321.6830, 187.3194
322.1651, 205.0587
322.6472, 217.4367
323.1293, 219.6907
323.6114, 217.2959
324.0935, 213.9452
324.5757, 207.4446
325.0578, 202.9333
325.5399, 203.1901
326.0220, 207.4390
326.5041, 207.4840
326.9862, 194.7488
327.4684, 183.0900
327.9505, 180.5511
328.4326, 203.2630
328.9147, 214.7652
329.3968, 206.9359
329.8789, 183.6393
330.3611, 169.1562
330.8432, 168.3853
331.3253, 171.4250
331.8074, 172.5128
332.2895, 167.8385
332.7716, 168.4904
333.2538, 178.3551
333.7359, 194.1954
334.2180, 202.1017
334.7001, 197.9262
335.1822, 192.6210
335.6643, 192.8300
336.1465, 201.2554
336.6286, 206.2567
337.1107, 205.5117
337.5928, 201.6638
338.0749, 202.6277
338.5570, 209.4640
339.0392, 217.8597
339.5213, 225.5675
340.0034, 232.5881
340.4855, 239.9315
340.9676, 248.7581
341.4497, 256.7021
341.9319, 257.7601
342.4140, 251.2616
342.8961, 244.3236
343.3782, 240.5627
343.8603, 239.7969
344.3424, 240.6727
344.8246, 243.8955
345.3067, 246.9141
345.7888, 245.5486
346.2709, 239.9638
346.7530, 232.8034
347.2351, 224.3556
347.7173, 215.2499
348.1994, 208.1578
348.6815, 203.6806
349.1636, 198.5852
349.6457, 186.8644
350.1278, 170.4632
350.6100, 156.9278
351.0921, 152.8924
351.5742, 153.0024
352.0563, 147.4740
352.5384, 135.3433
353.0205, 124.2696
353.5027, 121.1599
353.9848, 124.2225
354.4669, 130.0963
354.9490, 143.7683
355.4311, 155.6735
355.9132, 155.2115
356.3954, 142.1533
356.8775, 127.0705
357.3596, 113.2273
357.8417, 102.3615
358.3238, 96.40891
358.8059, 97.87366
359.2881, 102.9502
359.7702, 112.5875
360.2523, 126.0975
360.7344, 134.2518
361.2165, 129.8604
361.6986, 119.8076
362.1808, 110.0323
362.6629, 99.29205
363.1450, 91.84792
363.6271, 90.10641
364.1092, 93.39375
364.5913, 96.95668
365.0735, 102.3632
365.5556, 106.0114
366.0377, 105.7103
366.5198, 95.77389
367.0019, 88.23603
367.4840, 83.55539
367.9662, 81.88892
368.4482, 67.97242
368.9304, 87.57417
369.4125, 98.38188
369.8946, 100.8681
370.3767, 70.10867
370.8588, 82.27902
371.3409, 77.24506
371.8231, 71.50558
372.3052, 89.71808
372.7873, 63.79421
373.2694, 81.62687
373.7515, 81.99274
374.2336, 90.35271
374.7158, 81.40208
375.1979, 77.79819
375.6800, 91.51041
376.1621, 95.63455
376.6442, 84.69130
377.1263, 93.55943
377.6085, 67.03077
378.0906, 71.56329
378.5727, 89.49731
379.0548, 79.42440
379.5369, 88.60905
380.0190, 90.45934
380.5012, 58.97810
380.9833, 70.59097
381.4654, 68.96539
381.9475, 67.36358
382.4296, 65.26297
382.9117, 62.43822
383.3939, 62.91168
383.8760, 75.04824
384.3581, 94.36717
384.8402, 106.2628
385.3223, 102.6371
385.8044, 93.00391
386.2866, 90.39620
386.7687, 94.08434
387.2508, 98.50884
387.7329, 100.5379
388.2150, 100.6309
388.6971, 99.29236
389.1793, 96.20297
389.6614, 92.43319
390.1435, 87.12689
390.6256, 81.38872
391.1077, 78.85460
391.5898, 86.35371
392.0720, 94.62311
392.5541, 95.97186
393.0362, 85.55428
393.5183, 76.92848
394.0004, 76.86007
394.4825, 81.95527
394.9647, 86.00376
395.4468, 88.48658
395.9289, 88.58558
396.4110, 84.11772
396.8931, 71.68790
397.3752, 66.50841
397.8574, 78.85880
398.3395, 96.69477
398.8216, 105.3794
399.3037, 96.51449
399.7858, 87.45788
400.2679, 81.51590
400.7501, 78.95238
401.2322, 75.42823
401.7143, 69.83134
402.1964, 64.41764
402.6785, 61.04368
403.1606, 59.77747
403.6428, 60.42867
404.1249, 63.15882
404.6070, 67.79111
405.0891, 74.01643
405.5712, 82.73285
406.0533, 90.26811
406.5355, 94.03974
407.0176, 93.94411
407.4997, 91.60615
407.9818, 86.63973
408.4639, 80.27175
408.9460, 73.96048
409.4282, 67.74221
409.9103, 64.60534
410.3924, 67.37860
410.8745, 74.72409
411.3566, 83.36403
411.8387, 94.08757
412.3209, 101.7436
412.8030, 95.64552
413.2851, 80.59616
413.7672, 70.76408
414.2493, 79.25848
414.7314, 93.27857
415.2136, 96.97216
415.6957, 89.75436
416.1778, 81.02916
416.6599, 76.29025
417.1420, 74.45682
417.6241, 74.23454
418.1063, 75.74346
418.5884, 78.17914
419.0705, 83.13058
419.5526, 89.65965
420.0347, 91.87936
420.5168, 80.96770
420.9990, 68.85098
421.4811, 64.30669
421.9632, 78.57440
422.4453, 86.99970
422.9274, 81.35254
423.4095, 66.38456
423.8917, 55.74785
424.3738, 51.93549
424.8559, 51.33566
425.3380, 53.22773
425.8201, 59.37312
426.3022, 63.12265
426.7844, 61.91508
427.2665, 59.90227
427.7486, 64.30947
428.2307, 80.12970
428.7128, 91.03922
429.1949, 91.28000
429.6771, 81.08538
430.1592, 73.15057
430.6413, 67.91502
431.1234, 63.84802
431.6055, 58.19149
432.0876, 50.75970
432.5698, 49.40363
433.0519, 58.29210
433.5340, 72.22281
434.0161, 77.96810
434.4982, 75.67525
434.9803, 71.81898
435.4625, 71.30379
435.9446, 72.78909
436.4267, 72.24601
436.9088, 68.14354
437.3909, 64.68904
437.8730, 69.97793
438.3552, 80.25552
438.8373, 84.98198
439.3194, 71.40748
439.8015, 54.13694
440.2836, 47.45634
440.7657, 53.30125
441.2479, 60.54635
441.7300, 63.78641
442.2121, 64.62487
442.6942, 65.02662
443.1763, 68.24226
443.6584, 68.55868
444.1406, 60.05381
444.6227, 43.86382
445.1048, 36.15877
445.5869, 49.02068
446.0690, 65.29762
446.5511, 74.89815
447.0333, 72.07207
447.5154, 69.04189
447.9975, 65.02170
448.4796, 60.92907
448.9617, 59.29335
449.4438, 60.71878
449.9260, 63.65926
450.4081, 68.17944
450.8902, 74.95696
451.3723, 79.17664
451.8544, 80.74113
452.3365, 79.90737
452.8186, 76.41206
453.3008, 70.03200
453.7829, 63.38732
454.2650, 55.14568
454.7471, 47.65119
455.2292, 51.85819
455.7113, 68.49234
456.1935, 84.56224
456.6756, 88.63329
457.1577, 83.49095
457.6398, 75.89093
458.1219, 64.51912
458.6040, 56.31965
459.0862, 63.39290
459.5683, 81.59624
460.0504, 97.36870
460.5325, 102.7103
461.0146, 102.1796
461.4967, 98.86269
461.9789, 92.54138
462.4610, 86.71198
462.9431, 83.06298
463.4252, 81.00893
463.9073, 79.85648
464.3894, 77.81876
464.8716, 78.18491
465.3537, 85.26006
465.8358, 98.96111
466.3179, 104.2581
466.8000, 90.65201
467.2821, 74.26101
467.7643, 64.83337
468.2464, 65.21631
468.7285, 68.31410
469.2106, 76.47406
469.6927, 86.46377
470.1748, 89.00717
470.6570, 81.38836
471.1391, 72.84930
471.6212, 66.60240
472.1033, 62.54950
472.5854, 62.55611
473.0675, 67.84683
473.5497, 73.75748
474.0318, 74.05580
474.5139, 69.16859
474.9960, 63.93087
475.4781, 58.26604
475.9602, 54.22917
476.4424, 58.31608
476.9245, 69.78630
477.4066, 79.80206
477.8887, 80.02958
478.3708, 75.22936
478.8529, 72.34729
479.3351, 72.89334
479.8172, 75.11212
480.2993, 79.87961
480.7814, 85.30589
481.2635, 87.46290
481.7456, 83.68794
482.2278, 77.11913
482.7099, 66.57265
483.1920, 50.64396
483.6741, 43.40648
484.1562, 57.79169
484.6383, 77.62755
485.1205, 88.97345
485.6026, 82.37481
486.0847, 77.03748
486.5668, 75.97668
487.0489, 77.68694
487.5310, 74.58874
488.0132, 63.26154
488.4953, 52.79192
488.9774, 48.67118
489.4595, 53.02248
489.9416, 51.35951
490.4237, 40.78117
490.9059, 29.19821
491.3880, 30.60168
491.8701, 44.89993
492.3522, 55.50317
492.8343, 52.75819
493.3164, 43.67842
493.7986, 49.64843
494.2807, 70.23028
494.7628, 87.34724
495.2449, 81.32611
495.7270, 62.71654
496.2091, 50.13964
496.6913, 48.70866
497.1734, 50.92391
497.6555, 50.46161
498.1376, 49.08474
498.6197, 50.85534
499.1018, 62.19859
499.5840, 73.42620
500.0661, 79.34454
500.5482, 78.97097
501.0303, 76.60742
501.5124, 68.38679
501.9945, 61.02655
502.4767, 60.63860
502.9588, 80.36179
503.4409, 90.82674
503.9230, 85.44244
504.4051, 68.48769
504.8872, 57.86304
505.3694, 55.60858
505.8515, 55.77744
506.3336, 56.63455
506.8157, 58.86667
507.2978, 55.84675
507.7799, 45.86406
508.2621, 34.55888
508.7442, 28.69637
509.2263, 28.11736
509.7084, 31.42224
510.1905, 40.40705
510.6726, 51.48884
511.1548, 57.09528
511.6369, 57.63567
512.1190, 57.50832
512.6011, 59.97100
513.0832, 63.56054
513.5653, 66.65847
514.0474, 69.28809
514.5295, 70.46500
515.0117, 69.09418
515.4938, 65.92187
515.9759, 62.25114
516.4580, 55.59637
516.9401, 51.23595
517.4222, 52.26624
517.9044, 59.01184
518.3865, 64.41546
518.8686, 69.28202
519.3507, 71.40995
519.8328, 68.85971
520.3149, 56.74283
520.7971, 49.80989
521.2792, 50.22850
521.7613, 55.30960
522.2434, 59.69083
522.7255, 63.83674
523.2076, 65.32260
523.6898, 60.55371
524.1719, 51.30671
524.6540, 51.91216
525.1361, 63.31104
525.6182, 77.12267
526.1003, 87.48149
526.5825, 93.82935
527.0646, 93.59889
527.5467, 83.89991
528.0288, 71.48872
528.5109, 59.84465
528.9930, 50.85494
529.4752, 49.75102
529.9573, 70.83130
530.4394, 92.53715
530.9215, 97.97701
531.4036, 83.89280
531.8857, 69.86494
532.3679, 60.84450
532.8500, 55.57381
533.3321, 53.04439
533.8142, 59.16689
534.2963, 60.48844
534.7784, 51.18499
535.2606, 35.93783
535.7427, 31.86035
536.2248, 44.24555
536.7069, 57.68950
537.1890, 66.79153
537.6711, 71.56139
538.1533, 69.57786
538.6354, 58.78466
539.1175, 47.19617
539.5996, 45.25941
540.0817, 51.67419
540.5638, 57.05746
541.0460, 58.25010
541.5281, 58.21665
542.0102, 63.44280
542.4923, 72.35260
542.9744, 77.58796
543.4565, 71.53968
543.9387, 61.53817
544.4208, 53.77037
544.9029, 48.66713
545.3850, 47.49236
545.8671, 57.10587
546.3492, 68.42311
546.8314, 71.61314
547.3135, 52.26423
547.7956, 38.10641
548.2777, 36.94126
548.7598, 45.88862
549.2419, 52.75797
549.7241, 58.68957
550.2062, 60.93256
550.6883, 56.86468
551.1704, 44.43732
551.6525, 38.69925
552.1346, 41.42252
552.6168, 46.86012
553.0989, 47.86734
553.5810, 44.67410
554.0631, 43.19537
554.5452, 45.05399
555.0273, 49.08474
555.5095, 53.71565
555.9916, 58.81875
556.4737, 63.58760
556.9558, 70.36755
557.4379, 75.10027
557.9200, 70.93767
558.4022, 56.12634
558.8843, 44.11013
559.3664, 46.43867
559.8485, 53.48402
560.3306, 55.36703
560.8127, 41.62981
561.2949, 31.41556
561.7770, 28.73293
562.2591, 32.70392
562.7412, 39.95237
563.2233, 56.40516
563.7054, 68.03867
564.1876, 68.10571
564.6697, 54.89391
565.1518, 47.10970
565.6339, 45.49699
566.1160, 47.71937
566.5981, 53.50526
567.0803, 62.44340
567.5624, 67.04584
568.0445, 65.07590
568.5266, 59.57419
569.0087, 54.30779
569.4908, 49.48703
569.9730, 46.23084
570.4551, 46.43404
570.9372, 47.66139
571.4193, 46.47344
571.9014, 42.78233
572.3835, 41.62130
572.8657, 50.68725
573.3478, 60.70026
573.8299, 63.42891
574.3120, 49.48632
574.7941, 39.23153
575.2762, 35.39356
575.7584, 37.28057
576.2405, 44.76328
576.7226, 67.12112
577.2047, 79.22952
577.6868, 68.99869
578.1689, 38.73848
578.6511, 28.92163
579.1332, 44.11951
579.6153, 62.79573
580.0974, 66.94766
580.5795, 58.93285
581.0616, 55.85869
581.5438, 60.67411
582.0259, 67.05096
582.5080, 66.57947
582.9901, 61.51434
583.4722, 57.43197
583.9543, 56.32788
584.4365, 57.40208
584.9186, 62.50717
585.4007, 70.30729
585.8828, 73.66244
586.3649, 63.29602
586.8470, 52.32095
587.3292, 48.76485
587.8113, 57.42132
588.2934, 63.16557
588.7755, 64.97065
589.2576, 63.87254
589.7397, 60.35914
590.2219, 52.75491
590.7040, 47.67682
591.1861, 47.31153
591.6682, 49.50994
592.1503, 46.54336
592.6324, 37.92532
593.1146, 32.06747
593.5967, 36.53140
594.0788, 46.91464
594.5609, 50.61670
595.0430, 47.22073
595.5251, 42.57451
596.0073, 41.58643
596.4894, 42.28612
596.9715, 41.78652
597.4536, 37.50455
597.9357, 35.18445
598.4178, 37.99443
598.9000, 44.54197
599.3821, 52.15608
599.8642, 67.75043
600.3463, 76.36010
600.8284, 70.81077
601.3105, 51.60272
601.7927, 40.46489
602.2748, 39.86244
602.7569, 43.01616
603.2390, 46.90742
603.7211, 51.91017
604.2032, 51.95507
604.6854, 45.14368
605.1675, 38.25980
605.6496, 43.24989
606.1317, 56.89645
606.6138, 65.26231
607.0959, 60.20878
607.5781, 51.99698
608.0602, 53.64861
608.5423, 62.66710
609.0244, 70.28490
609.5065, 72.09848
609.9886, 70.80341
610.4708, 66.94685
610.9529, 59.95229
611.4350, 55.11134
611.9171, 54.99796
612.3992, 56.42738
612.8813, 57.15346
613.3635, 58.26633
613.8456, 56.06631
614.3277, 48.45863
614.8098, 39.08574
615.2919, 35.38668
615.7740, 37.74686
616.2562, 42.18677
616.7383, 49.70307
617.2204, 57.26231
617.7025, 53.10723
618.1846, 38.33578
618.6667, 27.18844
619.1489, 34.88820
619.6310, 49.61115
620.1131, 55.87019
620.5952, 50.29635
621.0773, 45.13033
621.5594, 48.48856
622.0416, 55.16364
622.5237, 59.58296
623.0058, 61.97322
623.4879, 60.24237
623.9700, 51.26030
624.4521, 38.26841
624.9343, 29.20823
625.4164, 24.22779
625.8985, 23.26845
626.3806, 28.44023
626.8627, 38.52609
627.3448, 39.52193
627.8270, 30.13696
628.3091, 22.31166
628.7912, 30.69936
629.2733, 47.96148
629.7554, 53.43760
630.2375, 42.41165
630.7197, 29.33024
631.2018, 25.96685
631.6839, 29.18414
632.1660, 34.25754
632.6481, 44.14402
633.1302, 50.67742
633.6124, 48.56548
634.0945, 40.24218
634.5766, 35.05649
635.0587, 37.98337
635.5408, 39.66979
636.0229, 36.66425
636.5051, 28.55400
636.9872, 21.77977
637.4693, 15.09193
637.9514, 12.82411
638.4335, 21.94390
638.9156, 40.72998
639.3978, 52.16038
639.8799, 53.37429
640.3620, 50.41570
640.8441, 49.18906
641.3262, 49.28287
641.8083, 49.73652
642.2905, 49.08921
642.7726, 49.79660
643.2547, 55.90279
643.7368, 65.11728
644.2189, 69.88671
644.7010, 65.04087
645.1832, 57.75315
645.6653, 49.96156
646.1474, 41.33789
646.6295, 35.49771
647.1116, 32.42777
647.5938, 32.07963
648.0759, 35.46074
648.5580, 43.04667
649.0401, 47.94456
649.5222, 49.32006
650.0043, 49.07201
650.4865, 48.94730
650.9686, 49.25053
651.4507, 51.41653
651.9328, 58.74805
652.4149, 64.70698
652.8970, 61.14513
653.3792, 50.74850
653.8613, 41.73503
654.3434, 37.22219
654.8255, 35.13554
655.3076, 34.38493
655.7897, 34.83007
656.2718, 38.00764
656.7539, 46.72697
657.2360, 55.10166
657.7181, 59.46341
658.2003, 58.94093
658.6824, 58.29517
659.1645, 57.68365
659.6466, 56.85019
660.1287, 55.47659
660.6108, 53.58896
661.0930, 51.32782
661.5751, 48.67900
662.0572, 45.75880
662.5393, 41.83580
663.0214, 37.66805
663.5035, 35.31061
663.9857, 38.18953
664.4678, 41.00579
664.9499, 39.49599
665.4320, 33.84401
665.9141, 32.25981
666.3962, 41.16774
666.8784, 49.94815
667.3605, 53.91051
667.8426, 52.10975
668.3247, 49.11866
668.8068, 44.35329
669.2889, 39.65221
669.7711, 37.29402
670.2532, 37.04226
670.7353, 36.27258
671.2174, 34.10645
671.6995, 32.30443
672.1816, 34.11570
672.6638, 38.03241
673.1459, 40.43163
673.6280, 39.28648
674.1101, 36.63549
674.5922, 31.35255
675.0743, 24.72685
675.5565, 23.20275
676.0386, 34.06388
676.5207, 44.61053
677.0028, 49.76482
677.4849, 48.75939
677.9670, 50.42156
678.4492, 56.44915
678.9313, 61.48222
679.4134, 60.92892
679.8955, 55.14101
680.3776, 47.35984
680.8597, 37.24274
681.3419, 27.89990
681.8240, 21.76328
682.3061, 19.08013
682.7882, 20.60470
683.2703, 30.50047
683.7524, 39.32006
684.2346, 38.94733
684.7167, 33.58794
685.1988, 32.96154
685.6809, 44.67101
686.1630, 55.88709
686.6451, 65.08778
687.1273, 71.63644
687.6094, 67.90315
688.0915, 48.97265
688.5736, 32.49760
689.0557, 29.56329
689.5378, 38.93200
690.0200, 47.35066
690.5021, 54.83113
690.9842, 59.61448
691.4663, 59.14294
691.9484, 55.16794
692.4305, 50.25354
692.9127, 44.49938
693.3948, 38.98923
693.8769, 33.89167
694.3590, 29.52633
694.8411, 26.37491
695.3232, 20.62593
695.8054, 21.27233
696.2875, 33.57737
696.7696, 51.92864
697.2517, 60.85528
697.7338, 57.68855
698.2159, 54.78698
698.6981, 58.23733
699.1802, 64.76003
699.6623, 60.44097
700.1444, 45.95953
700.6265, 33.17097
701.1086, 31.90521
701.5908, 36.01367
702.0729, 37.77423
702.5550, 36.39515
703.0371, 36.17720
703.5192, 43.17149
704.0013, 49.69488
704.4835, 49.39973
704.9656, 34.27601
705.4477, 24.88210
705.9298, 22.71397
706.4119, 25.11811
706.8940, 29.58083
707.3762, 36.56728
707.8583, 43.14191
708.3404, 49.97527
708.8225, 54.24672
709.3046, 46.90808
709.7867, 31.41611
710.2689, 21.21943
710.7510, 26.61924
711.2331, 36.82641
711.7152, 43.34245
712.1973, 46.71753
712.6794, 49.27183
713.1616, 55.10690
713.6437, 57.36652
714.1258, 49.96424
714.6079, 31.87466
715.0900, 23.01173
715.5721, 26.88435
716.0543, 33.86457
716.5364, 37.76419
717.0185, 38.57739
717.5006, 40.47581
717.9827, 43.91800
718.4648, 46.45956
718.9470, 43.66192
719.4291, 38.38542
719.9112, 36.85942
720.3933, 42.71513
720.8754, 47.24191
721.3575, 43.02299
721.8397, 34.66774
722.3218, 28.91819
722.8039, 26.18543
723.2860, 27.74886
723.7681, 37.23812
724.2502, 50.26247
724.7324, 53.09383
725.2145, 42.80408
725.6966, 34.42012
726.1787, 33.69672
726.6608, 38.59197
727.1429, 45.21820
727.6251, 53.04175
728.1072, 56.35487
728.5893, 45.46395
729.0714, 32.10960
729.5535, 29.10078
730.0356, 37.31643
730.5178, 44.45877
730.9999, 47.68528
731.4820, 46.90158
731.9641, 40.53212
732.4462, 23.56751
732.9283, 16.71476
733.4105, 23.65059
733.8926, 35.07720
734.3747, 42.53766
734.8568, 46.07524
735.3389, 47.04637
735.8210, 45.19452
736.3032, 42.32233
736.7853, 39.28683
737.2674, 37.08430
737.7495, 38.08120
738.2316, 47.45498
738.7137, 54.58484
739.1959, 51.71458
739.6780, 42.68857
740.1601, 36.28017
740.6422, 34.57455
741.1243, 35.05998
741.6064, 37.64025
742.0886, 42.05817
742.5707, 48.33529
743.0528, 57.37980
743.5349, 62.61293
744.0170, 57.26190
744.4991, 46.33709
744.9813, 44.87740
745.4634, 52.02012
745.9455, 59.23087
746.4276, 62.90144
746.9097, 62.60222
747.3918, 55.99099
747.8740, 41.52526
748.3561, 31.41726
748.8382, 32.70515
749.3203, 35.92685
749.8024, 35.19913
750.2845, 29.13788
750.7667, 22.87731
751.2488, 15.46640
751.7309, 9.947512
752.2130, 10.66445
752.6951, 16.67532
753.1772, 23.25874
753.6594, 29.60927
754.1415, 36.29540
754.6236, 45.50676
755.1057, 55.09819
755.5878, 61.87739
756.0699, 65.48964
756.5521, 65.09590
757.0342, 58.07745
757.5163, 47.05442
757.9984, 37.85241
758.4805, 29.42609
758.9626, 25.27538
759.4448, 27.76016
759.9269, 34.16238
760.4090, 34.84580
760.8911, 30.29548
761.3732, 28.13269
761.8553, 35.73380
762.3375, 46.05499
762.8196, 49.82874
763.3017, 47.80186
763.7838, 45.38469
764.2659, 45.20318
764.7480, 45.24562
765.2302, 44.34377
765.7123, 42.27331
766.1944, 40.61596
766.6765, 38.96502
767.1586, 38.38904
767.6407, 40.33539
768.1229, 44.75812
768.6050, 46.90367
769.0871, 46.69517
769.5692, 44.25324
770.0513, 36.47668
770.5334, 27.57933
771.0156, 25.23105
771.4977, 31.93915
771.9798, 38.96937
772.4619, 43.52207
772.9440, 45.35874
773.4261, 44.05369
773.9083, 35.07227
774.3904, 30.50905
774.8725, 33.21851
775.3546, 37.61143
775.8367, 34.79278
776.3188, 24.69995
776.8010, 17.40943
777.2831, 14.80204
777.7652, 16.36264
778.2473, 25.21500
778.7294, 37.52045
779.2115, 44.74706
779.6937, 39.11028
780.1758, 31.91132
780.6579, 26.13866
781.1400, 22.52024
781.6221, 23.73171
782.1042, 34.39708
782.5864, 42.22879
783.0685, 43.24558
783.5506, 39.69474
784.0327, 40.41636
784.5148, 45.55628
784.9969, 50.22023
785.4791, 53.22081
785.9612, 53.60932
786.4433, 46.81740
786.9254, 34.74316
787.4075, 27.36661
787.8896, 36.41277
788.3718, 46.20187
788.8539, 47.43622
789.3360, 38.93686
789.8181, 30.31903
790.3002, 17.57457
790.7823, 11.71406
791.2645, 22.96244
791.7466, 50.85575
792.2287, 61.26405
792.7108, 53.15920
793.1929, 42.70432
793.6750, 45.01530
794.1572, 53.01541
794.6393, 56.23999
795.1214, 53.23314
795.6035, 48.54462
796.0856, 42.40594
796.5677, 36.78551
797.0499, 33.39501
797.5320, 32.74210
798.0141, 33.26956
798.4962, 35.38902
798.9783, 38.02576
799.4604, 40.68981
799.9426, 43.22965
800.4247, 42.83989
800.9068, 38.38413
801.3889, 34.72810
801.8710, 39.64849
802.3531, 47.95161
802.8353, 51.66046
803.3174, 46.66975
803.7995, 40.51416
804.2816, 34.35284
804.7637, 28.93043
805.2458, 24.84554
805.7280, 21.10441
806.2101, 22.00890
806.6922, 30.23028
807.1743, 40.05206
807.6564, 39.28653
808.1385, 30.04535
808.6207, 25.35488
809.1028, 31.85648
809.5849, 40.24894
810.0670, 41.65015
810.5491, 38.36287
811.0313, 34.87604
811.5134, 31.56093
811.9955, 29.51424
812.4776, 30.22184
812.9597, 32.14489
813.4418, 30.30960
813.9240, 22.46216
814.4061, 20.68727
814.8882, 31.34327
815.3703, 47.46857
815.8524, 53.37503
816.3345, 50.50241
816.8167, 45.51225
817.2988, 40.27926
817.7809, 35.43250
818.2630, 31.23707
818.7451, 27.74157
819.2272, 25.22233
819.7094, 23.63572
820.1915, 23.23414
820.6736, 24.73955
821.1556, 27.58858
821.6378, 27.96327
822.1199, 25.62781
822.6020, 23.55174
823.0841, 23.49990
823.5662, 24.69921
824.0483, 26.44677
824.5305, 28.42793
825.0126, 28.92813
825.4947, 24.41796
825.9768, 20.44818
826.4589, 20.34699
826.9410, 24.47932
827.4232, 29.00619
827.9053, 35.38910
828.3874, 39.33351
828.8695, 37.72139
829.3516, 31.56748
829.8337, 28.43167
830.3159, 28.31635
830.7980, 29.92611
831.2801, 34.10791
831.7622, 38.44522
832.2443, 40.05827
832.7264, 38.77993
833.2086, 36.94625
833.6907, 33.74915
834.1728, 31.70624
834.6549, 32.90586
835.1370, 38.10851
835.6191, 38.11088
836.1013, 31.66057
836.5834, 24.79443
837.0655, 22.41594
837.5476, 23.04398
838.0297, 22.38147
838.5118, 20.21525
838.9940, 17.35843
839.4761, 9.061617
839.9582, 3.982234
840.4403, 12.08817
840.9224, 39.90701
841.4045, 54.49512
841.8867, 47.74418
842.3688, 35.94772
842.8509, 28.81014
843.3330, 26.42189
843.8151, 25.54363
844.2972, 26.21175
844.7794, 27.38892
845.2615, 28.23726
845.7436, 28.99258
846.2257, 29.77981
846.7078, 30.51835
847.1899, 32.22537
847.6721, 38.43026
848.1542, 43.35096
848.6363, 42.49860
849.1184, 33.93838
849.6005, 26.89642
850.0826, 20.83007
850.5648, 17.76527
851.0469, 22.09151
851.5290, 31.01023
852.0111, 34.94176
852.4932, 32.79677
852.9753, 28.60623
853.4575, 22.66928
853.9396, 17.81647
854.4217, 16.82541
854.9038, 21.20491
855.3859, 26.51423
855.8680, 33.69630
856.3502, 40.18267
856.8323, 43.72557
857.3144, 44.29732
857.7965, 44.53963
858.2786, 44.51826
858.7607, 44.53347
859.2429, 44.13680
859.7250, 44.26928
860.2071, 47.28745
860.6892, 54.66831
861.1713, 58.45104
861.6534, 52.79408
862.1356, 44.37828
862.6177, 38.09409
863.0998, 33.93779
863.5819, 31.71122
864.0640, 31.56565
864.5461, 32.77829
865.0283, 35.57586
865.5104, 39.12660
865.9925, 40.98570
866.4746, 40.79379
866.9567, 40.26590
867.4388, 43.62955
867.9210, 45.13464
868.4031, 37.89474
868.8852, 13.07434
869.3673, 5.092778
869.8494, 22.60652
870.3315, 43.07976
870.8137, 47.29023
871.2958, 36.94211
871.7779, 29.87761
872.2600, 26.98500
872.7421, 27.39383
873.2242, 35.17413
873.7064, 43.07736
874.1885, 41.39291
874.6706, 25.99031
875.1527, 17.07145
875.6348, 24.54738
876.1169, 35.38576
876.5991, 43.30204
877.0812, 48.33645
877.5633, 49.53686
878.0454, 46.58246
878.5275, 41.99706
879.0096, 34.86447
879.4918, 28.69625
879.9739, 32.35553
880.4560, 46.91964
880.9381, 55.63256
881.4202, 42.72884
881.9023, 27.44410
882.3845, 23.15368
882.8666, 31.85820
883.3487, 34.24526
883.8308, 28.21351
884.3129, 22.31589
884.7950, 23.72801
885.2772, 29.80095
885.7593, 31.91362
886.2414, 30.08678
886.7235, 29.00990
887.2056, 32.84390
887.6877, 37.65201
888.1699, 41.25206
888.6520, 43.40862
889.1341, 42.94957
889.6162, 38.42894
890.0983, 34.08475
890.5804, 32.64788
891.0626, 33.30424
891.5447, 29.29375
892.0268, 21.06245
892.5089, 16.31095
892.9910, 23.41839
893.4731, 33.70906
893.9553, 40.10003
894.4374, 42.44234
894.9195, 43.78204
895.4016, 46.22176
895.8837, 45.60521
896.3658, 38.60078
896.8480, 27.30324
897.3301, 24.95208
897.8122, 31.57702
898.2943, 37.57637
898.7764, 36.72287
899.2585, 32.96735
899.7407, 31.82653
900.2228, 32.15791
900.7049, 29.67316
901.1870, 16.34368
901.6691, 7.478689
902.1512, 8.659758
902.6334, 17.45081
903.1155, 26.72237
903.5976, 37.18235
904.0797, 41.18861
904.5618, 32.61777
905.0439, 20.36995
905.5261, 19.76498
906.0082, 26.96327
906.4903, 31.82625
906.9724, 25.23062
907.4545, 21.10092
907.9366, 28.87848
908.4188, 41.21154
908.9009, 42.05244
909.3830, 27.09176
909.8651, 18.69017
910.3472, 23.28693
910.8293, 32.99491
911.3115, 34.54685
911.7936, 30.74615
912.2757, 28.36423
912.7578, 30.78823
913.2399, 33.22805
913.7220, 30.78149
914.2042, 28.16015
914.6863, 33.02212
915.1684, 51.66534
915.6505, 60.35420
916.1326, 55.75320
916.6147, 44.17209
917.0969, 29.37686
917.5790, 14.40690
918.0611, 9.557775
918.5432, 18.94258
919.0253, 29.77399
919.5074, 35.43592
919.9896, 37.73402
920.4717, 37.95187
920.9538, 34.14063
921.4359, 34.55954
921.9180, 41.40031
922.4001, 47.76406
922.8823, 45.39365
923.3644, 37.02006
923.8465, 33.61916
924.3286, 36.13844
924.8107, 38.50592
925.2928, 36.61959
925.7750, 32.60998
926.2571, 27.14487
926.7392, 19.49802
927.2213, 16.60057
927.7034, 20.16982
928.1855, 25.08146
928.6677, 28.32007
929.1498, 30.37370
929.6319, 34.28267
930.1140, 39.73652
930.5961, 44.09613
931.0782, 44.82063
931.5604, 44.45920
932.0425, 44.19024
932.5246, 44.24927
933.0067, 46.63724
933.4888, 56.44417
933.9709, 58.59142
934.4531, 44.20121
934.9352, 21.38726
935.4173, 17.66718
935.8994, 30.09274
936.3815, 40.58920
936.8636, 36.68578
937.3458, 31.32684
937.8279, 33.87074
938.3100, 41.95304
938.7921, 50.46182
939.2742, 63.17344
939.7563, 68.04595
940.2385, 61.54018
940.7206, 48.78543
941.2027, 37.47035
941.6848, 27.87181
942.1669, 21.95834
942.6490, 21.40985
943.1312, 21.45341
943.6133, 14.97173
944.0954, 8.323153
944.5775, 9.710617
945.0596, 31.93236
945.5417, 41.43577
946.0239, 32.20150
946.5060, 20.31094
946.9881, 26.19933
947.4702, 45.29897
947.9523, 51.90120
948.4344, 42.85453
948.9166, 31.32279
949.3987, 22.43003
949.8808, 18.69888
950.3629, 24.93726
950.8450, 45.28662
951.3271, 53.80616
951.8093, 44.50538
952.2914, 34.72125
952.7735, 36.05273
953.2556, 45.43242
953.7377, 48.86856
954.2198, 46.74512
954.7020, 42.47827
955.1841, 38.00890
955.6662, 32.25713
956.1483, 20.87300
956.6304, 6.243562
957.1125, 4.624339
957.5947, 25.32974
958.0768, 37.12916
958.5589, 27.01250
959.0410, 6.486506
959.5231, 4.985963
960.0052, 17.80391
960.4874, 27.80222
960.9695, 25.13441
961.4516, 21.73533
961.9337, 26.19923
962.4158, 33.61256
962.8979, 34.87144
963.3801, 26.00436
963.8622, 20.68648
964.3443, 20.38107
964.8264, 23.55712
965.3085, 30.17342
965.7906, 38.46977
966.2728, 44.25867
966.7549, 46.69610
967.2370, 46.68501
967.7191, 43.57906
968.2012, 38.98095
968.6833, 33.33183
969.1655, 25.27111
969.6476, 24.87623
970.1297, 34.14598
970.6118, 42.62098
971.0939, 41.42524
971.5760, 34.36647
972.0582, 27.85404
972.5403, 22.26773
973.0224, 18.22717
973.5045, 16.60483
973.9866, 15.97531
974.4688, 15.59108
974.9509, 15.59644
975.4330, 16.57715
975.9151, 18.39043
976.3972, 22.89591
976.8793, 33.51258
977.3615, 43.56294
977.8436, 40.92890
978.3257, 30.33168
978.8078, 22.37772
979.2899, 20.42510
979.7720, 22.21253
980.2542, 30.37801
980.7363, 39.57709
981.2184, 41.54063
981.7005, 36.05395
982.1826, 33.38092
982.6647, 35.31316
983.1469, 38.22110
983.6290, 39.33064
984.1111, 38.91426
984.5932, 36.91694
985.0753, 32.64647
985.5574, 29.44166
986.0395, 26.71838
986.5216, 26.43679
987.0037, 31.28655
987.4858, 40.41938
987.9680, 44.91014
988.4501, 44.85684
988.9322, 42.41355
989.4143, 35.62370
989.8964, 29.88749
990.3785, 29.74096
990.8607, 34.58036
991.3428, 40.26133
991.8249, 50.69305
992.3070, 51.80492
992.7891, 35.87251
993.2712, 13.56178
993.7534, 9.746116
994.2355, 19.75775
994.7176, 28.62379
995.1997, 30.11562
995.6818, 31.15374
996.1639, 36.50677
996.6461, 42.79655
997.1282, 45.66838
997.6103, 44.02872
998.0924, 42.83212
998.5745, 42.54197
999.0566, 41.63375
999.5388, 37.41018
1000.021, 31.94151
1000.503, 29.13863
1000.985, 29.51738
1001.467, 29.88811
1001.949, 27.97128
1002.431, 26.83179
1002.914, 28.04552
1003.396, 31.37220
1003.878, 35.04860
1004.360, 39.16430
1004.842, 41.02432
1005.324, 37.30339
1005.806, 32.57232
1006.288, 33.09241
1006.771, 36.43662
1007.253, 36.65952
1007.735, 25.48187
1008.217, 21.02399
1008.699, 28.55306
1009.181, 39.43819
1009.663, 39.05443
1010.145, 29.62751
1010.627, 22.90690
1011.110, 20.93375
1011.592, 22.38365
1012.074, 30.89000
1012.556, 39.36150
1013.038, 40.25332
1013.520, 30.99020
1014.002, 25.39530
1014.484, 24.03530
1014.966, 24.52447
1015.449, 26.70205
1015.931, 29.14153
1016.413, 25.79139
1016.895, 18.62710
1017.377, 17.85966
1017.859, 41.33391
1018.341, 57.35030
1018.823, 48.51736
1019.306, 25.75568
1019.788, 14.79181
1020.270, 15.88725
1020.752, 22.85316
1021.234, 36.87629
1021.716, 48.48614
1022.198, 42.59349
1022.680, 29.19954
1023.162, 22.36974
1023.645, 28.17388
1024.127, 33.70350
1024.609, 37.79205
1025.091, 41.68200
1025.573, 48.76928
1026.055, 57.23923
1026.537, 51.46488
1027.019, 32.46457
1027.502, 18.63246
1027.984, 27.00435
1028.466, 39.63523
1028.948, 46.03834
1029.430, 46.51185
1029.912, 45.66246
1030.394, 43.42430
1030.876, 39.70277
1031.359, 33.52174
1031.841, 27.52726
1032.323, 27.12823
1032.805, 29.91311
1033.287, 30.72392
1033.769, 24.98795
1034.251, 22.99247
1034.733, 28.76233
1035.215, 37.59104
1035.698, 48.39581
1036.180, 61.24542
1036.662, 59.39366
1037.144, 41.92937
1037.626, 26.12471
1038.108, 29.33093
1038.590, 36.90124
1039.072, 35.38425
1039.554, 25.04614
1040.037, 20.01725
1040.519, 21.77499
1041.001, 27.25527
1041.483, 37.25856
1041.965, 48.15718
1042.447, 53.56613
1042.929, 53.99746
1043.411, 50.76833
1043.894, 42.77956
1044.376, 33.95301
1044.858, 21.51042
1045.340, 12.07471
1045.822, 13.62106
1046.304, 27.85222
1046.786, 34.06250
1047.268, 30.95500
1047.750, 28.36231
1048.233, 38.50763
1048.715, 50.44514
1049.197, 51.14325
1049.679, 40.88765
1050.161, 33.64715
1050.643, 31.52889
1051.125, 31.42064
1051.607, 32.88261
1052.089, 35.35514
1052.572, 39.16815
1053.054, 42.98209
1053.536, 42.25565
1054.018, 33.38487
1054.500, 24.01956
1054.982, 15.25546
1055.464, 9.515076
1055.946, 9.154632
1056.429, 14.90285
1056.911, 23.37862
1057.393, 35.18070
1057.875, 42.97137
1058.357, 36.45436
1058.839, 25.77944
1059.321, 22.36489
1059.803, 25.95438
1060.286, 28.80973
1060.768, 28.81194
1061.250, 29.91363
1061.732, 34.32497
1062.214, 38.82136
1062.696, 33.48854
1063.178, 22.18474
1063.660, 18.04479
1064.142, 27.11411
1064.625, 37.65118
1065.107, 46.53025
1065.589, 52.08281
1066.071, 52.36691
1066.553, 46.25694
1067.035, 43.34580
1067.517, 43.82456
1067.999, 44.54712
1068.481, 44.01109
1068.964, 41.95395
1069.446, 36.11338
1069.928, 28.01459
1070.410, 24.76396
1070.892, 29.15067
1071.374, 35.63105
1071.856, 44.95446
1072.338, 53.00343
1072.820, 49.80717
1073.303, 39.67178
1073.785, 35.07045
1074.267, 40.24610
1074.749, 44.49870
1075.231, 27.12544
1075.713, 43.28224
1076.195, 52.14357
1076.677, 54.10293
1077.160, 28.38955
1077.642, 38.48486
1078.124, 34.27597
1078.606, 29.51209
1079.088, 44.74086
1079.570, 23.22219
1080.052, 38.20005
1080.534, 38.65503
1081.016, 45.80465
1081.499, 38.56124
1081.981, 35.80664
1082.463, 47.51489
1082.945, 51.26592
1083.427, 42.49355
1083.909, 50.26351
1084.391, 28.56900
1084.873, 32.79157
1085.355, 48.21481
1085.838, 40.33206
1086.320, 48.52983
1086.802, 50.64850
1087.284, 25.02377
1087.766, 47.73742
1088.248, 49.59333
1088.730, 30.03189
1089.212, 51.18887
1089.695, 34.65095
1090.177, 31.61194
1090.659, 38.74033
1091.141, 35.33647
1091.623, 48.62239
1092.105, 45.89423
1092.587, 41.76532
1093.069, 38.93327
1093.552, 35.10890
1094.034, 36.97418
1094.516, 43.91022
1094.998, 44.53989
1095.480, 28.18631
1095.962, 19.08744
1096.444, 25.59209
1096.926, 39.79537
1097.408, 45.97778
1097.891, 45.38343
1098.373, 40.92803
1098.855, 31.52324
1099.337, 24.33561
1099.819, 24.59051
1100.301, 26.91952
1100.783, 26.72315
1101.265, 23.86082
1101.747, 28.18086
1102.230, 39.52118
1102.712, 44.68304
1103.194, 25.47306
1103.676, 5.487912
1104.158, 6.205969
1104.640, 21.19073
1105.122, 33.01434
1105.604, 40.95333
1106.087, 44.14677
1106.569, 41.46207
1107.051, 37.40959
1107.533, 37.04993
1108.015, 39.05085
1108.497, 42.70161
1108.979, 48.17324
1109.461, 48.50602
1109.943, 36.88544
1110.426, 27.57373
1110.908, 26.37894
1111.390, 30.52825
1111.872, 31.90295
1112.354, 31.27234
1112.836, 31.74477
1113.318, 37.34677
1113.800, 38.80993
1114.282, 26.91945
1114.765, 12.67282
1115.247, 5.793103
1115.729, 6.561409
1116.211, 13.16936
1116.693, 25.66623
1117.175, 33.69798
1117.657, 20.28004
1118.139, 7.999647
1118.622, 21.44011
1119.104, 52.00414
1119.586, 64.80669
1120.068, 54.64586
1120.550, 42.42962
1121.032, 30.49852
1121.514, 21.71425
1121.996, 21.46265
1122.479, 26.03685
1122.961, 30.88004
1123.443, 35.67654
1123.925, 37.52100
1124.407, 34.57920
1124.889, 31.79125
1125.371, 31.38721
1125.853, 32.52382
1126.335, 32.18098
1126.818, 31.34103
1127.300, 33.17705
1127.782, 43.04712
1128.264, 49.14779
1128.746, 45.30084
1129.228, 38.66309
1129.710, 34.83356
1130.192, 33.75110
1130.674, 34.16879
1131.157, 35.97092
1131.639, 37.62377
1132.121, 38.87842
1132.603, 38.91459
1133.085, 34.33061
1133.567, 28.63802
1134.049, 33.05413
1134.531, 49.66329
1135.014, 55.94371
1135.496, 46.11913
1135.978, 34.32881
1136.460, 37.48037
1136.942, 45.00703
1137.424, 45.28133
1137.906, 35.75363
1138.388, 29.48563
1138.870, 27.11134
1139.353, 26.08940
1139.835, 24.96372
1140.317, 25.08704
1140.799, 30.89301
1141.281, 39.17091
1141.763, 43.78378
1142.245, 41.08348
1142.727, 37.25455
1143.209, 30.99736
1143.692, 27.06545
1144.174, 31.95635
1144.656, 41.92687
1145.138, 44.18135
1145.620, 39.55169
1146.102, 34.52851
1146.584, 30.49570
1147.066, 28.72307
1147.549, 30.79494
1148.031, 33.94067
1148.513, 33.06876
1148.995, 28.86479
1149.477, 25.12368
1149.959, 22.29268
1150.441, 21.69890
1150.923, 27.05334
1151.406, 32.28136
1151.888, 32.97552
1152.370, 30.09509
1152.852, 28.88840
1153.334, 29.32774
1153.816, 28.95781
1154.298, 27.04737
1154.780, 23.82167
1155.262, 15.13935
1155.745, 7.698810
1156.227, 11.38695
1156.709, 29.64020
1157.191, 38.80151
1157.673, 38.20597
1158.155, 33.49369
1158.637, 24.60733
1159.119, 16.42669
1159.601, 13.99936
1160.084, 16.67603
1160.566, 23.67807
1161.048, 41.11907
1161.530, 47.63196
1162.012, 39.66231
1162.494, 27.26839
1162.976, 18.97785
1163.458, 14.53203
1163.941, 14.74792
1164.423, 19.23088
1164.905, 23.75176
1165.387, 28.23192
1165.869, 31.19731
1166.351, 32.52837
1166.833, 31.88596
1167.315, 26.68738
1167.797, 19.47894
1168.280, 16.23239
1168.762, 18.61980
1169.244, 21.99010
1169.726, 27.33012
1170.208, 30.16014
1170.690, 27.40417
1171.172, 21.12421
1171.654, 19.06528
1172.136, 20.13769
1172.619, 19.67204
1173.101, 11.80464
1173.583, 9.256542
1174.065, 25.67904
1174.547, 42.20540
1175.029, 41.48097
1175.511, 24.72819
1175.993, 22.99448
1176.476, 34.86753
1176.958, 44.30268
1177.440, 38.16705
1177.922, 30.70593
1178.404, 30.04322
1178.886, 32.04536
1179.368, 29.38022
1179.850, 21.84625
1180.333, 20.93345
1180.815, 28.16664
1181.297, 34.50957
1181.779, 31.30642
1182.261, 26.09765
1182.743, 24.23476
1183.225, 25.13281
1183.707, 25.21676
1184.189, 24.17415
1184.672, 27.22264
1185.154, 36.90942
1185.636, 45.51347
1186.118, 44.62074
1186.600, 39.58755
1187.082, 35.25940
1187.564, 32.03937
1188.046, 30.67558
1188.528, 31.70925
1189.011, 30.30780
1189.493, 22.88284
1189.975, 14.60379
1190.457, 11.73920
1190.939, 11.96432
1191.421, 11.71971
1191.903, 9.392297
1192.385, 10.21646
1192.868, 14.53296
1193.350, 20.27983
1193.832, 28.38873
1194.314, 35.44275
1194.796, 35.74084
1195.278, 31.30303
1195.760, 27.35225
1196.242, 24.81081
1196.724, 22.23479
1197.207, 18.96148
1197.689, 17.60840
1198.171, 22.15476
1198.653, 29.51303
1199.135, 36.94783
1199.617, 43.51337
1200.099, 44.13022
1200.581, 33.96336
1201.063, 26.59266
1201.546, 24.93369
1202.028, 25.57876
1202.510, 23.43464
1202.992, 20.38403
1203.474, 20.80898
1203.956, 25.70107
1204.438, 24.54724
1204.920, 8.736843
1205.403, 1.610963
1205.885, 14.60420
1206.367, 35.12604
1206.849, 36.66830
1207.331, 26.82837
1207.813, 20.53853
1208.295, 22.27878
1208.777, 23.93186
1209.260, 23.79085
1209.742, 24.35093
1210.224, 28.31981
1210.706, 32.95508
1211.188, 29.41427
1211.670, 20.97336
1212.152, 16.30383
1212.634, 22.39272
1213.116, 25.37933
1213.599, 21.80868
1214.081, 18.22164
1214.563, 21.73034
1215.045, 23.46873
1215.527, 30.14023
1216.009, 33.88035
1216.491, 34.84662
1216.973, 24.73105
1217.455, 28.92538
1217.938, 27.38490
1218.420, 25.60931
1218.902, 31.81770
1219.384, 23.31395
1219.866, 29.39573
1220.348, 29.65522
1220.830, 32.57944
1221.312, 29.73347
1221.795, 28.66967
1222.277, 33.37796
1222.759, 34.89022
1223.241, 31.38002
1223.723, 34.47361
1224.205, 25.76830
1224.687, 27.41669
1225.169, 33.53224
1225.651, 30.31215
1226.134, 33.51119
1226.616, 25.36819
1227.098, 23.14431
1227.580, 28.35453
1228.062, 37.39122
1228.544, 39.83429
1229.026, 32.02245
1229.508, 24.19854
1229.990, 16.57298
1230.473, 13.86279
1230.955, 20.59011
1231.437, 32.03691
1231.919, 33.57736
1232.401, 28.62502
1232.883, 26.97254
1233.365, 34.41274
1233.847, 39.24546
1234.329, 40.80445
1234.812, 36.73423
1235.294, 20.22538
1235.776, -1.301003
1236.258, -1.425998
1236.740, 14.12783
1237.222, 27.01724
1237.704, 31.01096
1238.186, 29.62779
1238.669, 20.68793
1239.151, 11.98077
1239.633, 11.91336
1240.115, 17.20244
1240.597, 18.34066
1241.079, 16.37741
1241.561, 16.91018
1242.043, 27.47975
1242.526, 32.04221
1243.008, 25.51923
1243.490, 18.19106
1243.972, 25.59885
1244.454, 39.70753
1244.936, 39.98012
1245.418, 27.49775
1245.900, 20.43571
1246.382, 31.49512
1246.865, 38.01207
1247.347, 35.53322
1247.829, 28.97680
1248.311, 23.22712
1248.793, 18.96729
1249.275, 16.89823
1249.757, 17.14352
1250.239, 22.57556
1250.721, 39.00103
1251.204, 48.64622
1251.686, 45.55039
1252.168, 37.17425
1252.650, 34.39895
1253.132, 34.66693
1253.614, 34.15973
1254.096, 32.28307
1254.578, 29.18764
1255.061, 23.50817
1255.543, 21.03999
1256.025, 25.25869
1256.507, 30.91569
1256.989, 27.82859
1257.471, 21.77219
1257.953, 22.54181
1258.435, 35.04434
1258.917, 38.16587
1259.400, 29.36925
1259.882, 20.44479
1260.364, 15.78439
1260.846, 15.24691
1261.328, 21.83632
1261.810, 30.97217
1262.292, 35.40992
1262.774, 32.92462
1263.256, 31.61462
1263.739, 31.84796
1264.221, 30.69632
1264.703, 24.92773
1265.185, 18.71898
1265.667, 16.97355
1266.149, 17.52175
1266.631, 16.53195
1267.113, 12.73109
1267.596, 12.44831
1268.078, 15.97006
1268.560, 18.87291
1269.042, 15.80132
1269.524, 13.27913
1270.006, 17.12272
1270.488, 24.86375
1270.970, 32.57085
1271.453, 40.89219
1271.935, 42.41595
1272.417, 36.94168
1272.899, 30.43053
1273.381, 23.26296
1273.863, 20.43085
1274.345, 30.69658
1274.827, 44.61706
1275.309, 46.32215
1275.792, 36.32649
1276.274, 27.24056
1276.756, 20.08562
1277.238, 17.23486
1277.720, 25.42390
1278.202, 32.04607
1278.684, 29.17761
1279.166, 23.09023
##END=



