##NAMES=Vandenbrandeite
##RRUFFID=R080114
##IDEAL CHEMISTRY=Cu^2+^U^6+^O_2_(OH)_4_
##LOCALITY=Shinkolobwe Mine, Shaba, Democratic Republic of Congo
##OWNER=RRUFF
##SOURCE=William W. Pinch
##DESCRIPTION=Dark blackish green crystals
##STATUS=The identification of this mineral has been confirmed by single-crystal X-ray diffraction.
##URL=rruff.info/R080114
92.52344, 16.28766
93.00555, 16.12619
93.48767, 16.17740
93.96979, 16.94503
94.45190, 17.48541
94.93402, 17.56869
95.41614, 17.25146
95.89825, 16.84599
96.38037, 16.59358
96.86249, 16.44598
97.34460, 16.27284
97.82672, 16.15006
98.30884, 15.95698
98.79095, 15.61843
99.27307, 15.17728
99.75519, 14.75922
100.2373, 14.49199
100.7194, 14.35984
101.2015, 14.20522
101.6837, 13.94997
102.1658, 13.72290
102.6479, 13.63368
103.1300, 13.68949
103.6121, 13.78476
104.0942, 13.85888
104.5764, 13.91638
105.0585, 13.95904
105.5406, 13.93825
106.0227, 13.89765
106.5048, 13.99865
106.9869, 14.39694
107.4691, 14.70517
107.9512, 14.68784
108.4333, 14.43483
108.9154, 14.17464
109.3975, 14.13338
109.8796, 14.36940
110.3618, 14.43645
110.8439, 14.13671
111.3260, 13.83277
111.8081, 13.68221
112.2902, 13.70355
112.7723, 13.81803
113.2544, 13.92849
113.7366, 14.11067
114.2187, 14.12296
114.7008, 13.93849
115.1829, 13.61690
115.6650, 13.17228
116.1471, 12.60631
116.6293, 11.99456
117.1114, 11.52322
117.5935, 11.24125
118.0756, 10.98068
118.5577, 10.67579
119.0398, 10.36075
119.5220, 10.11569
120.0041, 9.984897
120.4862, 9.950163
120.9683, 9.946466
121.4504, 9.983453
121.9325, 10.03371
122.4147, 10.08808
122.8968, 10.14938
123.3789, 10.17974
123.8610, 10.14165
124.3431, 10.06682
124.8252, 9.980479
125.3074, 9.890749
125.7895, 9.793076
126.2716, 9.658741
126.7537, 9.406812
127.2358, 9.276677
127.7179, 9.363378
128.2001, 9.586676
128.6822, 9.861144
129.1643, 10.15543
129.6464, 10.45685
130.1285, 10.58490
130.6107, 10.27702
131.0928, 10.03639
131.5749, 10.02591
132.0570, 10.18818
132.5391, 10.37053
133.0212, 10.43678
133.5034, 10.36450
133.9855, 10.32382
134.4676, 10.27409
134.9497, 10.27891
135.4318, 10.40419
135.9139, 10.64356
136.3960, 10.90570
136.8782, 11.07955
137.3603, 11.13967
137.8424, 11.24947
138.3245, 11.52461
138.8066, 11.81290
139.2887, 11.88848
139.7709, 11.66105
140.2530, 11.38006
140.7351, 11.38661
141.2172, 11.64836
141.6993, 11.92582
142.1814, 12.13553
142.6636, 12.28276
143.1457, 12.38520
143.6278, 12.42980
144.1099, 12.44277
144.5920, 12.42292
145.0741, 12.37402
145.5563, 12.37316
146.0384, 12.53460
146.5205, 12.88965
147.0026, 13.13652
147.4847, 13.09532
147.9668, 13.01085
148.4490, 13.03956
148.9311, 13.20654
149.4132, 13.39127
149.8953, 13.40714
150.3774, 13.18309
150.8595, 12.91762
151.3417, 12.53958
151.8238, 12.18294
152.3059, 11.97435
152.7880, 11.95844
153.2701, 12.06041
153.7522, 12.09261
154.2344, 11.97731
154.7165, 11.87259
155.1986, 11.77947
155.6807, 11.70069
156.1628, 11.64484
156.6449, 11.61885
157.1271, 11.61043
157.6092, 11.56755
158.0913, 11.47503
158.5734, 11.37296
159.0555, 11.25311
159.5376, 11.12927
160.0198, 11.04261
160.5019, 11.02849
160.9840, 11.06272
161.4661, 11.05061
161.9482, 10.94315
162.4303, 10.84214
162.9125, 10.81691
163.3946, 10.86528
163.8767, 10.94236
164.3588, 11.03188
164.8409, 11.13204
165.3230, 11.23755
165.8052, 11.33192
166.2873, 11.44542
166.7694, 11.65448
167.2515, 12.01697
167.7336, 12.27488
168.2157, 12.19043
168.6979, 11.96554
169.1800, 11.83536
169.6621, 11.91936
170.1442, 12.14761
170.6263, 12.32377
171.1084, 12.41548
171.5906, 12.50274
172.0727, 12.60532
172.5548, 12.72180
173.0369, 12.85090
173.5190, 12.99344
174.0011, 13.14772
174.4833, 13.29941
174.9654, 13.47034
175.4475, 13.61521
175.9296, 13.73385
176.4117, 13.81871
176.8938, 13.84701
177.3760, 13.78749
177.8581, 13.63417
178.3402, 13.63380
178.8223, 13.93657
179.3044, 14.22663
179.7865, 14.38635
180.2687, 14.43287
180.7508, 14.44695
181.2329, 14.49635
181.7150, 14.58614
182.1971, 14.64600
182.6792, 14.70236
183.1614, 14.71372
183.6435, 14.69113
184.1256, 14.62109
184.6077, 14.42418
185.0898, 14.01305
185.5719, 13.36360
186.0541, 12.67883
186.5362, 11.80652
187.0183, 10.99074
187.5004, 10.51314
187.9825, 10.41525
188.4646, 10.40480
188.9468, 10.20962
189.4289, 9.875202
189.9110, 9.578114
190.3931, 9.355389
190.8752, 9.194009
191.3573, 9.093985
191.8395, 9.085909
192.3216, 9.051920
192.8037, 8.825727
193.2858, 8.497074
193.7679, 8.280718
194.2500, 8.338430
194.7322, 8.589685
195.2143, 8.783820
195.6964, 8.925497
196.1785, 8.983410
196.6606, 8.902740
197.1427, 8.737882
197.6249, 8.607476
198.1070, 8.578597
198.5891, 8.648667
199.0712, 8.800065
199.5533, 9.138310
200.0354, 9.443314
200.5176, 9.630810
200.9997, 9.719236
201.4818, 9.753528
201.9639, 9.750011
202.4460, 9.705632
202.9281, 9.737349
203.4103, 9.984143
203.8924, 10.18297
204.3745, 10.17437
204.8566, 10.03679
205.3387, 9.981746
205.8208, 10.22040
206.3030, 10.80750
206.7851, 11.17980
207.2672, 11.12110
207.7493, 11.07497
208.2314, 11.25444
208.7135, 11.61824
209.1957, 11.97371
209.6778, 12.13537
210.1599, 12.06227
210.6420, 12.11553
211.1241, 12.35855
211.6062, 12.64444
212.0884, 12.93672
212.5705, 13.21315
213.0526, 13.42443
213.5347, 13.51112
214.0168, 13.45243
214.4989, 13.47760
214.9811, 13.73494
215.4632, 13.95544
215.9453, 13.87920
216.4274, 13.52187
216.9095, 13.22019
217.3916, 13.30166
217.8737, 13.77758
218.3559, 14.09117
218.8380, 14.19072
219.3201, 14.15514
219.8022, 14.01082
220.2843, 13.76019
220.7664, 13.51502
221.2486, 13.41107
221.7307, 13.39489
222.2128, 13.24365
222.6949, 12.85726
223.1770, 12.35536
223.6591, 11.84727
224.1413, 11.32859
224.6234, 10.85386
225.1055, 10.46684
225.5876, 10.15489
226.0697, 9.911799
226.5518, 9.761234
227.0340, 9.667006
227.5161, 9.588049
227.9982, 9.534046
228.4803, 9.460720
228.9624, 9.316762
229.4445, 9.144261
229.9267, 8.987973
230.4088, 8.833761
230.8909, 8.731288
231.3730, 8.804246
231.8551, 9.126750
232.3372, 9.438248
232.8194, 9.695580
233.3015, 9.865368
233.7836, 9.873332
234.2657, 9.643313
234.7478, 9.306840
235.2299, 9.173404
235.7121, 9.338466
236.1942, 9.523080
236.6763, 9.634355
237.1584, 9.722407
237.6405, 9.846531
238.1227, 10.03726
238.6048, 10.26148
239.0869, 10.43368
239.5690, 10.53180
240.0511, 10.61286
240.5332, 10.64963
241.0154, 10.69388
241.4975, 10.80485
241.9796, 11.00843
242.4617, 11.26804
242.9438, 11.48933
243.4259, 11.64491
243.9081, 11.80400
244.3902, 12.00697
244.8723, 12.20132
245.3544, 12.31341
245.8365, 12.31832
246.3186, 12.28615
246.8008, 12.38775
247.2829, 12.81550
247.7650, 13.09479
248.2471, 13.15695
248.7292, 13.09835
249.2113, 13.03021
249.6935, 12.98527
250.1756, 12.88053
250.6577, 12.54121
251.1398, 11.65952
251.6219, 10.98944
252.1040, 10.62924
252.5862, 10.42125
253.0683, 10.23674
253.5504, 10.03695
254.0325, 9.852504
254.5146, 9.737920
254.9967, 9.761499
255.4789, 9.730588
255.9610, 9.600337
256.4431, 9.442624
256.9252, 9.320814
257.4073, 9.249137
257.8894, 9.195997
258.3716, 9.112712
258.8537, 8.961154
259.3358, 8.895724
259.8179, 9.009276
260.3000, 9.153240
260.7821, 9.193143
261.2643, 9.107452
261.7464, 8.972255
262.2285, 8.866305
262.7106, 8.796311
263.1927, 8.729158
263.6748, 8.636839
264.1570, 8.564878
264.6391, 8.548880
265.1212, 8.592758
265.6033, 8.690539
266.0854, 8.857078
266.5675, 9.094324
267.0497, 9.265006
267.5318, 9.312379
268.0139, 9.328707
268.4960, 9.369339
268.9781, 9.440488
269.4602, 9.564741
269.9424, 9.792243
270.4245, 10.09688
270.9066, 10.30049
271.3887, 10.36383
271.8708, 10.35179
272.3529, 10.27267
272.8351, 10.13661
273.3172, 10.05027
273.7993, 10.10212
274.2814, 10.24977
274.7635, 10.33892
275.2456, 10.31137
275.7278, 10.28632
276.2099, 10.37176
276.6920, 10.55203
277.1741, 10.69740
277.6562, 10.73975
278.1383, 10.70915
278.6205, 10.68518
279.1026, 10.67781
279.5847, 10.65507
280.0668, 10.61480
280.5489, 10.54920
281.0310, 10.39696
281.5132, 10.07191
281.9953, 9.717014
282.4774, 9.549418
282.9595, 9.600887
283.4416, 9.647717
283.9237, 9.542667
284.4059, 9.317444
284.8880, 9.102594
285.3701, 8.931101
285.8522, 8.778430
286.3343, 8.612889
286.8164, 8.435491
287.2986, 8.273146
287.7807, 8.118922
288.2628, 7.988105
288.7449, 7.933379
289.2270, 7.970175
289.7091, 8.073651
290.1913, 8.304449
290.6734, 8.605826
291.1555, 8.758153
291.6376, 8.524158
292.1197, 8.080585
292.6018, 7.847816
293.0840, 7.884057
293.5661, 8.046208
294.0482, 8.324517
294.5303, 8.649626
295.0124, 8.890690
295.4945, 8.960159
295.9767, 8.933372
296.4588, 8.946772
296.9409, 9.014881
297.4230, 9.073337
297.9051, 9.027690
298.3872, 8.971568
298.8694, 9.034236
299.3515, 9.290341
299.8336, 9.613185
300.3157, 9.846106
300.7978, 9.984078
301.2799, 10.06732
301.7621, 10.02098
302.2442, 9.974124
302.7263, 10.05768
303.2084, 10.30884
303.6905, 10.61043
304.1726, 10.83700
304.6548, 10.98346
305.1369, 11.17128
305.6190, 11.51414
306.1011, 11.83776
306.5832, 11.96297
307.0653, 11.88735
307.5475, 11.84002
308.0296, 12.05021
308.5117, 12.49118
308.9938, 12.77099
309.4759, 12.32098
309.9580, 12.37561
310.4402, 14.13394
310.9223, 17.16323
311.4044, 19.81561
311.8865, 20.89089
312.3686, 20.68398
312.8507, 20.45397
313.3329, 20.10872
313.8150, 19.94096
314.2971, 20.11019
314.7792, 20.53918
315.2613, 21.12557
315.7434, 21.97941
316.2256, 22.86183
316.7077, 23.19088
317.1898, 22.77288
317.6719, 22.34241
318.1540, 22.30746
318.6361, 22.40195
319.1183, 22.31491
319.6004, 21.90825
320.0825, 21.42005
320.5646, 21.18559
321.0467, 21.24224
321.5288, 21.31590
322.0110, 21.36758
322.4931, 21.37152
322.9752, 21.37008
323.4573, 21.37541
323.9394, 21.15563
324.4215, 20.27509
324.9037, 18.76007
325.3858, 17.71711
325.8679, 17.48441
326.3500, 17.68229
326.8321, 18.25098
327.3142, 19.07900
327.7964, 19.59051
328.2785, 19.16108
328.7606, 18.01871
329.2427, 17.29650
329.7248, 17.22308
330.2069, 17.29071
330.6891, 17.28097
331.1712, 17.17136
331.6533, 16.88514
332.1354, 16.20834
332.6175, 15.42384
333.0996, 15.19320
333.5818, 15.70416
334.0639, 16.15893
334.5460, 15.94046
335.0281, 15.51474
335.5102, 15.44895
335.9923, 15.99861
336.4745, 16.69064
336.9566, 16.97834
337.4387, 16.84276
337.9208, 16.60257
338.4029, 16.28292
338.8850, 15.95437
339.3671, 15.67678
339.8492, 15.45301
340.3314, 15.28974
340.8135, 15.17934
341.2956, 15.12730
341.7777, 15.20006
342.2598, 15.51370
342.7419, 15.80186
343.2241, 15.76698
343.7062, 15.47870
344.1883, 15.29231
344.6704, 15.49928
345.1525, 15.90600
345.6346, 16.09213
346.1168, 16.01171
346.5989, 15.79069
347.0810, 15.24094
347.5631, 14.63203
348.0452, 14.51498
348.5273, 15.34599
349.0095, 16.44315
349.4916, 17.06497
349.9737, 17.20314
350.4558, 17.14082
350.9379, 16.91727
351.4200, 16.61023
351.9022, 16.36234
352.3843, 16.21402
352.8664, 16.03189
353.3485, 15.72983
353.8306, 15.32146
354.3127, 14.84914
354.7949, 14.29506
355.2770, 13.72583
355.7591, 13.18990
356.2412, 12.68151
356.7233, 12.29533
357.2054, 12.16049
357.6876, 12.13881
358.1697, 12.02563
358.6518, 11.79626
359.1339, 11.46101
359.6160, 10.94752
360.0981, 10.30872
360.5803, 9.849399
361.0624, 9.752060
361.5445, 9.739260
362.0266, 9.568766
362.5087, 9.258505
362.9908, 8.985681
363.4730, 8.854324
363.9551, 8.828077
364.4372, 8.782410
364.9193, 8.708066
365.4014, 8.632058
365.8835, 8.577069
366.3657, 8.527470
366.8478, 8.446345
367.3299, 8.318022
367.8120, 8.170100
368.2941, 8.046581
368.7762, 7.954834
369.2584, 7.853375
369.7405, 7.700508
370.2226, 7.556853
370.7047, 7.481616
371.1868, 7.481720
371.6689, 7.534949
372.1511, 7.636182
372.6332, 7.787897
373.1153, 7.870826
373.5974, 7.889236
374.0795, 7.844286
374.5616, 7.668878
375.0438, 7.426659
375.5259, 7.292478
376.0080, 7.381663
376.4901, 7.601334
376.9722, 7.617928
377.4543, 7.130443
377.9365, 6.830518
378.4186, 6.912387
378.9007, 7.160306
379.3828, 7.346272
379.8649, 7.405412
380.3470, 7.409396
380.8292, 7.463729
381.3113, 7.616772
381.7934, 7.667669
382.2755, 7.576133
382.7576, 7.432638
383.2397, 7.227866
383.7219, 7.006178
384.2040, 6.884411
384.6861, 6.968483
385.1682, 7.241364
385.6503, 7.429148
386.1324, 7.520339
386.6146, 7.530171
387.0967, 7.384408
387.5788, 7.182475
388.0609, 7.048214
388.5430, 7.034676
389.0251, 7.095846
389.5073, 7.152456
389.9894, 7.254961
390.4715, 7.238018
390.9536, 6.945795
391.4357, 6.662214
391.9178, 6.596398
392.4000, 6.745508
392.8821, 6.938896
393.3642, 7.009720
393.8463, 6.953616
394.3284, 6.925522
394.8105, 7.000894
395.2927, 7.012802
395.7748, 6.665102
396.2569, 6.869621
396.7390, 6.973266
397.2211, 6.981461
397.7032, 6.608316
398.1854, 6.727587
398.6675, 6.649521
399.1496, 6.563366
399.6317, 6.751947
400.1138, 6.434268
400.5959, 6.618494
401.0781, 6.602362
401.5602, 6.677930
402.0423, 6.554942
402.5244, 6.493280
403.0065, 6.630243
403.4886, 6.657227
403.9708, 6.511374
404.4529, 6.355415
404.9350, 6.215263
405.4171, 6.156713
405.8992, 6.342614
406.3813, 6.606662
406.8635, 6.663219
407.3456, 6.489916
407.8277, 6.315713
408.3098, 6.268726
408.7919, 6.280748
409.2740, 6.225840
409.7562, 6.062234
410.2383, 5.923022
410.7204, 5.915741
411.2025, 5.998001
411.6846, 6.035791
412.1667, 5.981195
412.6489, 5.916036
413.1310, 5.964211
413.6131, 6.122571
414.0952, 6.222980
414.5773, 6.186456
415.0594, 6.113630
415.5416, 6.091592
416.0237, 6.123597
416.5058, 6.181262
416.9879, 6.253121
417.4700, 6.333316
417.9521, 6.390062
418.4343, 6.381834
418.9164, 6.403414
419.3985, 6.531662
419.8806, 6.690370
420.3627, 6.759554
420.8448, 6.701609
421.3270, 6.578753
421.8091, 6.482592
422.2912, 6.431827
422.7733, 6.354106
423.2554, 6.182993
423.7375, 6.044288
424.2197, 6.002245
424.7018, 6.059940
425.1839, 6.224108
425.6660, 6.524231
426.1481, 6.911314
426.6302, 7.046083
427.1124, 6.605694
427.5945, 6.299664
428.0766, 6.247809
428.5587, 6.350785
429.0408, 6.556475
429.5229, 6.832239
430.0051, 7.071645
430.4872, 7.085233
430.9693, 6.786329
431.4514, 6.625041
431.9335, 6.755446
432.4156, 6.902451
432.8978, 6.970039
433.3799, 6.965109
433.8620, 6.925373
434.3441, 6.859509
434.8262, 6.786670
435.3083, 6.756559
435.7905, 6.760972
436.2726, 6.832357
436.7547, 7.119604
437.2368, 7.406716
437.7189, 7.460246
438.2010, 7.223643
438.6832, 6.952487
439.1653, 6.865348
439.6474, 6.934246
440.1295, 7.005267
440.6116, 7.043807
441.0938, 7.104022
441.5759, 7.280623
442.0580, 7.525651
442.5401, 7.681353
443.0222, 7.583543
443.5043, 7.459407
443.9865, 7.587869
444.4686, 7.937453
444.9507, 8.215181
445.4328, 8.262506
445.9149, 8.175579
446.3970, 8.165183
446.8792, 8.224308
447.3613, 8.354455
447.8434, 8.651838
448.3255, 8.976504
448.8076, 9.137137
449.2897, 9.107968
449.7719, 9.020113
450.2540, 8.986130
450.7361, 9.007218
451.2182, 9.090994
451.7003, 9.234595
452.1824, 9.432528
452.6646, 9.674368
453.1467, 9.971599
453.6288, 10.37375
454.1109, 10.90404
454.5930, 11.46199
455.0751, 11.84039
455.5573, 11.90311
456.0394, 12.04883
456.5215, 12.30128
457.0036, 12.60132
457.4857, 12.96377
457.9678, 13.35011
458.4500, 13.65134
458.9321, 13.73882
459.4142, 13.68715
459.8963, 13.98602
460.3784, 14.97805
460.8605, 15.70136
461.3427, 15.73554
461.8248, 15.51016
462.3069, 15.44081
462.7890, 15.63121
463.2711, 15.89570
463.7532, 16.04047
464.2354, 16.07585
464.7175, 16.14130
465.1996, 16.28323
465.6817, 16.40684
466.1638, 16.44896
466.6459, 16.42363
467.1281, 16.35789
467.6102, 16.23186
468.0923, 16.09522
468.5744, 16.03462
469.0565, 16.03538
469.5386, 15.94914
470.0208, 15.70162
470.5029, 15.35675
470.9850, 15.02960
471.4671, 14.72927
471.9492, 14.39320
472.4313, 13.99601
472.9135, 13.55927
473.3956, 13.08695
473.8777, 12.58827
474.3598, 12.09251
474.8419, 11.59823
475.3240, 11.12672
475.8062, 10.90780
476.2883, 11.23541
476.7704, 11.41774
477.2525, 11.24818
477.7346, 10.88863
478.2167, 10.49577
478.6989, 10.12548
479.1810, 9.814907
479.6631, 9.618092
480.1452, 9.563640
480.6273, 9.482966
481.1094, 9.325252
481.5916, 9.193890
482.0737, 9.153985
482.5558, 9.158243
483.0379, 9.112937
483.5200, 8.964964
484.0021, 8.786126
484.4843, 8.739262
484.9664, 8.872786
485.4485, 8.912043
485.9306, 8.724056
486.4127, 8.491321
486.8948, 8.303938
487.3770, 8.172565
487.8591, 8.116557
488.3412, 8.200512
488.8233, 8.350915
489.3054, 8.426085
489.7875, 8.420835
490.2697, 8.376990
490.7518, 8.301787
491.2339, 8.206712
491.7160, 8.120433
492.1981, 8.054856
492.6802, 7.964775
493.1624, 7.782779
493.6445, 7.583028
494.1266, 7.478972
494.6087, 7.488901
495.0908, 7.567923
495.5729, 7.699099
496.0551, 7.879273
496.5372, 7.944462
497.0193, 7.818047
497.5014, 7.684884
497.9835, 7.612693
498.4656, 7.253270
498.9478, 7.604964
499.4299, 7.788546
499.9120, 7.813042
500.3941, 7.201969
500.8762, 7.411601
501.3583, 7.292330
501.8405, 7.159567
502.3226, 7.484709
502.8047, 6.966080
503.2868, 7.283958
503.7689, 7.267920
504.2510, 7.404705
504.7331, 7.210561
505.2152, 7.118630
505.6974, 7.357731
506.1795, 7.413539
506.6616, 7.181300
507.1437, 7.327800
507.6258, 6.797611
508.1079, 6.861226
508.5901, 7.181037
509.0722, 6.965436
509.5543, 7.117988
510.0364, 7.130326
510.5185, 6.505457
511.0006, 6.615449
511.4828, 6.534669
511.9649, 6.520942
512.4470, 6.598636
512.9291, 6.790817
513.4113, 6.976129
513.8934, 7.186727
514.3755, 7.336566
514.8576, 7.283050
515.3397, 7.045089
515.8218, 6.828368
516.3040, 6.799500
516.7861, 6.917894
517.2682, 6.890158
517.7503, 6.469551
518.2324, 6.212016
518.7145, 6.290426
519.1967, 6.478942
519.6788, 6.569992
520.1609, 6.526761
520.6430, 6.437563
521.1251, 6.387495
521.6072, 6.375074
522.0894, 6.355317
522.5715, 6.314616
523.0536, 6.288836
523.5357, 6.324381
524.0178, 6.364214
524.4999, 6.330729
524.9821, 6.198677
525.4642, 6.052795
525.9463, 5.961921
526.4284, 5.921593
526.9105, 5.919692
527.3926, 5.970152
527.8748, 6.012973
528.3569, 5.997309
528.8390, 5.934800
529.3211, 5.864716
529.8032, 5.749291
530.2853, 5.674570
530.7675, 5.708471
531.2496, 5.812950
531.7317, 5.945586
532.2138, 6.096145
532.6959, 6.166140
533.1780, 6.005180
533.6602, 5.542959
534.1423, 5.292310
534.6244, 5.322686
535.1065, 5.450020
535.5886, 5.697981
536.0707, 5.970312
536.5529, 6.119821
537.0350, 6.089741
537.5171, 5.975679
537.9992, 5.942006
538.4813, 6.021815
538.9634, 6.007840
539.4456, 5.783898
539.9277, 5.583447
540.4098, 5.500032
540.8919, 5.519333
541.3740, 5.619570
541.8561, 5.825750
542.3383, 6.037709
542.8204, 6.125957
543.3025, 6.100430
543.7846, 6.045271
544.2667, 5.956430
544.7488, 5.892970
545.2310, 5.979737
545.7131, 6.191308
546.1952, 6.249679
546.6773, 5.965840
547.1594, 5.653454
547.6415, 5.484354
548.1237, 5.451190
548.6058, 5.551858
549.0879, 5.792712
549.5700, 6.046553
550.0521, 6.082262
550.5342, 5.760240
551.0164, 5.651334
551.4985, 5.993505
551.9806, 6.273216
552.4627, 6.191300
552.9448, 5.894436
553.4269, 5.677393
553.9091, 5.680735
554.3912, 5.815949
554.8733, 5.975812
555.3554, 6.191053
555.8375, 6.205167
556.3196, 5.786497
556.8018, 5.388755
557.2839, 5.327785
557.7660, 5.513869
558.2481, 5.696179
558.7302, 5.795908
559.2123, 5.842575
559.6945, 5.852647
560.1766, 5.831737
560.6587, 5.807596
561.1408, 5.792121
561.6229, 5.763362
562.1050, 5.685655
562.5872, 5.547943
563.0693, 5.443651
563.5514, 5.337309
564.0335, 5.301856
564.5156, 5.458544
564.9977, 5.695254
565.4799, 5.807268
565.9620, 5.713708
566.4441, 5.505361
566.9262, 5.310934
567.4083, 5.114571
567.8904, 4.996718
568.3726, 5.000380
568.8547, 5.043650
569.3368, 5.160769
569.8189, 5.283529
570.3010, 5.294514
570.7831, 5.138433
571.2653, 4.924139
571.7474, 4.773041
572.2295, 4.678825
572.7116, 4.572845
573.1937, 4.418872
573.6758, 4.318069
574.1580, 4.415859
574.6401, 4.648246
575.1222, 4.762221
575.6043, 4.654768
576.0864, 4.514631
576.5685, 4.382389
577.0507, 4.294023
577.5328, 4.350996
578.0149, 4.567826
578.4970, 4.780536
578.9791, 4.804368
579.4612, 4.629903
579.9434, 4.504325
580.4255, 4.481746
580.9076, 4.445447
581.3897, 4.340485
581.8718, 4.228198
582.3539, 4.178740
582.8361, 4.205988
583.3182, 4.267972
583.8003, 4.366972
584.2824, 4.481755
584.7645, 4.410243
585.2466, 4.047780
585.7288, 3.799356
586.2108, 3.969823
586.6929, 4.326688
587.1750, 4.552371
587.6572, 4.623857
588.1393, 4.568824
588.6214, 4.243305
589.1035, 3.877564
589.5856, 3.827485
590.0677, 4.094871
590.5499, 4.382057
591.0320, 4.498861
591.5141, 4.487297
591.9962, 4.501258
592.4783, 4.587529
592.9604, 4.632510
593.4426, 4.609164
593.9247, 4.566266
594.4068, 4.546135
594.8889, 4.539048
595.3710, 4.502093
595.8531, 4.405066
596.3353, 4.266756
596.8174, 4.106141
597.2995, 3.902647
597.7816, 3.804719
598.2637, 3.886488
598.7458, 4.044436
599.2280, 4.233791
599.7101, 4.433040
600.1922, 4.525659
600.6743, 4.385080
601.1564, 4.201232
601.6385, 4.129274
602.1207, 4.144630
602.6028, 4.162190
603.0849, 4.150746
603.5670, 4.174495
604.0491, 4.344281
604.5313, 4.720837
605.0134, 4.856307
605.4955, 4.525650
605.9776, 4.246430
606.4597, 4.226753
606.9418, 4.333277
607.4240, 4.382308
607.9061, 4.323271
608.3882, 4.248614
608.8703, 4.285834
609.3524, 4.421328
609.8345, 4.466292
610.3167, 4.396115
610.7988, 4.289823
611.2809, 4.123156
611.7630, 3.972698
612.2451, 3.974147
612.7272, 4.184223
613.2094, 4.330109
613.6915, 4.212181
614.1736, 4.003839
614.6557, 3.887887
615.1378, 3.889160
615.6199, 4.057592
616.1021, 4.458550
616.5842, 4.955037
617.0663, 5.145658
617.5484, 4.802338
618.0305, 4.530879
618.5126, 4.286100
618.9948, 4.147149
619.4769, 4.241293
619.9590, 4.473029
620.4411, 4.629336
620.9232, 4.600219
621.4053, 4.462196
621.8875, 4.289015
622.3696, 4.083464
622.8517, 4.038772
623.3338, 4.275264
623.8159, 4.508035
624.2980, 4.440291
624.7802, 4.170234
625.2623, 4.020468
625.7444, 4.077955
626.2265, 4.195616
626.7086, 4.331364
627.1907, 4.475325
627.6729, 4.639547
628.1550, 4.813832
628.6371, 4.911943
629.1192, 4.843318
629.6013, 4.635943
630.0834, 4.526948
630.5656, 4.598833
631.0477, 4.632133
631.5298, 4.541261
632.0119, 4.446919
632.4940, 4.482905
632.9761, 4.618852
633.4583, 4.662872
633.9404, 4.408140
634.4225, 4.074335
634.9046, 4.067219
635.3867, 4.357385
635.8688, 4.548877
636.3510, 4.492607
636.8331, 4.357883
637.3152, 4.362376
637.7973, 4.527156
638.2794, 4.579278
638.7615, 4.370142
639.2437, 4.209926
639.7258, 4.262801
640.2079, 4.428275
640.6900, 4.563266
641.1721, 4.630852
641.6542, 4.685894
642.1364, 4.799422
642.6185, 4.961543
643.1006, 5.029294
643.5827, 4.956954
644.0648, 4.890822
644.5469, 4.882236
645.0291, 4.903117
645.5112, 4.950111
645.9933, 5.021065
646.4754, 5.039022
646.9575, 4.915429
647.4396, 4.760567
647.9218, 4.678254
648.4039, 4.670064
648.8860, 4.731779
649.3681, 4.867022
649.8502, 5.033119
650.3323, 5.173401
650.8145, 5.299191
651.2966, 5.344418
651.7787, 5.193817
652.2608, 5.098767
652.7429, 5.213132
653.2250, 5.390698
653.7072, 5.436988
654.1893, 5.305818
654.6714, 5.120862
655.1535, 4.953150
655.6356, 4.824891
656.1177, 4.830875
656.5999, 4.987288
657.0820, 5.168373
657.5641, 5.340224
658.0462, 5.481172
658.5283, 5.548772
659.0104, 5.544479
659.4926, 5.487770
659.9747, 5.231519
660.4568, 5.064706
660.9389, 5.305689
661.4210, 5.752882
661.9031, 5.973514
662.3853, 5.802018
662.8674, 5.455112
663.3495, 5.193380
663.8316, 5.010922
664.3137, 5.036794
664.7958, 5.423640
665.2780, 5.740599
665.7601, 5.744631
666.2422, 5.600772
666.7243, 5.482036
667.2064, 5.408775
667.6885, 5.349951
668.1707, 5.302402
668.6528, 5.254331
669.1349, 5.189236
669.6170, 5.110124
670.0991, 5.023331
670.5812, 4.928704
671.0634, 4.858856
671.5455, 4.880822
672.0276, 5.033890
672.5097, 5.128697
672.9918, 5.194883
673.4739, 5.165563
673.9561, 4.904377
674.4382, 4.585793
674.9203, 4.448271
675.4024, 4.551247
675.8845, 4.707667
676.3666, 4.759161
676.8488, 4.758245
677.3309, 4.834321
677.8130, 4.991284
678.2951, 5.127792
678.7772, 5.202681
679.2593, 5.218661
679.7415, 5.174478
680.2236, 5.041245
680.7057, 4.935460
681.1878, 4.861750
681.6699, 4.809171
682.1520, 4.784111
682.6342, 4.772225
683.1163, 4.741510
683.5984, 4.685861
684.0805, 4.658288
684.5626, 4.754775
685.0447, 4.938671
685.5269, 4.992622
686.0090, 4.888684
686.4911, 4.797673
686.9732, 4.800477
687.4553, 4.849700
687.9374, 4.862735
688.4196, 4.831636
688.9017, 4.838217
689.3838, 4.952044
689.8659, 5.049895
690.3480, 5.086045
690.8301, 5.046417
691.3123, 4.855181
691.7944, 4.510498
692.2765, 4.226501
692.7586, 4.275462
693.2407, 4.632318
693.7228, 4.952362
694.2050, 5.265495
694.6871, 5.466174
695.1692, 5.479558
695.6513, 5.387410
696.1334, 5.262667
696.6155, 5.107462
697.0977, 4.966539
697.5798, 4.843968
698.0619, 4.748044
698.5440, 4.680032
699.0261, 4.643914
699.5082, 4.668612
699.9904, 4.755465
700.4725, 4.821510
700.9546, 4.753543
701.4367, 4.570751
701.9188, 4.594607
702.4009, 4.995563
702.8831, 5.263097
703.3652, 5.148244
703.8473, 4.944469
704.3294, 4.880679
704.8115, 4.940099
705.2936, 4.941320
705.7758, 4.725113
706.2579, 4.509306
706.7400, 4.497407
707.2221, 4.617800
707.7042, 4.709085
708.1863, 4.734437
708.6685, 4.764230
709.1506, 4.871179
709.6327, 5.036520
710.1148, 5.112469
710.5969, 5.038631
711.0790, 4.985016
711.5612, 4.967415
712.0433, 4.980606
712.5254, 5.047533
713.0075, 5.144476
713.4896, 5.199267
713.9717, 5.159601
714.4539, 5.115236
714.9360, 5.177440
715.4181, 5.289259
715.9002, 5.309519
716.3823, 5.219487
716.8644, 5.109533
717.3466, 5.042696
717.8287, 5.010510
718.3108, 4.981647
718.7929, 4.960938
719.2750, 4.934468
719.7571, 4.872541
720.2393, 4.834305
720.7214, 4.870470
721.2035, 4.947198
721.6856, 4.996631
722.1677, 4.992319
722.6498, 4.980665
723.1320, 4.988998
723.6141, 5.021233
724.0962, 5.095403
724.5783, 5.209395
725.0604, 5.330775
725.5425, 5.454267
726.0247, 5.537230
726.5068, 5.479292
726.9889, 5.199521
727.4710, 5.026088
727.9531, 5.023677
728.4352, 5.051854
728.9174, 5.051509
729.3995, 5.061981
729.8816, 5.165360
730.3637, 5.373472
730.8458, 5.533239
731.3279, 5.461467
731.8101, 5.312835
732.2922, 5.384261
732.7743, 5.638236
733.2564, 5.791861
733.7385, 5.734714
734.2206, 5.590712
734.7028, 5.509014
735.1849, 5.491079
735.6670, 5.514246
736.1491, 5.655895
736.6312, 5.738116
737.1133, 5.675946
737.5955, 5.584935
738.0776, 5.574613
738.5597, 5.639806
739.0418, 5.695112
739.5239, 5.715724
740.0060, 5.682197
740.4882, 5.516555
740.9703, 5.277939
741.4524, 5.152452
741.9345, 5.178650
742.4166, 5.297312
742.8987, 5.481611
743.3809, 5.700132
743.8630, 5.792313
744.3451, 5.689699
744.8272, 5.583102
745.3093, 5.460166
745.7914, 5.358661
746.2736, 5.266400
746.7557, 5.217165
747.2378, 5.300898
747.7199, 5.584782
748.2020, 5.834371
748.6841, 5.820987
749.1663, 5.676970
749.6484, 5.630198
750.1305, 5.687509
750.6126, 5.757782
751.0947, 5.800123
751.5768, 5.794393
752.0590, 5.679944
752.5411, 5.394048
753.0232, 5.304755
753.5053, 5.619377
753.9874, 5.853634
754.4695, 5.775920
754.9517, 5.600885
755.4338, 5.576013
755.9159, 5.722670
756.3980, 5.833928
756.8801, 5.736154
757.3622, 5.624373
757.8444, 5.722168
758.3265, 5.950298
758.8086, 6.133293
759.2907, 6.219277
759.7728, 6.201967
760.2549, 6.051341
760.7371, 5.805975
761.2192, 5.726027
761.7013, 5.895528
762.1834, 6.000831
762.6655, 5.909035
763.1476, 5.821716
763.6298, 5.887458
764.1119, 6.062827
764.5940, 6.233936
765.0761, 6.417132
765.5582, 6.511698
766.0403, 6.370492
766.5225, 6.180418
767.0046, 6.176751
767.4867, 6.331596
767.9688, 6.462742
768.4509, 6.477568
768.9330, 6.429026
769.4152, 6.396248
769.8973, 6.378876
770.3794, 6.379045
770.8615, 6.392459
771.3436, 6.437039
771.8257, 6.542031
772.3079, 6.666859
772.7900, 6.741180
773.2721, 6.757819
773.7542, 6.816139
774.2363, 7.008666
774.7184, 7.161839
775.2006, 7.136132
775.6827, 7.044499
776.1648, 7.057898
776.6469, 7.188766
777.1290, 7.293176
777.6111, 7.227446
778.0933, 7.107114
778.5754, 7.234862
779.0575, 7.599395
779.5396, 7.869751
780.0217, 7.966730
780.5038, 8.020982
780.9860, 8.125377
781.4681, 8.272071
781.9502, 8.430022
782.4323, 8.618673
782.9144, 8.786524
783.3965, 8.876312
783.8787, 8.998505
784.3608, 9.242551
784.8429, 9.556581
785.3250, 9.844918
785.8071, 10.07754
786.2892, 10.29249
786.7714, 10.44479
787.2535, 10.63422
787.7356, 11.04837
788.2177, 11.68330
788.6998, 12.48651
789.1819, 13.44821
789.6641, 14.49183
790.1462, 15.53638
790.6283, 16.58165
791.1104, 17.56072
791.5925, 18.42394
792.0746, 19.29671
792.5568, 20.16080
793.0389, 21.07757
793.5210, 22.09568
794.0031, 23.20412
794.4852, 24.34418
794.9673, 25.49794
795.4495, 26.69113
795.9316, 27.88178
796.4137, 29.14770
796.8958, 30.62674
797.3779, 32.29409
797.8600, 34.01198
798.3422, 35.70869
798.8243, 37.43110
799.3064, 39.23960
799.7885, 41.13916
800.2706, 43.19017
800.7527, 45.43430
801.2349, 47.67761
801.7170, 49.85597
802.1991, 51.98093
802.6812, 54.14410
803.1633, 56.34873
803.6454, 58.19618
804.1276, 59.80798
804.6097, 60.85609
805.0918, 61.33974
805.5739, 61.10652
806.0560, 59.97932
806.5381, 57.97923
807.0203, 55.19866
807.5024, 51.60540
807.9845, 47.54706
808.4666, 43.32515
808.9487, 39.03664
809.4308, 34.97644
809.9130, 31.16043
810.3951, 27.97745
810.8772, 25.72276
811.3593, 24.04573
811.8414, 22.20514
812.3235, 20.06104
812.8057, 18.24334
813.2878, 16.82599
813.7699, 15.64894
814.2520, 14.73618
814.7341, 13.98967
815.2162, 13.32921
815.6984, 12.74362
816.1805, 12.21876
816.6626, 11.72569
817.1447, 11.31180
817.6268, 11.07038
818.1089, 10.90760
818.5911, 10.66672
819.0732, 10.33734
819.5553, 10.01639
820.0374, 9.766660
820.5195, 9.557651
821.0016, 9.323676
821.4838, 9.063581
821.9659, 8.810200
822.4480, 8.546412
822.9301, 8.357214
823.4122, 8.311953
823.8943, 8.344548
824.3765, 8.360813
824.8586, 8.382780
825.3407, 8.268317
825.8228, 7.830075
826.3049, 7.476692
826.7870, 7.367475
827.2692, 7.397719
827.7513, 7.523508
828.2334, 7.688380
828.7155, 7.728700
829.1976, 7.508214
829.6797, 7.217234
830.1619, 7.102703
830.6440, 7.075423
831.1261, 6.849848
831.6082, 6.431396
832.0903, 6.228822
832.5724, 6.506322
833.0546, 6.966655
833.5367, 6.989019
834.0188, 6.480280
834.5009, 6.195827
834.9830, 6.231238
835.4651, 6.299444
835.9473, 6.312720
836.4294, 6.298131
836.9115, 6.278756
837.3936, 6.255839
837.8757, 6.250561
838.3578, 6.271595
838.8400, 6.304067
839.3221, 6.387143
839.8042, 6.446725
840.2863, 6.379684
840.7684, 6.218889
841.2505, 6.097600
841.7327, 6.087678
842.2148, 6.082996
842.6969, 5.891733
843.1790, 5.615385
843.6611, 5.596174
844.1432, 5.830222
844.6254, 5.964017
845.1075, 5.836906
845.5896, 5.626961
846.0717, 5.577143
846.5538, 5.688635
847.0359, 5.723962
847.5181, 5.590927
848.0002, 5.565054
848.4823, 5.863410
848.9644, 6.131932
849.4465, 6.058778
849.9286, 5.760779
850.4108, 5.600337
850.8929, 5.689605
851.3750, 5.796174
851.8571, 5.890367
852.3392, 5.923564
852.8214, 5.780965
853.3035, 5.565534
853.7856, 5.496056
854.2677, 5.633705
854.7498, 5.819651
855.2319, 5.926819
855.7141, 5.962591
856.1962, 5.928094
856.6783, 5.832169
857.1604, 5.719614
857.6425, 5.597302
858.1246, 5.537608
858.6068, 5.620194
859.0889, 5.789674
859.5710, 5.831798
860.0531, 5.692915
860.5352, 5.563842
861.0173, 5.396753
861.4995, 5.313676
861.9816, 5.427526
862.4637, 5.623610
862.9458, 5.775834
863.4279, 5.877902
863.9100, 5.872272
864.3922, 5.644048
864.8743, 5.418531
865.3564, 5.312795
865.8385, 5.277842
866.3206, 5.252570
866.8027, 5.233066
867.2849, 5.253978
867.7670, 5.341666
868.2491, 5.451313
868.7312, 5.543996
869.2133, 5.608824
869.6954, 5.582677
870.1776, 5.473585
870.6597, 5.445269
871.1418, 5.581119
871.6239, 5.754632
872.1060, 5.798137
872.5881, 5.566477
873.0703, 5.760593
873.5524, 5.853847
874.0345, 5.851653
874.5166, 5.468115
874.9987, 5.576997
875.4808, 5.488544
875.9630, 5.433046
876.4451, 5.401154
876.9272, 5.461812
877.4093, 5.437725
877.8914, 5.173606
878.3735, 4.937896
878.8557, 4.917488
879.3378, 5.024776
879.8199, 5.113548
880.3020, 5.151560
880.7841, 5.195809
881.2662, 5.335694
881.7484, 5.454814
882.2305, 5.353516
882.7126, 5.130055
883.1947, 5.033692
883.6768, 5.090792
884.1589, 5.156129
884.6411, 5.139230
885.1232, 5.058030
885.6053, 4.907420
886.0874, 4.680699
886.5695, 4.674994
887.0516, 4.973542
887.5338, 5.161371
888.0159, 5.029305
888.4980, 4.801573
888.9801, 4.751191
889.4622, 4.877576
889.9443, 4.948178
890.4265, 4.880664
890.9086, 4.876525
891.3907, 5.054810
891.8728, 5.203759
892.3549, 5.179622
892.8370, 5.034050
893.3192, 4.857423
893.8013, 4.656369
894.2834, 4.533698
894.7655, 4.621268
895.2476, 4.729934
895.7297, 4.688487
896.2119, 4.560903
896.6940, 4.450839
897.1761, 4.385611
897.6582, 4.363819
898.1403, 4.392683
898.6224, 4.438759
899.1046, 4.443151
899.5867, 4.416150
900.0688, 4.394709
900.5509, 4.383492
901.0330, 4.427351
901.5151, 4.561198
901.9973, 4.681368
902.4794, 4.611653
902.9615, 4.351681
903.4436, 4.272335
903.9257, 4.479538
904.4078, 4.583692
904.8900, 4.430672
905.3721, 4.247897
905.8542, 4.207349
906.3363, 4.274964
906.8184, 4.355200
907.3005, 4.489602
907.7827, 4.529525
908.2648, 4.365050
908.7469, 4.205044
909.2290, 4.155611
909.7111, 4.165633
910.1932, 4.157948
910.6754, 4.129652
911.1575, 4.150093
911.6396, 4.313075
912.1217, 4.446655
912.6038, 4.353282
913.0859, 4.177866
913.5681, 4.136499
914.0502, 4.215769
914.5323, 4.278577
915.0144, 4.265076
915.4965, 4.231673
915.9786, 4.250545
916.4607, 4.304065
916.9428, 4.324544
917.4249, 4.315113
917.9070, 4.331992
918.3892, 4.395144
918.8713, 4.406273
919.3534, 4.271379
919.8355, 4.054159
920.3176, 3.948170
920.7997, 3.964639
921.2819, 4.060579
921.7640, 4.307811
922.2461, 4.494060
922.7282, 4.538928
923.2103, 4.479022
923.6924, 4.298120
924.1746, 4.008594
924.6567, 3.881354
925.1388, 4.097602
925.6209, 4.236837
926.1030, 4.114322
926.5851, 3.997072
927.0673, 4.120187
927.5494, 4.361512
928.0315, 4.471883
928.5136, 4.388114
928.9957, 4.299010
929.4778, 4.271630
929.9600, 4.310191
930.4421, 4.498558
930.9242, 4.715501
931.4063, 4.770350
931.8884, 4.655352
932.3705, 4.462176
932.8527, 4.226502
933.3348, 4.042445
933.8169, 4.065256
934.2990, 4.227752
934.7811, 4.358874
935.2632, 4.451410
935.7454, 4.535249
936.2275, 4.620565
936.7096, 4.626843
937.1917, 4.445334
937.6738, 4.164760
938.1559, 4.190989
938.6381, 4.594239
939.1202, 4.683719
939.6023, 4.283151
940.0844, 3.920313
940.5665, 3.857533
941.0486, 3.990319
941.5308, 4.171597
942.0129, 4.408623
942.4950, 4.623179
942.9771, 4.895369
943.4592, 5.023103
943.9413, 4.892218
944.4235, 4.698679
944.9056, 4.506286
945.3877, 4.353745
945.8698, 4.344457
946.3519, 4.544879
946.8340, 4.642485
947.3162, 4.447452
947.7983, 4.256959
948.2804, 4.213641
948.7625, 4.267613
949.2446, 4.403518
949.7267, 4.576636
950.2089, 4.654007
950.6910, 4.543620
951.1731, 4.435908
951.6552, 4.496096
952.1373, 4.631739
952.6194, 4.753528
953.1016, 4.847264
953.5837, 4.904062
954.0658, 4.921361
954.5479, 4.899276
955.0300, 4.825216
955.5121, 4.736588
955.9943, 4.708954
956.4764, 4.727279
956.9585, 4.737211
957.4406, 4.731687
957.9227, 4.698384
958.4048, 4.628763
958.8870, 4.565866
959.3691, 4.574457
959.8512, 4.641829
960.3333, 4.653875
960.8154, 4.596330
961.2975, 4.599084
961.7797, 4.707846
962.2618, 4.799955
962.7439, 4.781291
963.2260, 4.712585
963.7081, 4.741694
964.1902, 4.922200
964.6724, 4.900233
965.1545, 4.414504
965.6366, 4.165687
966.1187, 4.546708
966.6008, 4.998349
967.0829, 5.066815
967.5651, 4.863714
968.0472, 4.725923
968.5293, 4.671807
969.0114, 4.684061
969.4935, 4.890419
969.9756, 5.009476
970.4578, 4.812791
970.9399, 4.537399
971.4220, 4.499321
971.9041, 4.652245
972.3862, 4.627884
972.8683, 4.184731
973.3505, 3.809197
973.8326, 3.771587
974.3147, 3.889172
974.7968, 4.062609
975.2789, 4.245114
975.7610, 4.406419
976.2432, 4.525608
976.7253, 4.534898
977.2074, 4.336963
977.6895, 4.104150
978.1716, 4.030534
978.6537, 4.048536
979.1359, 4.047932
979.6180, 4.025426
980.1001, 4.012176
980.5822, 4.021354
981.0643, 4.069882
981.5464, 4.223683
982.0286, 4.375497
982.5107, 4.190392
982.9928, 3.760413
983.4749, 3.548799
983.9570, 3.611008
984.4391, 3.707170
984.9213, 3.708880
985.4034, 3.725764
985.8855, 3.981312
986.3676, 4.407118
986.8497, 4.306116
987.3318, 3.612863
987.8140, 3.176751
988.2961, 3.191031
988.7782, 3.340595
989.2603, 3.426583
989.7424, 3.508312
990.2245, 3.743744
990.7067, 4.187701
991.1888, 4.305428
991.6709, 3.910618
992.1530, 3.652235
992.6351, 3.744917
993.1172, 3.922248
993.5994, 4.014326
994.0815, 4.023707
994.5636, 3.945263
995.0457, 3.710809
995.5278, 3.581525
996.0099, 3.668145
996.4921, 3.713753
996.9742, 3.582542
997.4563, 3.444534
997.9384, 3.473759
998.4205, 3.619730
998.9026, 3.685349
999.3848, 3.596545
999.8669, 3.557337
1000.349, 3.655384
1000.831, 3.755010
1001.313, 3.787343
1001.795, 3.790118
1002.277, 3.790303
1002.760, 3.802039
1003.242, 3.870155
1003.724, 4.057858
1004.206, 4.177038
1004.688, 4.116240
1005.170, 3.979225
1005.652, 3.778458
1006.134, 3.589752
1006.617, 3.548443
1007.099, 3.640780
1007.581, 3.676656
1008.063, 3.522450
1008.545, 3.382893
1009.027, 3.462975
1009.509, 3.615966
1009.991, 3.652421
1010.473, 3.623977
1010.956, 3.696604
1011.438, 3.886647
1011.920, 4.012175
1012.402, 3.924293
1012.884, 3.778653
1013.366, 3.776387
1013.848, 3.849096
1014.330, 3.872379
1014.813, 3.846793
1015.295, 3.813575
1015.777, 3.785898
1016.259, 3.751725
1016.741, 3.698700
1017.223, 3.637274
1017.705, 3.570594
1018.187, 3.513000
1018.669, 3.544682
1019.152, 3.652367
1019.634, 3.678846
1020.116, 3.568007
1020.598, 3.456368
1021.080, 3.492902
1021.562, 3.617426
1022.044, 3.644842
1022.526, 3.588817
1023.008, 3.609796
1023.491, 3.723707
1023.973, 3.783722
1024.455, 3.720910
1024.937, 3.654401
1025.419, 3.732604
1025.901, 3.912334
1026.383, 3.996994
1026.865, 3.983177
1027.348, 3.910984
1027.830, 3.769150
1028.312, 3.669404
1028.794, 3.677414
1029.276, 3.695490
1029.758, 3.589253
1030.240, 3.383373
1030.722, 3.281063
1031.204, 3.301822
1031.687, 3.343997
1032.169, 3.407520
1032.651, 3.455630
1033.133, 3.434729
1033.615, 3.462388
1034.097, 3.561738
1034.579, 3.746509
1035.061, 3.830398
1035.544, 3.818758
1036.026, 3.425862
1036.508, 3.525389
1036.990, 3.446093
1037.472, 3.429787
1037.954, 3.430877
1038.436, 3.377542
1038.918, 3.275319
1039.401, 3.297961
1039.883, 3.558085
1040.365, 3.732364
1040.847, 3.777844
1041.329, 3.766067
1041.811, 3.701288
1042.293, 3.614309
1042.775, 3.525696
1043.257, 3.437749
1043.740, 3.432981
1044.222, 3.615815
1044.704, 3.720326
1045.186, 3.681548
1045.668, 3.622420
1046.150, 3.612600
1046.632, 3.601384
1047.114, 3.490089
1047.596, 3.292602
1048.079, 3.219727
1048.561, 3.410912
1049.043, 3.542406
1049.525, 3.539991
1050.007, 3.512308
1050.489, 3.468950
1050.971, 3.456679
1051.453, 3.577781
1051.936, 3.805315
1052.418, 3.893157
1052.900, 3.701470
1053.382, 3.541663
1053.864, 3.475209
1054.346, 3.451173
1054.828, 3.487771
1055.310, 3.521979
1055.792, 3.452408
1056.275, 3.300106
1056.757, 3.225851
1057.239, 3.295179
1057.721, 3.381777
1058.203, 3.510136
1058.685, 3.580176
1059.167, 3.434304
1059.649, 3.269511
1060.131, 3.380970
1060.614, 3.706966
1061.096, 3.853072
1061.578, 3.621349
1062.060, 3.456914
1062.542, 3.644082
1063.024, 3.788312
1063.506, 3.579987
1063.988, 3.266928
1064.471, 3.132511
1064.953, 3.171517
1065.435, 3.245327
1065.917, 3.341062
1066.399, 3.380345
1066.881, 3.289692
1067.363, 3.183206
1067.845, 3.085491
1068.328, 3.038114
1068.810, 3.111727
1069.292, 3.272041
1069.774, 3.411828
1070.256, 3.504467
1070.738, 3.559039
1071.220, 3.627749
1071.702, 3.601370
1072.184, 3.287155
1072.667, 2.946841
1073.149, 2.855248
1073.631, 2.977790
1074.113, 3.194913
1074.595, 3.494499
1075.077, 3.641256
1075.559, 3.352165
1076.041, 3.094110
1076.523, 3.171827
1077.006, 3.368974
1077.488, 3.531340
1077.970, 3.618364
1078.452, 3.583104
1078.934, 3.414919
1079.416, 3.235081
1079.898, 3.053324
1080.380, 2.928027
1080.862, 2.899425
1081.345, 2.930589
1081.827, 3.002485
1082.309, 3.103149
1082.791, 3.237824
1083.273, 3.399885
1083.755, 3.498044
1084.237, 3.427830
1084.719, 3.379499
1085.202, 3.495970
1085.684, 3.619020
1086.166, 3.576440
1086.648, 3.476165
1087.130, 3.557070
1087.612, 3.804863
1088.094, 3.850412
1088.576, 3.408605
1089.058, 3.039653
1089.541, 3.029092
1090.023, 3.129043
1090.505, 3.204887
1090.987, 3.259105
1091.469, 3.308570
1091.951, 3.356354
1092.433, 3.268883
1092.915, 3.497579
1093.397, 3.625402
1093.880, 3.657770
1094.362, 3.308802
1094.844, 3.452255
1095.326, 3.398369
1095.808, 3.336390
1096.290, 3.549149
1096.772, 3.255647
1097.254, 3.464049
1097.737, 3.389046
1098.219, 3.303843
1098.701, 3.248593
1099.183, 3.323418
1099.665, 3.418943
1100.147, 3.442352
1100.629, 3.406028
1101.111, 3.335109
1101.594, 3.225348
1102.076, 3.198267
1102.558, 3.422625
1103.040, 3.545686
1103.522, 3.308182
1104.004, 3.076393
1104.486, 3.161298
1104.968, 3.400358
1105.450, 3.506604
1105.932, 3.455473
1106.415, 3.436391
1106.897, 3.516219
1107.379, 3.583557
1107.861, 3.634534
1108.343, 3.648080
1108.825, 3.599702
1109.307, 3.517078
1109.789, 3.427377
1110.272, 3.333906
1110.754, 3.237977
1111.236, 3.089885
1111.718, 3.038982
1112.200, 3.194336
1112.682, 3.325803
1113.164, 3.347755
1113.646, 3.318173
1114.129, 3.239395
1114.611, 3.154292
1115.093, 3.225365
1115.575, 3.561224
1116.057, 3.717179
1116.539, 3.546634
1117.021, 3.419859
1117.503, 3.483773
1117.985, 3.518249
1118.468, 3.296837
1118.950, 2.999822
1119.432, 3.003425
1119.914, 3.345191
1120.396, 3.524889
1120.878, 3.453179
1121.360, 3.417213
1121.842, 3.505985
1122.324, 3.520774
1122.807, 3.290862
1123.289, 3.040559
1123.771, 3.089596
1124.253, 3.387244
1124.735, 3.502779
1125.217, 3.399456
1125.699, 3.230257
1126.181, 2.960997
1126.664, 2.746623
1127.146, 2.624301
1127.628, 2.628498
1128.110, 2.828308
1128.592, 3.130142
1129.074, 3.254452
1129.556, 3.186473
1130.038, 3.068449
1130.521, 2.876335
1131.003, 2.830421
1131.485, 3.003012
1131.967, 3.175480
1132.449, 3.203827
1132.931, 3.169498
1133.413, 3.213669
1133.895, 3.317249
1134.377, 3.341959
1134.859, 3.290053
1135.342, 3.198570
1135.824, 3.075040
1136.306, 3.090262
1136.788, 3.323377
1137.270, 3.558177
1137.752, 3.553346
1138.234, 3.410589
1138.716, 3.389974
1139.199, 3.453375
1139.681, 3.438639
1140.163, 3.342155
1140.645, 3.174497
1141.127, 2.957873
1141.609, 2.859111
1142.091, 3.007848
1142.573, 3.225649
1143.056, 3.246322
1143.538, 3.165748
1144.020, 3.198854
1144.502, 3.288316
1144.984, 3.228646
1145.466, 3.048681
1145.948, 3.021454
1146.430, 3.259270
1146.912, 3.509339
1147.395, 3.558151
1147.877, 3.495370
1148.359, 3.379646
1148.841, 3.246074
1149.323, 3.133534
1149.805, 3.047813
1150.287, 2.959469
1150.769, 2.882936
1151.251, 2.955572
1151.734, 3.325411
1152.216, 3.666037
1152.698, 3.769362
1153.180, 3.745671
1153.662, 3.609075
1154.144, 3.451193
1154.626, 3.397691
1155.108, 3.424864
1155.591, 3.404924
1156.073, 3.290933
1156.555, 3.216374
1157.037, 3.255124
1157.519, 3.306531
1158.001, 3.311348
1158.483, 3.331223
1158.965, 3.474606
1159.448, 3.637951
1159.930, 3.612769
1160.412, 3.386983
1160.894, 3.242734
1161.376, 3.213233
1161.858, 3.262885
1162.340, 3.541449
1162.822, 3.701878
1163.304, 3.523683
1163.786, 3.265002
1164.269, 3.149451
1164.751, 3.152464
1165.233, 3.192187
1165.715, 3.274933
1166.197, 3.375264
1166.679, 3.532880
1167.161, 3.581532
1167.643, 3.433779
1168.126, 3.330274
1168.608, 3.444864
1169.090, 3.607978
1169.572, 3.552398
1170.054, 3.315395
1170.536, 3.180753
1171.018, 3.151173
1171.500, 3.148639
1171.983, 3.165487
1172.465, 3.265625
1172.947, 3.477697
1173.429, 3.628539
1173.911, 3.563508
1174.393, 3.391299
1174.875, 3.295928
1175.357, 3.272129
1175.839, 3.310092
1176.322, 3.399177
1176.804, 3.531920
1177.286, 3.681901
1177.768, 3.705508
1178.250, 3.541612
1178.732, 3.350018
1179.214, 3.262564
1179.696, 3.258302
1180.178, 3.389964
1180.661, 3.530746
1181.143, 3.406608
1181.625, 3.150234
1182.107, 3.127435
1182.589, 3.358435
1183.071, 3.502427
1183.553, 3.372992
1184.035, 3.233237
1184.518, 3.289759
1185.000, 3.347329
1185.482, 3.189991
1185.964, 3.026083
1186.446, 3.157637
1186.928, 3.445626
1187.410, 3.512162
1187.892, 3.287471
1188.375, 3.134082
1188.857, 3.241287
1189.339, 3.270369
1189.821, 3.015686
1190.303, 2.828852
1190.785, 2.945715
1191.267, 3.163657
1191.749, 3.277890
1192.231, 3.304358
1192.714, 3.302998
1193.196, 3.062689
1193.678, 3.295698
1194.160, 3.427837
1194.642, 3.464523
1195.124, 3.119869
1195.606, 3.267637
1196.088, 3.218065
1196.570, 3.160400
1197.053, 3.377479
1197.535, 3.088291
1198.017, 3.301008
1198.499, 3.313373
1198.981, 3.417434
1199.463, 3.322937
1199.945, 3.289767
1200.427, 3.455220
1200.910, 3.435522
1201.392, 3.407787
1201.874, 3.323943
1202.356, 3.335293
1202.838, 3.392199
1203.320, 3.385915
1203.802, 3.340962
1204.284, 3.338795
1204.766, 3.352731
1205.249, 3.220011
1205.731, 2.923690
1206.213, 2.776662
1206.695, 3.051190
1207.177, 3.344154
1207.659, 3.327076
1208.141, 3.213645
1208.623, 3.077743
1209.105, 3.040558
1209.588, 3.174316
1210.070, 3.413997
1210.552, 3.552809
1211.034, 3.596170
1211.516, 3.258188
1211.998, 3.412629
1212.480, 3.369728
1212.962, 3.318738
1213.445, 3.542502
1213.927, 3.313647
1214.409, 3.167573
1214.891, 3.146933
1215.373, 3.221308
1215.855, 3.256232
1216.337, 3.249330
1216.819, 3.204912
1217.302, 3.101997
1217.784, 3.047350
1218.266, 3.069767
1218.748, 3.111326
1219.230, 3.142521
1219.712, 3.164352
1220.194, 3.171958
1220.676, 3.181063
1221.158, 3.251637
1221.641, 3.371573
1222.123, 3.496532
1222.605, 3.609452
1223.087, 3.638278
1223.569, 3.574028
1224.051, 3.478009
1224.533, 3.383203
1225.015, 3.292222
1225.497, 3.194878
1225.980, 3.114865
1226.462, 3.083186
1226.944, 3.083015
1227.426, 3.103353
1227.908, 3.132061
1228.390, 3.137560
1228.872, 3.125989
1229.354, 3.173522
1229.837, 3.353304
1230.319, 3.455867
1230.801, 3.343914
1231.283, 3.226372
1231.765, 3.165017
1232.247, 3.159311
1232.729, 3.266687
1233.211, 3.398602
1233.693, 3.387517
1234.176, 3.239259
1234.658, 3.121079
1235.140, 3.013590
1235.622, 3.000723
1236.104, 3.107544
1236.586, 3.238641
1237.068, 3.375366
1237.550, 3.492828
1238.032, 3.577118
1238.515, 3.608745
1238.997, 3.542046
1239.479, 3.402039
1239.961, 3.272123
1240.443, 3.160359
1240.925, 3.111171
1241.407, 3.119358
1241.889, 3.154868
1242.372, 3.201198
1242.854, 3.206094
1243.336, 3.121721
1243.818, 3.083721
1244.300, 3.289901
1244.782, 3.529074
1245.264, 3.650372
1245.746, 3.639781
1246.229, 3.322896
1246.711, 2.934656
1247.193, 3.029782
1247.675, 3.625798
1248.157, 3.929148
1248.639, 3.549248
1249.121, 3.264098
1249.603, 3.255584
1250.085, 3.295370
1250.568, 3.332083
1251.050, 3.370156
1251.532, 3.427319
1252.014, 3.471924
1252.496, 3.440515
1252.978, 3.344408
1253.460, 3.312362
1253.942, 3.348951
1254.424, 3.413359
1254.907, 3.505737
1255.389, 3.516936
1255.871, 3.418800
1256.353, 3.357633
1256.835, 3.431984
1257.317, 3.519854
1257.799, 3.446284
1258.281, 3.300640
1258.764, 3.180585
1259.246, 3.144120
1259.728, 3.420105
1260.210, 3.826330
1260.692, 3.884946
1261.174, 3.586237
1261.656, 3.373790
1262.138, 3.436495
1262.620, 3.519585
1263.103, 3.523015
1263.585, 3.497550
1264.067, 3.448006
1264.549, 3.396510
1265.031, 3.337321
1265.513, 3.299071
1265.995, 3.344031
1266.477, 3.446121
1266.959, 3.464868
1267.442, 3.373542
1267.924, 3.299111
1268.406, 3.225103
1268.888, 3.257460
1269.370, 3.429206
1269.852, 3.618294
1270.334, 3.770991
1270.816, 3.821769
1271.299, 3.671753
1271.781, 3.454427
1272.263, 3.469522
1272.745, 3.616527
1273.227, 3.671354
1273.709, 3.640535
1274.191, 3.524413
1274.673, 3.369617
1275.156, 3.324239
1275.638, 3.429034
1276.120, 3.505889
1276.602, 3.417464
1277.084, 3.349539
1277.566, 3.414342
1278.048, 3.503258
1278.530, 3.580016
1279.012, 3.624163
1279.495, 3.640355
1279.977, 3.598810
1280.459, 3.381974
1280.941, 2.980731
1281.423, 2.940229
1281.905, 3.411581
1282.387, 3.680685
1282.869, 3.682652
1283.351, 3.572842
1283.834, 3.385384
1284.316, 3.206150
1284.798, 3.089663
1285.280, 3.040425
1285.762, 3.063292
1286.244, 3.160128
##END=



