##NAMES=Varulite
##RRUFFID=R060740
##IDEAL CHEMISTRY=Na_2_Mn^2+^(Mn^2+^Fe^3+^)(PO_4_)_3_
##LOCALITY=Kaatiala, Finland
##OWNER=RRUFF
##SOURCE=Michael Scott
##DESCRIPTION=Brown massive. Can't find good single crystals for identification (too fine).
##STATUS=The identification of this mineral is not yet confirmed.
##URL=rruff.info/R060740
149.490, 1185.757
149.973, 1208.791
150.455, 1226.858
150.937, 1233.864
151.419, 1230.206
151.901, 1228.164
152.383, 1230.061
152.865, 1231.360
153.347, 1233.034
153.829, 1233.289
154.312, 1228.291
154.794, 1214.032
155.276, 1190.012
155.758, 1173.337
156.240, 1169.998
156.722, 1167.516
157.204, 1163.222
157.686, 1156.465
158.169, 1146.307
158.651, 1130.955
159.133, 1109.280
159.615, 1098.042
160.097, 1107.197
160.579, 1115.336
161.061, 1110.566
161.543, 1095.910
162.025, 1083.333
162.508, 1083.141
162.990, 1096.851
163.472, 1109.071
163.954, 1123.529
164.436, 1133.645
164.918, 1133.563
165.400, 1125.210
165.883, 1116.266
166.365, 1113.323
166.847, 1117.004
167.329, 1122.244
167.811, 1131.921
168.293, 1140.505
168.775, 1145.472
169.257, 1146.591
169.739, 1144.128
170.221, 1137.689
170.704, 1126.785
171.186, 1118.187
171.668, 1115.417
172.150, 1111.963
172.632, 1101.469
173.114, 1084.999
173.596, 1071.212
174.078, 1068.429
174.561, 1077.846
175.043, 1081.985
175.525, 1077.975
176.007, 1071.277
176.489, 1065.151
176.971, 1059.783
177.453, 1053.915
177.935, 1046.016
178.417, 1036.033
178.900, 1028.636
179.382, 1024.434
179.864, 1022.173
180.346, 1021.499
180.828, 1022.217
181.310, 1023.278
181.792, 1024.027
182.274, 1024.366
182.757, 1024.026
183.239, 1022.707
183.721, 1020.904
184.203, 1018.252
184.685, 1014.939
185.167, 1013.136
185.649, 1015.602
186.131, 1021.770
186.613, 1023.707
187.096, 1014.597
187.578, 1006.105
188.060, 1010.612
188.542, 1027.484
189.024, 1040.856
189.506, 1037.309
189.988, 1019.134
190.470, 1008.218
190.952, 1011.775
191.435, 1017.843
191.917, 1016.048
192.399, 1006.795
192.881, 999.076
193.363, 998.409
193.845, 1004.907
194.327, 1014.834
194.809, 1036.054
195.292, 1054.652
195.774, 1056.843
196.256, 1043.906
196.738, 1030.098
197.220, 1013.230
197.702, 1006.328
198.184, 995.709
198.666, 1027.097
199.148, 1048.288
199.631, 1059.831
200.113, 1032.824
200.595, 1055.597
201.077, 1058.420
201.559, 1060.424
202.041, 1090.202
202.523, 1087.316
203.005, 1091.452
203.488, 1089.532
203.970, 1082.556
204.452, 1077.158
204.934, 1075.911
205.416, 1079.337
205.898, 1087.388
206.380, 1104.144
206.862, 1119.658
207.344, 1127.945
207.827, 1129.687
208.309, 1127.717
208.791, 1121.278
209.273, 1113.417
209.755, 1110.656
210.237, 1114.692
210.719, 1120.202
211.201, 1126.061
211.684, 1131.461
212.166, 1132.564
212.648, 1125.301
213.130, 1115.891
213.612, 1116.308
214.094, 1129.697
214.576, 1142.784
215.058, 1147.655
215.540, 1147.151
216.023, 1149.629
216.505, 1158.287
216.987, 1170.354
217.469, 1182.805
217.951, 1197.222
218.433, 1206.037
218.915, 1200.882
219.397, 1188.297
219.880, 1184.072
220.362, 1194.969
220.844, 1209.621
221.326, 1207.978
221.808, 1188.269
222.290, 1176.768
222.772, 1189.201
223.254, 1213.467
223.736, 1228.582
224.219, 1228.999
224.701, 1223.626
225.183, 1222.674
225.665, 1225.931
226.147, 1230.115
226.629, 1236.761
227.111, 1243.043
227.593, 1244.021
228.076, 1238.409
228.558, 1232.336
229.040, 1232.671
229.522, 1239.307
230.004, 1245.507
230.486, 1251.523
230.968, 1256.093
231.450, 1256.532
231.932, 1252.618
232.415, 1249.689
232.897, 1252.558
233.379, 1261.321
233.861, 1270.176
234.343, 1281.619
234.825, 1291.139
235.307, 1293.839
235.789, 1290.212
236.271, 1285.954
236.754, 1284.620
237.236, 1286.403
237.718, 1290.293
238.200, 1298.510
238.682, 1306.712
239.164, 1311.491
239.646, 1313.790
240.128, 1318.311
240.611, 1329.140
241.093, 1343.676
241.575, 1349.228
242.057, 1337.834
242.539, 1327.491
243.021, 1325.606
243.503, 1329.710
243.985, 1334.996
244.467, 1339.928
244.950, 1343.336
245.432, 1340.912
245.914, 1326.815
246.396, 1316.323
246.878, 1316.337
247.360, 1320.913
247.842, 1320.285
248.324, 1310.572
248.807, 1297.016
249.289, 1290.141
249.771, 1294.300
250.253, 1297.143
250.735, 1297.669
251.217, 1296.522
251.699, 1293.871
252.181, 1289.844
252.663, 1285.478
253.146, 1282.123
253.628, 1279.611
254.110, 1278.932
254.592, 1283.308
255.074, 1287.151
255.556, 1285.664
256.038, 1278.736
256.520, 1270.121
257.003, 1263.635
257.485, 1259.603
257.967, 1256.111
258.449, 1250.607
258.931, 1247.803
259.413, 1253.430
259.895, 1264.564
260.377, 1272.410
260.859, 1269.750
261.342, 1256.629
261.824, 1243.828
262.306, 1225.016
262.788, 1213.163
263.270, 1215.870
263.752, 1227.578
264.234, 1239.375
264.716, 1246.390
265.198, 1248.439
265.681, 1244.295
266.163, 1225.493
266.645, 1210.691
267.127, 1204.773
267.609, 1202.918
268.091, 1199.768
268.573, 1193.124
269.056, 1184.383
269.538, 1176.246
270.020, 1167.299
270.502, 1162.117
270.984, 1163.451
271.466, 1166.444
271.948, 1168.061
272.430, 1167.384
272.912, 1164.326
273.395, 1157.968
273.877, 1146.754
274.359, 1137.956
274.841, 1130.729
275.323, 1127.051
275.805, 1130.515
276.287, 1139.683
276.769, 1148.165
277.251, 1149.643
277.734, 1144.109
278.216, 1139.270
278.698, 1135.317
279.180, 1131.906
279.662, 1128.983
280.144, 1126.448
280.626, 1124.241
281.108, 1123.258
281.591, 1122.321
282.073, 1116.883
282.555, 1104.332
283.037, 1093.092
283.519, 1087.172
284.001, 1084.653
284.483, 1083.458
284.965, 1083.339
285.447, 1083.545
285.930, 1083.714
286.412, 1084.149
286.894, 1081.892
287.376, 1073.725
287.858, 1063.357
288.340, 1054.826
288.822, 1048.756
289.304, 1043.886
289.786, 1039.756
290.269, 1036.187
290.751, 1031.794
291.233, 1024.871
291.715, 1018.988
292.197, 1019.966
292.679, 1028.142
293.161, 1033.306
293.643, 1028.924
294.125, 1019.422
294.608, 1012.489
295.090, 1009.489
295.572, 1008.210
296.054, 1006.117
296.536, 1003.425
297.018, 1003.858
297.500, 1012.721
297.983, 1021.559
298.465, 1021.050
298.947, 1011.858
299.429, 1003.645
299.911, 1003.263
300.393, 1009.825
300.875, 1015.160
301.357, 1021.834
301.839, 1024.729
302.322, 1018.201
302.804, 1006.511
303.286, 999.331
303.768, 1001.657
304.250, 1009.286
304.732, 1010.846
305.214, 1000.678
305.696, 992.072
306.178, 984.838
306.661, 980.058
307.143, 979.329
307.625, 982.911
308.107, 989.203
308.589, 996.849
309.071, 1009.425
309.553, 1012.581
310.035, 997.509
310.517, 982.230
311.000, 978.761
311.482, 985.196
311.964, 990.726
312.446, 985.463
312.928, 969.579
313.410, 958.308
313.892, 954.419
314.374, 952.586
314.857, 952.891
315.339, 954.169
315.821, 954.617
316.303, 953.101
316.785, 950.922
317.267, 952.339
317.749, 961.153
318.231, 964.567
318.714, 954.676
319.196, 941.515
319.678, 932.925
320.160, 930.788
320.642, 932.242
321.124, 935.923
321.606, 941.926
322.088, 943.455
322.570, 935.127
323.052, 926.537
323.535, 924.169
324.017, 927.721
324.499, 934.302
324.981, 946.535
325.463, 960.138
325.945, 962.565
326.427, 949.452
326.909, 938.244
327.392, 944.901
327.874, 962.911
328.356, 976.969
328.838, 980.751
329.320, 982.522
329.802, 990.543
330.284, 1003.609
330.766, 1013.157
331.249, 1014.043
331.731, 1009.918
332.213, 1010.171
332.695, 1017.018
333.177, 1022.986
333.659, 1023.466
334.141, 1022.424
334.623, 1026.786
335.105, 1038.461
335.588, 1051.889
336.070, 1059.799
336.552, 1060.267
337.034, 1060.628
337.516, 1059.403
337.998, 1059.283
338.480, 1062.421
338.962, 1068.437
339.444, 1075.587
339.927, 1082.828
340.409, 1090.002
340.891, 1094.606
341.373, 1094.919
341.855, 1094.420
342.337, 1090.817
342.819, 1087.694
343.302, 1091.456
343.784, 1104.964
344.266, 1120.999
344.748, 1123.673
345.230, 1105.837
345.712, 1092.555
346.194, 1090.666
346.676, 1090.601
347.158, 1084.729
347.641, 1073.241
348.123, 1064.012
348.605, 1067.396
349.087, 1082.009
349.569, 1087.187
350.051, 1077.841
350.533, 1065.842
351.015, 1058.128
351.497, 1052.795
351.980, 1045.851
352.462, 1035.455
352.944, 1022.947
353.426, 1008.949
353.908, 993.270
354.390, 980.580
354.872, 973.692
355.354, 970.813
355.836, 968.565
356.319, 968.097
356.801, 965.103
357.283, 957.082
357.765, 945.122
358.247, 930.292
358.729, 912.267
359.211, 895.080
359.693, 883.963
360.176, 880.182
360.658, 875.980
361.140, 873.532
361.622, 868.655
362.104, 855.355
362.586, 836.114
363.068, 820.551
363.550, 815.461
364.033, 819.274
364.515, 821.926
364.997, 824.666
365.479, 824.648
365.961, 819.394
366.443, 812.126
366.925, 806.295
367.407, 803.046
367.889, 801.003
368.371, 798.260
368.854, 794.868
369.336, 790.603
369.818, 782.811
370.300, 776.413
370.782, 773.878
371.264, 774.828
371.746, 777.662
372.228, 782.556
372.711, 788.200
373.193, 789.248
373.675, 784.136
374.157, 778.271
374.639, 772.837
375.121, 768.447
375.603, 766.392
376.085, 767.683
376.568, 769.237
377.050, 767.523
377.532, 763.390
378.014, 761.671
378.496, 764.724
378.978, 768.669
379.460, 767.298
379.942, 760.646
380.424, 757.115
380.907, 761.287
381.389, 767.752
381.871, 772.371
382.353, 774.502
382.835, 772.525
383.317, 763.834
383.799, 749.976
384.281, 744.867
384.763, 741.340
385.246, 751.943
385.728, 759.115
386.210, 763.043
386.692, 758.712
387.174, 740.598
387.656, 763.698
388.138, 770.281
388.620, 785.042
389.103, 767.144
389.585, 750.080
390.067, 739.171
390.549, 739.892
391.031, 749.416
391.513, 760.120
391.995, 767.855
392.477, 772.335
392.960, 771.642
393.442, 762.860
393.924, 756.055
394.406, 757.614
394.888, 761.671
395.370, 761.693
395.852, 755.611
396.334, 750.447
396.816, 752.304
397.298, 759.990
397.781, 769.466
398.263, 781.176
398.745, 791.313
399.227, 795.083
399.709, 793.136
400.191, 790.390
400.673, 784.312
401.155, 780.302
401.638, 785.352
402.120, 797.058
402.602, 804.841
403.084, 802.344
403.566, 793.345
404.048, 789.644
404.530, 797.909
405.012, 802.879
405.495, 801.660
405.977, 798.246
406.459, 795.075
406.941, 793.149
407.423, 793.839
407.905, 799.513
408.387, 810.708
408.869, 817.370
409.351, 816.292
409.834, 814.108
410.316, 810.829
410.798, 808.262
411.280, 809.472
411.762, 816.383
412.244, 825.024
412.726, 829.251
413.208, 828.759
413.690, 828.237
414.173, 828.881
414.655, 829.728
415.137, 830.109
415.619, 829.996
416.101, 828.826
416.583, 823.593
417.065, 818.511
417.547, 820.162
418.030, 828.702
418.512, 838.762
418.994, 847.831
419.476, 855.401
419.958, 859.176
420.440, 852.840
420.922, 851.073
421.404, 862.877
421.887, 878.648
422.369, 885.646
422.851, 881.058
423.333, 872.999
423.815, 871.197
424.297, 876.588
424.779, 883.198
425.261, 893.701
425.743, 902.738
426.225, 908.034
426.708, 910.669
427.190, 912.864
427.672, 915.932
428.154, 918.269
428.636, 916.483
429.118, 909.972
429.600, 902.859
430.082, 893.789
430.565, 886.553
431.047, 883.973
431.529, 886.054
432.011, 891.336
432.493, 902.484
432.975, 915.030
433.457, 922.218
433.939, 923.660
434.422, 921.463
434.904, 915.906
435.386, 907.983
435.868, 901.693
436.350, 897.005
436.832, 893.732
437.314, 891.699
437.796, 891.096
438.278, 893.373
438.761, 898.351
439.243, 902.252
439.725, 900.225
440.207, 891.236
440.689, 885.773
441.171, 887.884
441.653, 889.369
442.135, 887.903
442.617, 884.440
443.100, 880.091
443.582, 875.127
444.064, 870.906
444.546, 870.141
445.028, 873.163
445.510, 874.628
445.992, 870.934
446.474, 868.629
446.957, 875.144
447.439, 888.579
447.921, 898.143
448.403, 895.800
448.885, 890.331
449.367, 891.921
449.849, 899.971
450.331, 909.078
450.814, 917.937
451.296, 924.384
451.778, 922.008
452.260, 902.907
452.742, 890.650
453.224, 891.359
453.706, 897.021
454.188, 901.291
454.670, 903.688
455.152, 907.599
455.635, 916.794
456.117, 929.744
456.599, 932.827
457.081, 915.498
457.563, 904.860
458.045, 910.237
458.527, 922.138
459.009, 932.166
459.492, 938.386
459.974, 942.888
460.456, 948.648
460.938, 954.568
461.420, 954.943
461.902, 947.839
462.384, 939.420
462.866, 933.166
463.349, 929.128
463.831, 927.451
464.313, 932.242
464.795, 934.711
465.277, 927.299
465.759, 915.018
466.241, 907.196
466.723, 906.580
467.205, 910.180
467.688, 915.003
468.170, 922.796
468.652, 923.307
469.134, 910.216
469.616, 897.446
470.098, 891.274
470.580, 888.786
471.062, 884.347
471.544, 875.231
472.027, 864.217
472.509, 855.486
472.991, 849.063
473.473, 845.195
473.955, 846.268
474.437, 847.301
474.919, 843.163
475.401, 835.350
475.884, 830.605
476.366, 835.031
476.848, 841.074
477.330, 839.447
477.812, 831.674
478.294, 826.671
478.776, 828.901
479.258, 833.996
479.741, 833.778
480.223, 825.443
480.705, 817.807
481.187, 811.031
481.669, 805.003
482.151, 799.615
482.633, 794.863
483.115, 790.625
483.597, 786.679
484.079, 783.528
484.562, 783.288
485.044, 788.175
485.526, 790.139
486.008, 783.573
486.490, 776.466
486.972, 774.798
487.454, 778.276
487.936, 781.312
488.419, 781.086
488.901, 778.271
489.383, 772.743
489.865, 764.607
490.347, 758.841
490.829, 759.174
491.311, 762.350
491.793, 759.771
492.276, 748.306
492.758, 739.141
493.240, 735.335
493.722, 733.538
494.204, 731.164
494.686, 728.039
495.168, 725.227
495.650, 723.653
496.132, 722.847
496.615, 720.526
497.097, 716.188
497.579, 711.326
498.061, 704.454
498.543, 698.430
499.025, 695.541
499.507, 695.929
499.989, 698.023
500.471, 703.759
500.954, 709.673
501.436, 706.682
501.918, 694.080
502.400, 683.662
502.882, 682.739
503.364, 687.255
503.846, 686.020
504.328, 675.745
504.811, 667.982
505.293, 667.929
505.775, 669.201
506.257, 665.105
506.739, 656.119
507.221, 647.817
507.703, 644.354
508.185, 644.836
508.668, 645.081
509.150, 645.383
509.632, 644.828
510.114, 643.719
510.596, 641.406
511.078, 636.951
511.560, 630.460
512.042, 623.644
512.524, 615.378
513.006, 608.302
513.489, 609.015
513.971, 617.708
514.453, 624.645
514.935, 624.701
515.417, 620.318
515.899, 616.983
516.381, 614.838
516.864, 613.222
517.346, 613.083
517.828, 612.642
518.310, 608.736
518.792, 602.893
519.274, 601.057
519.756, 607.940
520.238, 619.648
520.720, 623.293
521.203, 615.391
521.685, 608.636
522.167, 605.555
522.649, 604.250
523.131, 604.793
523.613, 606.551
524.095, 606.372
524.577, 599.528
525.059, 591.848
525.542, 592.063
526.024, 599.089
526.506, 605.339
526.988, 607.863
527.470, 607.522
527.952, 605.346
528.434, 599.227
528.916, 597.109
529.398, 603.843
529.881, 609.961
530.363, 609.184
530.845, 603.789
531.327, 599.741
531.809, 600.244
532.291, 601.876
532.773, 596.767
533.255, 583.398
533.737, 576.638
534.220, 583.136
534.702, 590.666
535.184, 587.897
535.666, 578.603
536.148, 574.986
536.630, 582.352
537.112, 594.102
537.594, 609.763
538.077, 625.742
538.559, 632.220
539.041, 626.311
539.523, 616.512
540.005, 612.736
540.487, 615.453
540.969, 620.089
541.451, 631.280
541.933, 639.100
542.416, 636.886
542.898, 631.771
543.380, 633.509
543.862, 644.737
544.344, 657.346
544.826, 662.434
545.308, 661.746
545.791, 663.837
546.273, 670.040
546.755, 675.464
547.237, 676.550
547.719, 674.745
548.201, 674.579
548.683, 675.870
549.165, 679.029
549.647, 685.269
550.130, 692.747
550.612, 700.151
551.094, 707.022
551.576, 712.436
552.058, 715.460
552.540, 716.952
553.022, 721.265
553.504, 731.090
553.987, 737.205
554.469, 734.066
554.951, 729.241
555.433, 727.393
555.915, 728.582
556.397, 730.759
556.879, 732.992
557.361, 735.744
557.843, 741.272
558.326, 748.317
558.808, 750.060
559.290, 743.139
559.772, 733.835
560.254, 731.933
560.736, 739.714
561.218, 746.801
561.700, 755.657
562.182, 761.312
562.665, 758.683
563.147, 752.550
563.629, 750.496
564.111, 755.354
564.593, 762.678
565.075, 767.704
565.557, 770.601
566.039, 773.260
566.521, 776.638
567.004, 776.786
567.486, 768.157
567.968, 754.543
568.450, 749.071
568.932, 755.760
569.414, 763.963
569.896, 769.293
570.378, 775.580
570.860, 789.354
571.343, 809.199
571.825, 825.381
572.307, 830.072
572.789, 826.692
573.271, 828.495
573.753, 837.622
574.235, 845.578
574.718, 847.875
575.200, 850.925
575.682, 861.223
576.164, 877.471
576.646, 890.528
577.128, 895.477
577.610, 897.152
578.092, 897.422
578.574, 897.851
579.057, 903.507
579.539, 916.191
580.021, 931.260
580.503, 942.758
580.985, 950.208
581.467, 957.675
581.949, 964.929
582.431, 972.471
582.914, 980.601
583.396, 988.929
583.878, 996.792
584.360, 1004.002
584.842, 1011.691
585.324, 1020.057
585.806, 1029.662
586.288, 1042.432
586.770, 1058.468
587.253, 1074.828
587.735, 1091.025
588.217, 1105.224
588.699, 1112.593
589.181, 1107.161
589.663, 1106.602
590.145, 1114.071
590.627, 1123.914
591.109, 1133.398
591.592, 1142.414
592.074, 1151.592
592.556, 1161.314
593.038, 1171.147
593.520, 1182.612
594.002, 1195.258
594.484, 1197.294
594.966, 1183.483
595.448, 1168.276
595.931, 1160.847
596.413, 1161.219
596.895, 1167.429
597.377, 1189.618
597.859, 1203.858
598.341, 1197.544
598.823, 1183.339
599.305, 1174.027
599.788, 1170.828
600.270, 1167.979
600.752, 1160.690
601.234, 1151.291
601.716, 1149.412
602.198, 1158.758
602.680, 1158.969
603.162, 1140.030
603.644, 1116.328
604.127, 1099.066
604.609, 1087.913
605.091, 1080.754
605.573, 1079.927
606.055, 1080.045
606.537, 1078.961
607.019, 1076.163
607.502, 1070.666
607.984, 1062.331
608.466, 1051.837
608.948, 1039.518
609.430, 1025.608
609.912, 1014.180
610.394, 1007.235
610.876, 998.953
611.358, 987.601
611.841, 974.262
612.323, 958.672
612.805, 941.079
613.287, 925.519
613.769, 916.192
614.251, 907.878
614.733, 894.709
615.215, 878.144
615.697, 862.682
616.180, 850.043
616.662, 838.962
617.144, 827.663
617.626, 816.101
618.108, 804.750
618.590, 794.273
619.072, 783.090
619.554, 767.406
620.036, 752.572
620.519, 746.652
621.001, 751.346
621.483, 753.717
621.965, 744.082
622.447, 728.630
622.929, 714.754
623.411, 702.989
623.893, 693.722
624.375, 687.182
624.858, 682.915
625.340, 680.208
625.822, 679.208
626.304, 679.205
626.786, 684.181
627.268, 685.778
627.750, 677.017
628.232, 664.888
628.715, 661.089
629.197, 669.505
629.679, 675.672
630.161, 664.440
630.643, 645.468
631.125, 637.086
631.607, 639.740
632.089, 643.421
632.571, 642.800
633.054, 640.042
633.536, 640.311
634.018, 647.117
634.500, 648.357
634.982, 637.432
635.464, 628.143
635.946, 626.565
636.429, 630.217
636.911, 635.685
637.393, 642.635
637.875, 646.247
638.357, 639.101
638.839, 626.772
639.321, 621.523
639.803, 624.062
640.285, 626.524
640.768, 623.993
641.250, 619.333
641.732, 620.203
642.214, 631.685
642.696, 637.988
643.178, 636.313
643.660, 632.708
644.142, 627.892
644.625, 623.514
645.107, 622.162
645.589, 624.834
646.071, 629.714
646.553, 639.132
647.035, 648.545
647.517, 646.236
647.999, 632.046
648.481, 618.900
648.964, 614.568
649.446, 616.077
649.928, 615.646
650.410, 611.228
650.892, 609.290
651.374, 612.504
651.856, 615.379
652.338, 615.688
652.820, 613.972
653.303, 611.093
653.785, 607.013
654.267, 603.250
654.749, 600.867
655.231, 599.609
655.713, 599.345
656.195, 599.913
656.677, 600.599
657.159, 601.186
657.642, 600.964
658.124, 597.988
658.606, 590.552
659.088, 584.616
659.570, 580.178
660.052, 577.378
660.534, 578.391
661.016, 580.426
661.498, 578.139
661.981, 569.083
662.463, 561.638
662.945, 563.721
663.427, 569.083
663.909, 568.975
664.391, 563.437
664.873, 556.345
665.356, 549.502
665.838, 543.445
666.320, 538.723
666.802, 534.521
667.284, 535.443
667.766, 547.065
668.248, 556.095
668.730, 555.140
669.212, 549.036
669.695, 544.365
670.177, 542.169
670.659, 540.563
671.141, 538.809
671.623, 537.174
672.105, 535.163
672.587, 533.484
673.069, 534.647
673.552, 539.727
674.034, 545.718
674.516, 548.336
674.998, 547.543
675.480, 543.188
675.962, 532.323
676.444, 524.586
676.926, 526.973
677.408, 533.327
677.891, 533.329
678.373, 524.972
678.855, 523.112
679.337, 539.943
679.819, 556.074
680.301, 555.671
680.783, 546.045
681.265, 542.308
681.747, 548.826
682.230, 555.857
682.712, 550.770
683.194, 536.482
683.676, 530.591
684.158, 534.342
684.640, 538.341
685.122, 539.716
685.604, 539.060
686.086, 536.201
686.569, 530.411
687.051, 528.710
687.533, 537.067
688.015, 542.665
688.497, 538.351
688.979, 530.266
689.461, 525.004
689.943, 523.874
690.425, 525.171
690.908, 529.242
691.390, 533.685
691.872, 532.987
692.354, 527.874
692.836, 524.646
693.318, 525.250
693.800, 526.374
694.282, 524.154
694.765, 518.895
695.247, 517.732
695.729, 524.517
696.211, 530.039
696.693, 533.130
697.175, 534.711
697.657, 535.772
698.139, 536.002
698.622, 533.884
699.104, 527.197
699.586, 520.515
700.068, 517.500
700.550, 517.469
701.032, 519.378
701.514, 522.946
701.996, 528.234
702.479, 535.869
702.961, 543.749
703.443, 545.023
703.925, 538.172
704.407, 529.792
704.889, 515.942
705.371, 506.690
705.853, 512.350
706.335, 525.847
706.818, 532.926
707.300, 529.169
707.782, 526.204
708.264, 529.883
708.746, 534.578
709.228, 535.410
709.710, 532.906
710.192, 529.029
710.674, 524.620
711.157, 521.203
711.639, 521.661
712.121, 525.325
712.603, 526.606
713.085, 524.854
713.567, 523.674
714.049, 524.206
714.531, 526.913
715.013, 533.534
715.496, 546.755
715.978, 552.906
716.460, 546.605
716.942, 539.925
717.424, 536.232
717.906, 534.843
718.388, 535.708
718.870, 538.343
719.352, 539.763
719.835, 536.589
720.317, 532.085
720.799, 530.923
721.281, 532.115
721.763, 532.115
722.245, 530.010
722.727, 528.234
723.209, 529.377
723.692, 532.832
724.174, 534.429
724.656, 533.825
725.138, 532.057
725.620, 526.453
726.102, 522.736
726.584, 528.767
727.066, 540.165
727.549, 541.829
728.031, 522.621
728.513, 507.861
728.995, 510.832
729.477, 520.575
729.959, 527.774
730.441, 531.606
730.923, 533.966
731.406, 535.799
731.888, 536.715
732.370, 535.247
732.852, 532.061
733.334, 532.276
733.816, 536.799
734.298, 538.942
734.780, 534.867
735.262, 527.126
735.745, 520.157
736.227, 513.052
736.709, 509.790
737.191, 514.402
737.673, 517.894
738.155, 516.180
738.637, 512.736
739.119, 511.127
739.601, 511.946
740.084, 514.580
740.566, 523.445
741.048, 529.860
741.530, 520.735
742.012, 503.968
742.494, 496.651
742.976, 502.315
743.458, 514.343
743.940, 529.716
744.423, 543.361
744.905, 531.766
745.387, 525.157
745.869, 530.813
746.351, 533.491
746.833, 533.353
747.315, 521.960
747.797, 525.100
748.279, 523.760
748.762, 519.264
749.244, 516.827
749.726, 519.909
750.208, 524.025
750.690, 527.527
751.172, 529.672
751.654, 528.707
752.136, 523.763
752.619, 520.157
753.101, 525.081
753.583, 532.705
754.065, 531.935
754.547, 524.335
755.029, 519.280
755.511, 520.340
755.993, 524.556
756.476, 528.581
756.958, 532.378
757.440, 534.790
757.922, 535.417
758.404, 535.766
758.886, 535.974
759.368, 536.325
759.850, 537.796
760.333, 539.993
760.815, 540.011
761.297, 535.315
761.779, 531.447
762.261, 531.768
762.743, 532.037
763.225, 527.232
763.707, 519.036
764.189, 513.196
764.672, 512.472
765.154, 514.386
765.636, 518.348
766.118, 522.429
766.600, 520.951
767.082, 514.291
767.564, 509.563
768.046, 510.365
768.528, 513.113
769.011, 511.362
769.493, 504.399
769.975, 502.145
770.457, 506.965
770.939, 511.151
771.421, 512.263
771.903, 511.446
772.385, 508.553
772.867, 503.786
773.350, 503.661
773.832, 515.275
774.314, 523.648
774.796, 521.074
775.278, 514.955
775.760, 512.414
776.242, 513.313
776.724, 513.397
777.206, 510.200
777.689, 506.374
778.171, 504.068
778.653, 503.447
779.135, 506.860
779.617, 513.400
780.099, 514.172
780.581, 503.946
781.063, 490.523
781.546, 488.474
782.028, 498.992
782.510, 506.261
782.992, 509.775
783.474, 511.219
783.956, 509.802
784.438, 507.926
784.920, 509.627
785.403, 515.127
785.885, 516.602
786.367, 508.176
786.849, 502.825
787.331, 507.567
787.813, 514.156
788.295, 514.648
788.777, 509.956
789.260, 506.023
789.742, 504.886
790.224, 506.826
790.706, 514.379
791.188, 524.105
791.670, 531.569
792.152, 535.810
792.634, 534.226
793.116, 525.427
793.599, 515.289
794.081, 513.854
794.563, 520.509
795.045, 521.832
795.527, 516.871
796.009, 512.394
796.491, 511.031
796.973, 510.605
797.455, 508.412
797.938, 504.412
798.420, 501.717
798.902, 500.845
799.384, 500.620
799.866, 501.977
800.348, 502.990
800.830, 501.894
801.312, 499.357
801.794, 497.339
802.277, 496.243
802.759, 496.061
803.241, 495.701
803.723, 497.122
804.205, 505.429
804.687, 516.680
805.169, 520.385
805.651, 513.129
806.133, 504.498
806.616, 504.511
807.098, 510.933
807.580, 519.362
808.062, 529.279
808.544, 534.922
809.026, 534.611
809.508, 531.086
809.990, 526.566
810.473, 521.274
810.955, 516.599
811.437, 512.805
811.919, 508.763
812.401, 503.320
812.883, 499.090
813.365, 497.364
813.847, 498.073
814.330, 501.365
814.812, 508.249
815.294, 514.407
815.776, 520.319
816.258, 524.119
816.740, 522.844
817.222, 520.035
817.704, 521.489
818.187, 527.292
818.669, 529.857
819.151, 520.835
819.633, 511.067
820.115, 512.987
820.597, 520.777
821.079, 523.549
821.561, 520.445
822.043, 517.259
822.526, 517.587
823.008, 519.468
823.490, 519.870
823.972, 518.794
824.454, 515.240
824.936, 508.750
825.418, 505.573
825.900, 509.222
826.382, 515.153
826.865, 516.587
827.347, 513.143
827.829, 513.370
828.311, 520.147
828.793, 525.320
829.275, 526.254
829.757, 525.924
830.239, 526.756
830.721, 528.208
831.204, 528.018
831.686, 523.036
832.168, 521.796
832.650, 531.832
833.132, 540.978
833.614, 538.506
834.096, 529.934
834.578, 526.216
835.060, 530.131
835.543, 534.073
836.025, 530.429
836.507, 526.105
836.989, 531.782
837.471, 542.237
837.953, 544.648
838.435, 537.428
838.917, 529.744
839.400, 528.454
839.882, 530.749
840.364, 530.854
840.846, 529.113
841.328, 528.913
841.810, 530.660
842.292, 532.948
842.774, 535.391
843.256, 536.937
843.739, 535.556
844.221, 530.923
844.703, 527.008
845.185, 523.518
845.667, 521.412
846.149, 521.008
846.631, 521.992
847.114, 524.477
847.596, 528.215
848.078, 531.999
848.560, 536.901
849.042, 540.132
849.524, 540.303
850.006, 539.695
850.488, 539.794
850.970, 540.073
851.453, 539.394
851.935, 537.479
852.417, 535.347
852.899, 532.205
853.381, 530.372
853.863, 533.037
854.345, 537.787
854.827, 539.703
855.309, 538.944
855.792, 541.609
856.274, 553.341
856.756, 565.012
857.238, 560.602
857.720, 545.997
858.202, 538.910
858.684, 540.201
859.166, 542.280
859.648, 541.759
860.131, 539.942
860.613, 538.395
861.095, 537.173
861.577, 537.097
862.059, 538.364
862.541, 539.171
863.023, 538.369
863.505, 539.313
863.987, 546.340
864.470, 556.819
864.952, 559.372
865.434, 549.199
865.916, 540.965
866.398, 531.654
866.880, 528.328
867.362, 540.066
867.844, 555.744
868.327, 559.000
868.809, 548.471
869.291, 545.197
869.773, 562.071
870.255, 574.640
870.737, 570.284
871.219, 561.426
871.701, 558.579
872.183, 561.426
872.666, 565.719
873.148, 570.427
873.630, 574.383
874.112, 578.587
874.594, 580.169
875.076, 572.849
875.558, 561.435
876.041, 556.185
876.523, 559.392
877.005, 565.084
877.487, 569.069
877.969, 571.986
878.451, 574.038
878.933, 575.931
879.415, 580.573
879.897, 587.906
880.380, 594.333
880.862, 597.916
881.344, 598.865
881.826, 597.134
882.308, 592.846
882.790, 586.705
883.272, 578.215
883.754, 574.884
884.237, 579.952
884.719, 586.587
885.201, 588.137
885.683, 585.941
886.165, 587.216
886.647, 594.135
887.129, 598.215
887.611, 599.710
888.093, 596.688
888.576, 583.949
889.058, 568.865
889.540, 563.635
890.022, 569.748
890.504, 576.434
890.986, 587.687
891.468, 594.171
891.950, 590.158
892.432, 584.049
892.915, 580.325
893.397, 579.926
893.879, 585.482
894.361, 601.465
894.843, 611.427
895.325, 602.342
895.807, 593.582
896.289, 601.209
896.771, 615.259
897.254, 619.864
897.736, 613.726
898.218, 608.777
898.700, 611.694
899.182, 617.605
899.664, 624.613
900.146, 630.930
900.628, 633.478
901.110, 633.130
901.593, 633.203
902.075, 635.012
902.557, 637.259
903.039, 638.286
903.521, 639.078
904.003, 640.758
904.485, 643.826
904.968, 651.960
905.450, 664.753
905.932, 672.948
906.414, 669.541
906.896, 660.403
907.378, 655.772
907.860, 655.285
908.342, 656.415
908.824, 659.037
909.307, 662.828
909.789, 667.804
910.271, 672.801
910.753, 676.371
911.235, 678.913
911.717, 683.287
912.199, 690.352
912.681, 693.158
913.164, 688.607
913.646, 687.673
914.128, 699.818
914.610, 714.325
915.092, 710.118
915.574, 683.254
916.056, 669.087
916.538, 671.372
917.020, 679.452
917.503, 697.058
917.985, 713.094
918.467, 717.942
918.949, 714.321
919.431, 711.693
919.913, 708.322
920.395, 709.792
920.877, 720.793
921.359, 731.268
921.842, 736.675
922.324, 740.330
922.806, 747.233
923.288, 756.630
923.770, 760.598
924.252, 749.270
924.734, 744.431
925.216, 759.290
925.698, 775.790
926.181, 780.158
926.663, 777.651
927.145, 777.753
927.627, 782.473
928.109, 789.826
928.591, 802.616
929.073, 813.444
929.555, 813.153
930.038, 811.595
930.520, 820.795
931.002, 839.159
931.484, 860.250
931.966, 882.467
932.448, 896.483
932.930, 885.756
933.412, 871.117
933.894, 876.096
934.377, 894.431
934.859, 915.985
935.341, 937.020
935.823, 953.584
936.305, 962.756
936.787, 968.414
937.269, 972.277
937.752, 977.282
938.234, 993.009
938.716, 1015.273
939.198, 1026.825
939.680, 1023.486
940.162, 1020.191
940.644, 1031.082
941.126, 1048.186
941.608, 1055.001
942.091, 1054.187
942.573, 1055.888
943.055, 1061.010
943.537, 1067.125
944.019, 1073.187
944.501, 1078.610
944.983, 1081.332
945.465, 1083.519
945.947, 1097.524
946.430, 1122.302
946.912, 1135.185
947.394, 1131.936
947.876, 1127.654
948.358, 1131.032
948.840, 1139.975
949.322, 1151.817
949.804, 1166.412
950.286, 1176.841
950.769, 1182.038
951.251, 1192.593
951.733, 1211.922
952.215, 1233.830
952.697, 1254.260
953.179, 1272.337
953.661, 1284.554
954.143, 1288.722
954.625, 1299.146
955.108, 1318.064
955.590, 1336.115
956.072, 1350.810
956.554, 1362.719
957.036, 1371.927
957.518, 1379.030
958.000, 1387.132
958.482, 1397.311
958.965, 1405.224
959.447, 1408.395
959.929, 1413.815
960.411, 1424.306
960.893, 1438.626
961.375, 1456.968
961.857, 1478.933
962.339, 1492.936
962.821, 1491.462
963.304, 1496.369
963.786, 1514.345
964.268, 1532.367
964.750, 1545.032
965.232, 1553.360
965.714, 1558.257
966.196, 1559.339
966.679, 1560.798
967.161, 1561.245
967.643, 1564.052
968.125, 1574.228
968.607, 1582.162
969.089, 1582.011
969.571, 1575.810
970.053, 1566.006
970.535, 1550.749
971.018, 1542.843
971.500, 1552.806
971.982, 1557.422
972.464, 1544.470
972.946, 1530.120
973.428, 1527.257
973.910, 1532.441
974.392, 1537.036
974.875, 1542.188
975.357, 1538.499
975.839, 1519.426
976.321, 1497.466
976.803, 1475.831
977.285, 1454.510
977.767, 1435.873
978.249, 1417.402
978.731, 1389.627
979.214, 1344.823
979.696, 1309.058
980.178, 1295.709
980.660, 1285.034
981.142, 1270.173
981.624, 1251.251
982.106, 1226.407
982.588, 1197.735
983.070, 1173.337
983.553, 1157.464
984.035, 1140.689
984.517, 1117.446
984.999, 1095.287
985.481, 1079.031
985.963, 1066.290
986.445, 1054.920
986.927, 1044.095
987.409, 1032.082
987.892, 1017.090
988.374, 1003.152
988.856, 993.042
989.338, 983.185
989.820, 969.735
990.302, 955.818
990.784, 947.318
991.266, 943.950
991.748, 937.539
992.231, 924.578
992.713, 909.016
993.195, 888.001
993.677, 869.482
994.159, 859.567
994.641, 856.306
995.123, 857.764
995.606, 862.809
996.088, 865.637
996.570, 860.543
997.052, 857.471
997.534, 866.002
998.016, 873.752
998.498, 868.926
998.980, 856.541
999.462, 844.955
999.945, 836.182
1000.427, 831.899
1000.909, 839.127
1001.391, 842.882
1001.873, 831.212
1002.355, 817.136
1002.837, 812.868
1003.319, 814.443
1003.801, 812.807
1004.284, 806.167
1004.766, 799.678
1005.248, 797.242
1005.730, 793.378
1006.212, 782.491
1006.694, 771.543
1007.176, 764.458
1007.658, 762.856
1008.141, 772.903
1008.623, 795.342
1009.105, 805.408
1009.587, 777.512
1010.069, 753.747
1010.551, 763.995
1011.033, 779.394
1011.515, 770.311
1011.997, 747.514
1012.480, 736.251
1012.962, 741.899
1013.444, 750.830
1013.926, 762.529
1014.408, 769.745
1014.890, 763.916
1015.372, 756.710
1015.854, 760.630
1016.336, 770.272
1016.819, 772.908
1017.301, 765.814
1017.783, 758.874
1018.265, 757.061
1018.747, 754.336
1019.229, 745.834
1019.711, 737.416
1020.193, 734.381
1020.676, 734.971
1021.158, 734.682
1021.640, 732.603
1022.122, 733.034
1022.604, 740.421
1023.086, 746.413
1023.568, 748.590
1024.050, 747.464
1024.532, 739.339
1025.015, 729.772
1025.497, 730.257
1025.979, 743.059
1026.461, 752.433
1026.943, 749.674
1027.425, 749.560
1027.907, 760.671
1028.389, 771.989
1028.871, 771.975
1029.354, 768.160
1029.836, 776.278
1030.318, 798.992
1030.800, 815.830
1031.282, 821.387
1031.764, 823.409
1032.246, 822.003
1032.728, 819.321
1033.211, 815.798
1033.693, 812.287
1034.175, 809.273
1034.657, 806.567
1035.139, 808.710
1035.621, 818.825
1036.103, 829.827
1036.585, 845.306
1037.068, 856.380
1037.550, 853.634
1038.032, 845.733
1038.514, 847.407
1038.996, 859.562
1039.478, 864.615
1039.960, 855.309
1040.442, 850.656
1040.924, 852.409
1041.406, 858.882
1041.889, 874.619
1042.371, 890.378
1042.853, 891.676
1043.335, 879.085
1043.817, 874.116
1044.299, 880.694
1044.781, 886.235
1045.263, 889.428
1045.746, 892.337
1046.228, 895.790
1046.710, 899.544
1047.192, 903.502
1047.674, 907.529
1048.156, 910.241
1048.638, 910.812
1049.120, 913.252
1049.603, 918.714
1050.085, 923.561
1050.567, 926.883
1051.049, 927.504
1051.531, 923.004
1052.013, 915.507
1052.495, 915.115
1052.977, 922.720
1053.459, 930.764
1053.942, 939.265
1054.424, 945.503
1054.906, 948.246
1055.388, 950.072
1055.870, 953.191
1056.352, 957.579
1056.834, 964.368
1057.316, 973.344
1057.798, 975.671
1058.281, 971.081
1058.763, 971.233
1059.245, 979.561
1059.727, 988.495
1060.209, 992.197
1060.691, 992.993
1061.173, 995.036
1061.655, 998.143
1062.138, 1001.104
1062.620, 1004.151
1063.102, 1011.827
1063.584, 1023.764
1064.066, 1024.003
1064.548, 1001.356
1065.030, 975.453
1065.512, 976.798
1065.995, 993.606
1066.477, 998.299
1066.959, 995.395
1067.441, 1000.882
1067.923, 1014.637
1068.405, 1021.333
1068.887, 1013.463
1069.369, 1003.369
1069.851, 1004.329
1070.333, 1009.065
1070.816, 1006.927
1071.298, 1002.210
1071.780, 1003.535
1072.262, 1009.186
1072.744, 1010.843
1073.226, 1005.744
1073.708, 999.713
1074.190, 991.449
1074.673, 989.933
1075.155, 1010.881
1075.637, 1035.123
1076.119, 1044.146
1076.601, 1039.091
1077.083, 1020.947
1077.565, 992.252
1078.047, 976.151
1078.530, 992.842
1079.012, 1008.869
1079.494, 1013.372
1079.976, 1008.946
1080.458, 987.160
1080.940, 963.721
1081.422, 963.260
1081.904, 984.502
1082.386, 999.391
1082.869, 1002.772
1083.351, 999.118
1083.833, 980.942
1084.315, 965.976
1084.797, 965.397
1085.279, 968.625
1085.761, 963.482
1086.243, 952.787
1086.726, 949.377
1087.208, 957.114
1087.690, 961.274
1088.172, 960.432
1088.654, 958.690
1089.136, 956.769
1089.618, 954.518
1090.100, 951.039
1090.583, 948.073
1091.065, 950.852
1091.547, 960.460
1092.029, 957.009
1092.511, 936.496
1092.993, 925.616
1093.475, 930.988
1093.957, 935.029
1094.439, 927.291
1094.922, 916.580
1095.404, 916.080
1095.886, 923.055
1096.368, 923.695
1096.850, 918.583
1097.332, 914.405
1097.814, 911.726
1098.296, 907.158
1098.778, 899.456
1099.261, 892.156
1099.743, 888.625
1100.225, 887.453
1100.707, 887.177
1101.189, 886.835
1101.671, 884.857
1102.153, 880.625
1102.635, 869.206
1103.118, 852.227
1103.600, 846.497
1104.082, 865.216
1104.564, 884.261
1105.046, 877.138
1105.528, 861.932
1106.010, 859.457
1106.492, 861.908
1106.974, 853.460
1107.457, 837.218
1107.939, 830.875
1108.421, 841.373
1108.903, 851.574
1109.385, 853.300
1109.867, 852.798
1110.349, 853.862
1110.831, 853.402
1111.313, 846.090
1111.796, 836.280
1112.278, 833.413
1112.760, 838.822
1113.242, 840.896
1113.724, 834.539
1114.206, 830.232
1114.688, 827.415
1115.170, 829.497
1115.653, 844.597
1116.135, 858.466
1116.617, 851.906
1117.099, 829.948
1117.581, 823.143
1118.063, 837.708
1118.545, 843.444
1119.027, 836.760
1119.510, 834.802
1119.992, 844.819
1120.474, 849.807
1120.956, 835.490
1121.438, 811.760
1121.920, 797.219
1122.402, 791.854
1122.884, 797.794
1123.366, 814.001
1123.849, 835.371
1124.331, 859.086
1124.813, 867.529
1125.295, 852.223
1125.777, 826.865
1126.259, 800.253
1126.741, 779.820
1127.223, 784.828
1127.705, 801.391
1128.188, 804.310
1128.670, 794.886
1129.152, 780.185
1129.634, 764.218
1130.116, 757.429
1130.598, 768.942
1131.080, 781.971
1131.562, 787.638
1132.045, 787.165
1132.527, 775.480
1133.009, 762.502
1133.491, 762.502
1133.973, 772.246
1134.455, 776.812
1134.937, 772.690
1135.419, 766.044
1135.901, 751.945
1136.384, 744.036
1136.866, 751.433
1137.348, 760.131
1137.830, 761.878
1138.312, 759.628
1138.794, 758.556
1139.276, 758.388
1139.758, 750.427
1140.240, 730.363
1140.723, 718.790
1141.205, 718.970
1141.687, 720.498
1142.169, 720.190
1142.651, 717.202
1143.133, 710.397
1143.615, 701.388
1144.097, 693.199
1144.580, 686.112
1145.062, 683.503
1145.544, 683.857
1146.026, 676.681
1146.508, 661.327
1146.990, 647.361
1147.472, 639.414
1147.954, 635.308
1148.437, 633.938
1148.919, 633.934
1149.401, 635.407
1149.883, 635.835
1150.365, 630.625
1150.847, 621.709
1151.329, 613.410
1151.811, 606.778
1152.293, 601.405
1152.776, 598.630
1153.258, 593.913
1153.740, 582.537
1154.222, 572.195
1154.704, 569.086
1155.186, 567.346
1155.668, 560.058
1156.150, 549.091
1156.632, 541.082
1157.115, 536.276
1157.597, 534.172
1158.079, 538.196
1158.561, 536.028
1159.043, 521.886
1159.525, 512.138
1160.007, 516.726
1160.489, 524.185
1160.972, 519.353
1161.454, 506.588
1161.936, 503.807
1162.418, 510.031
1162.900, 514.890
1163.382, 517.445
1163.864, 513.403
1164.346, 502.660
1164.828, 495.809
1165.311, 499.867
1165.793, 506.176
1166.275, 503.871
1166.757, 498.329
1167.239, 496.167
1167.721, 496.280
1168.203, 497.195
1168.685, 498.562
1169.167, 500.776
1169.650, 503.703
1170.132, 504.406
1170.614, 499.280
1171.096, 495.465
1171.578, 495.630
1172.060, 497.593
1172.542, 503.109
1173.024, 507.507
1173.507, 503.070
1173.989, 493.660
1174.471, 493.491
1174.953, 506.504
1175.435, 507.399
1175.917, 490.440
1176.399, 480.680
1176.881, 483.464
1177.364, 489.249
1177.846, 493.794
1178.328, 495.917
1178.810, 493.612
1179.292, 488.839
1179.774, 487.726
1180.256, 489.061
1180.738, 487.523
1181.220, 483.647
1181.703, 480.110
1182.185, 478.013
1182.667, 479.869
1183.149, 487.546
1183.631, 493.882
1184.113, 492.977
1184.595, 487.961
1185.077, 477.670
1185.559, 468.035
1186.042, 465.616
1186.524, 468.431
1187.006, 473.716
1187.488, 480.412
1187.970, 480.536
1188.452, 463.346
1188.934, 455.375
1189.416, 463.718
1189.899, 473.610
1190.381, 482.725
1190.863, 489.002
1191.345, 490.462
1191.827, 488.564
1192.309, 485.911
1192.791, 482.638
1193.273, 480.559
1193.755, 479.667
1194.238, 480.878
1194.720, 483.783
1195.202, 481.516
1195.684, 472.004
1196.166, 462.754
1196.648, 458.943
1197.130, 461.011
1197.612, 476.626
1198.094, 492.273
1198.577, 487.342
1199.059, 472.355
1199.541, 462.290
1200.023, 458.593
1200.505, 459.155
1200.987, 463.684
1201.469, 465.725
1201.951, 461.249
1202.434, 457.121
1202.916, 453.752
1203.398, 452.632
1203.880, 455.774
1204.362, 459.814
1204.844, 462.018
1205.326, 462.298
1205.808, 460.079
1206.291, 455.181
1206.773, 450.682
1207.255, 446.508
1207.737, 444.990
1208.219, 446.485
1208.701, 450.498
1209.183, 456.772
1209.665, 462.943
1210.147, 466.719
1210.630, 469.346
1211.112, 474.825
1211.594, 478.509
1212.076, 470.177
1212.558, 457.077
1213.040, 451.565
1213.522, 453.989
1214.004, 459.266
1214.486, 466.528
1214.969, 471.533
1215.451, 468.691
1215.933, 469.797
1216.415, 484.365
1216.897, 495.253
1217.379, 492.845
1217.861, 485.216
1218.343, 479.788
1218.826, 476.458
1219.308, 474.714
1219.790, 474.543
1220.272, 477.369
1220.754, 483.060
1221.236, 486.723
1221.718, 487.389
1222.200, 483.142
1222.682, 473.458
1223.165, 465.661
1223.647, 467.491
1224.129, 471.895
1224.611, 470.605
1225.093, 467.221
1225.575, 464.055
1226.057, 462.895
1226.539, 468.415
1227.021, 477.641
1227.504, 480.333
1227.986, 473.490
1228.468, 467.885
1228.950, 465.496
1229.432, 464.179
1229.914, 462.900
1230.396, 464.534
1230.878, 472.343
1231.361, 478.614
1231.843, 475.602
1232.325, 467.155
1232.807, 463.351
1233.289, 463.030
1233.771, 454.980
1234.253, 441.974
1234.735, 438.607
1235.218, 444.596
1235.700, 448.644
1236.182, 447.088
1236.664, 444.839
1237.146, 445.112
1237.628, 445.603
1238.110, 443.072
1238.592, 441.951
1239.074, 449.014
1239.557, 455.983
1240.039, 452.174
1240.521, 442.117
1241.003, 437.494
1241.485, 438.630
1241.967, 440.815
1242.449, 443.474
1242.931, 450.050
1243.413, 462.095
1243.896, 470.084
1244.378, 470.977
1244.860, 469.865
1245.342, 470.282
1245.824, 469.920
1246.306, 464.170
1246.788, 456.628
1247.270, 454.054
1247.753, 454.629
1248.235, 455.739
1248.717, 457.127
1249.199, 460.389
1249.681, 464.536
1250.163, 462.827
1250.645, 449.979
1251.127, 442.814
1251.609, 450.249
1252.092, 457.124
1252.574, 459.472
1253.056, 460.683
1253.538, 463.045
1254.020, 463.823
1254.502, 459.065
1254.984, 451.257
1255.466, 448.228
1255.948, 449.867
1256.431, 457.316
1256.913, 468.601
1257.395, 473.912
1257.877, 472.625
1258.359, 470.683
1258.841, 470.270
1259.323, 468.207
1259.805, 459.033
1260.288, 454.195
1260.770, 469.338
1261.252, 481.591
1261.734, 471.638
1262.216, 454.838
1262.698, 444.203
1263.180, 440.650
1263.662, 446.090
1264.145, 460.319
1264.627, 464.414
1265.109, 456.231
1265.591, 454.371
1266.073, 460.367
1266.555, 460.822
1267.037, 452.378
1267.519, 444.827
1268.001, 444.161
1268.484, 445.330
1268.966, 440.960
1269.448, 437.529
1269.930, 443.886
##END=



