##NAMES=Vayrynenite
##RRUFFID=R050243
##IDEAL CHEMISTRY=Mn^2+^Be(PO_4_)OH
##LOCALITY=Viitaniemi pegmatite, Erajarvi, Orivesi, Finland
##OWNER=RRUFF
##SOURCE=Marcus Origlieri
##DESCRIPTION=Pink massive with defined cleavage planes
##STATUS=The identification of this mineral has been confirmed by X-ray diffraction and chemical analysis
##URL=rruff.info/R050243
##MEASURED CHEMISTRY=(Mn^2+^_0.95_Fe^2+^_0.05_)_Σ=1_Be_1.00_(P_1.00_O_4_)((OH)_0.94_F_0.06_)_Σ=1_ ; Be not measured but estimated by difference and charge balance.
92.35352, 25.67101
92.83563, 27.99843
93.31775, 28.78585
93.79987, 27.42476
94.28198, 24.73223
94.76410, 22.30868
95.24622, 20.27122
95.72833, 18.65166
96.21045, 17.47658
96.69257, 16.75069
97.17468, 16.33276
97.65680, 16.25816
98.13892, 16.37920
98.62103, 16.62173
99.10315, 16.94507
99.58527, 17.29533
100.0674, 17.55153
100.5495, 17.50753
101.0316, 17.63966
101.5137, 18.07264
101.9958, 18.70953
102.4780, 19.42068
102.9601, 20.12847
103.4422, 20.84520
103.9243, 21.37437
104.4064, 21.62460
104.8885, 21.83282
105.3707, 22.13427
105.8528, 22.52489
106.3349, 22.88286
106.8170, 23.07162
107.2991, 23.06407
107.7813, 23.04827
108.2634, 23.03863
108.7455, 23.02365
109.2276, 22.97472
109.7097, 22.86871
110.1918, 22.77732
110.6740, 22.74061
111.1561, 22.75163
111.6382, 22.90841
112.1203, 23.30502
112.6024, 23.91883
113.0845, 24.56396
113.5666, 25.18918
114.0488, 25.85347
114.5309, 26.59987
115.0130, 27.43388
115.4951, 28.31377
115.9772, 29.15195
116.4593, 29.84010
116.9415, 30.82024
117.4236, 32.12041
117.9057, 33.69258
118.3878, 35.51998
118.8699, 37.58688
119.3520, 39.91099
119.8342, 42.52577
120.3163, 46.20155
120.7984, 49.26715
121.2805, 52.00275
121.7626, 53.99688
122.2447, 54.65403
122.7269, 53.59374
123.2090, 50.95073
123.6911, 47.69205
124.1732, 43.49579
124.6553, 39.17836
125.1374, 34.82664
125.6196, 30.53820
126.1017, 26.61702
126.5838, 23.28964
127.0659, 20.62767
127.5480, 18.39028
128.0302, 16.67483
128.5123, 15.34486
128.9944, 14.36467
129.4765, 13.77563
129.9586, 13.28824
130.4407, 12.66206
130.9229, 11.96360
131.4050, 11.32873
131.8871, 10.80772
132.3692, 10.38955
132.8513, 10.04992
133.3334, 9.801025
133.8155, 9.624922
134.2977, 9.495616
134.7798, 9.417044
135.2619, 9.401094
135.7440, 9.483520
136.2261, 9.680484
136.7082, 9.819619
137.1904, 9.846735
137.6725, 9.857906
138.1546, 9.885238
138.6367, 9.932463
139.1188, 9.985738
139.6009, 10.01770
140.0831, 9.974520
140.5652, 10.05628
141.0473, 10.35918
141.5294, 10.69998
142.0115, 10.96133
142.4936, 11.10987
142.9758, 11.17355
143.4579, 11.19123
143.9400, 11.09628
144.4221, 11.07424
144.9042, 11.17382
145.3863, 11.34048
145.8685, 11.51346
146.3506, 11.67448
146.8327, 11.81763
147.3148, 11.91374
147.7969, 11.92651
148.2790, 11.99110
148.7612, 12.18644
149.2433, 12.48367
149.7254, 12.77368
150.2075, 12.98387
150.6896, 13.19599
151.1717, 13.54385
151.6539, 14.08201
152.1360, 14.62926
152.6181, 14.98075
153.1002, 15.11278
153.5823, 15.33399
154.0644, 15.88266
154.5466, 16.52979
155.0287, 17.08454
155.5108, 17.47431
155.9929, 17.81588
156.4750, 18.27458
156.9571, 18.78649
157.4393, 19.58881
157.9214, 20.71585
158.4035, 22.11635
158.8856, 23.78156
159.3677, 25.72578
159.8498, 27.87426
160.3320, 29.97983
160.8141, 32.62120
161.2962, 34.45470
161.7783, 35.08928
162.2604, 34.85116
162.7425, 34.15929
163.2247, 33.25820
163.7068, 32.15185
164.1889, 30.92212
164.6710, 29.31496
165.1531, 27.85892
165.6352, 26.66925
166.1174, 25.74351
166.5995, 25.07703
167.0816, 24.67015
167.5637, 24.53584
168.0458, 24.56516
168.5279, 24.72094
169.0101, 25.03802
169.4922, 25.57838
169.9743, 26.32586
170.4564, 27.16339
170.9385, 28.01519
171.4206, 28.88128
171.9028, 29.75663
172.3849, 30.73842
172.8670, 31.67267
173.3491, 32.36633
173.8312, 32.78164
174.3133, 33.15554
174.7955, 33.65588
175.2776, 34.26203
175.7597, 34.96342
176.2418, 35.67346
176.7239, 36.48880
177.2060, 37.56000
177.6882, 38.82217
178.1703, 40.53413
178.6524, 42.70886
179.1345, 45.37276
179.6166, 48.64117
180.0987, 52.88717
180.5809, 57.91943
181.0630, 62.64444
181.5451, 67.88171
182.0272, 71.63598
182.5093, 73.59441
182.9914, 73.61960
183.4736, 71.39070
183.9557, 66.14494
184.4378, 57.76135
184.9199, 50.07787
185.4020, 43.02514
185.8841, 36.82581
186.3663, 31.71815
186.8484, 27.60455
187.3305, 24.24795
187.8126, 21.43059
188.2947, 19.17359
188.7768, 17.40633
189.2590, 16.27931
189.7411, 15.43838
190.2232, 14.79883
190.7053, 14.32115
191.1874, 13.95865
191.6695, 13.67192
192.1517, 13.48146
192.6338, 13.29293
193.1159, 13.08595
193.5980, 12.89552
194.0801, 12.74135
194.5622, 12.62713
195.0444, 12.54762
195.5265, 12.50249
196.0086, 12.50439
196.4907, 12.49476
196.9728, 12.42728
197.4549, 12.37401
197.9371, 12.43315
198.4192, 12.62335
198.9013, 12.80988
199.3834, 12.80150
199.8655, 12.59495
200.3476, 12.48257
200.8298, 12.56003
201.3119, 12.74165
201.7940, 12.91886
202.2761, 13.07714
202.7582, 13.22379
203.2403, 13.34854
203.7225, 13.45910
204.2046, 13.59929
204.6867, 13.78157
205.1688, 14.00549
205.6509, 14.26711
206.1330, 14.55897
206.6152, 14.91056
207.0973, 15.32896
207.5794, 15.81502
208.0615, 16.37650
208.5436, 17.04540
209.0257, 17.80263
209.5079, 18.54214
209.9900, 19.16889
210.4721, 19.90963
210.9542, 20.96215
211.4363, 22.23160
211.9184, 23.44993
212.4006, 24.46333
212.8827, 25.27206
213.3648, 25.84434
213.8469, 26.06262
214.3290, 26.12948
214.8111, 26.05317
215.2933, 25.88889
215.7754, 25.74864
216.2575, 25.72118
216.7396, 25.80976
217.2217, 25.94891
217.7038, 26.13205
218.1859, 26.37897
218.6681, 26.77718
219.1502, 27.26096
219.6323, 27.66944
220.1144, 27.83911
220.5965, 27.73539
221.0786, 27.77698
221.5608, 27.96682
222.0429, 28.28939
222.5250, 28.83698
223.0071, 29.53588
223.4892, 30.18283
223.9713, 30.57499
224.4535, 30.65402
224.9356, 31.06893
225.4177, 31.87464
225.8998, 32.88971
226.3819, 33.97959
226.8640, 35.19189
227.3462, 36.66707
227.8283, 38.49667
228.3104, 40.68676
228.7925, 43.54501
229.2746, 47.37577
229.7567, 51.45989
230.2389, 56.05543
230.7210, 60.79573
231.2031, 64.46949
231.6852, 66.28282
232.1673, 66.03527
232.6494, 63.28114
233.1316, 56.55634
233.6137, 48.86837
234.0958, 41.35308
234.5779, 34.23494
235.0600, 28.09603
235.5421, 23.37098
236.0243, 20.14840
236.5064, 17.59670
236.9885, 16.00064
237.4706, 14.83635
237.9527, 13.79048
238.4348, 12.86332
238.9170, 12.16084
239.3991, 11.82459
239.8812, 11.77006
240.3633, 11.63253
240.8454, 11.33823
241.3275, 11.01172
241.8097, 10.72693
242.2918, 10.48375
242.7739, 10.31538
243.2560, 10.26821
243.7381, 10.30255
244.2202, 10.33889
244.7024, 10.38429
245.1845, 10.41057
245.6666, 10.39078
246.1487, 10.32452
246.6308, 10.23033
247.1129, 10.07385
247.5951, 9.916838
248.0772, 9.837604
248.5593, 9.859946
249.0414, 9.927927
249.5235, 9.988081
250.0056, 10.03879
250.4878, 10.10520
250.9699, 10.21810
251.4520, 10.33762
251.9341, 10.41964
252.4162, 10.45254
252.8983, 10.48449
253.3805, 10.57133
253.8626, 10.71918
254.3447, 10.86748
254.8268, 11.01943
255.3089, 11.15267
255.7910, 11.22920
256.2732, 11.24608
256.7553, 11.27675
257.2374, 11.41832
257.7195, 11.69116
258.2016, 11.92785
258.6837, 12.06223
259.1659, 12.18007
259.6480, 12.28619
260.1301, 12.39752
260.6122, 12.58933
261.0943, 13.00091
261.5764, 13.68781
262.0586, 14.20624
262.5407, 14.47982
263.0228, 14.60719
263.5049, 14.57992
263.9870, 14.42296
264.4691, 14.20775
264.9513, 14.00886
265.4334, 13.83748
265.9155, 13.58305
266.3976, 13.18617
266.8797, 12.75164
267.3618, 12.27884
267.8440, 11.79378
268.3261, 11.34798
268.8082, 10.98554
269.2903, 10.70738
269.7724, 10.48631
270.2545, 10.38524
270.7367, 10.28510
271.2188, 10.13331
271.7009, 9.955974
272.1830, 9.814548
272.6651, 9.756816
273.1472, 9.777588
273.6294, 9.786597
274.1115, 9.765551
274.5936, 9.750690
275.0757, 9.737829
275.5578, 9.737852
276.0399, 9.772068
276.5221, 9.856981
277.0042, 9.980407
277.4863, 10.06845
277.9684, 10.05546
278.4505, 10.07762
278.9326, 10.14845
279.4148, 10.26518
279.8969, 10.44303
280.3790, 10.69364
280.8611, 10.97107
281.3432, 11.12590
281.8253, 10.96682
282.3075, 10.91207
282.7896, 11.05427
283.2717, 11.28210
283.7538, 11.50258
284.2359, 11.67645
284.7180, 11.77867
285.2002, 11.75089
285.6823, 11.45576
286.1644, 11.21204
286.6465, 11.08048
287.1286, 10.96481
287.6107, 10.77733
288.0929, 10.49527
288.5750, 10.15893
289.0571, 9.816413
289.5392, 9.416814
290.0213, 9.147585
290.5034, 9.081601
290.9856, 9.086226
291.4677, 9.088233
291.9498, 9.067309
292.4319, 9.014299
292.9140, 8.912101
293.3961, 8.737974
293.8783, 8.618359
294.3604, 8.566499
294.8425, 8.549392
295.3246, 8.554091
295.8067, 8.577386
296.2888, 8.622726
296.7710, 8.701694
297.2531, 8.818088
297.7352, 8.857574
298.2173, 8.768836
298.6994, 8.669522
299.1815, 8.587136
299.6637, 8.533868
300.1458, 8.530719
300.6279, 8.596067
301.1100, 8.722013
301.5921, 8.846599
302.0742, 9.004169
302.5564, 9.122544
303.0385, 9.131749
303.5206, 9.093241
304.0027, 9.120825
304.4848, 9.273391
304.9669, 9.514691
305.4491, 9.740005
305.9312, 9.997568
306.4133, 10.17724
306.8954, 10.19054
307.3775, 10.14237
307.8596, 10.16577
308.3418, 10.30606
308.8239, 10.52172
309.3060, 10.74319
309.7881, 10.97990
310.2702, 11.20266
310.7523, 11.38420
311.2345, 11.56662
311.7166, 11.81137
312.1987, 12.12308
312.6808, 12.42067
313.1629, 12.60305
313.6451, 12.63098
314.1272, 12.69163
314.6093, 12.75446
315.0914, 12.87065
315.5735, 13.07928
316.0556, 13.37890
316.5378, 13.74508
317.0199, 14.17445
317.5020, 14.66702
317.9841, 15.10821
318.4662, 15.45314
318.9483, 15.79823
319.4305, 16.19198
319.9126, 16.62291
320.3947, 17.05443
320.8768, 17.46329
321.3589, 17.85695
321.8410, 18.27473
322.3232, 18.71390
322.8053, 19.17917
323.2874, 19.66432
323.7695, 20.17664
324.2516, 20.73077
324.7337, 21.32994
325.2159, 21.96472
325.6980, 22.60682
326.1801, 23.23861
326.6622, 23.90623
327.1443, 24.73046
327.6264, 25.53625
328.1086, 26.12632
328.5907, 26.45579
329.0728, 26.65193
329.5549, 26.87661
330.0370, 27.15995
330.5191, 27.36290
331.0013, 27.40114
331.4834, 27.42621
331.9655, 27.55722
332.4476, 27.78907
332.9297, 28.01975
333.4118, 28.15060
333.8940, 28.17196
334.3761, 28.31817
334.8582, 28.73166
335.3403, 29.09922
335.8224, 29.30991
336.3045, 29.37573
336.7867, 29.33322
337.2688, 29.19311
337.7509, 28.98222
338.2330, 28.83042
338.7151, 28.75445
339.1972, 28.71399
339.6793, 28.73867
340.1614, 28.78387
340.6436, 28.77847
341.1257, 28.69651
341.6078, 28.59603
342.0899, 28.58565
342.5720, 28.67759
343.0541, 28.85818
343.5363, 29.18851
344.0184, 29.56363
344.5005, 29.85558
344.9826, 30.06907
345.4647, 30.36688
345.9468, 30.95578
346.4290, 31.94153
346.9111, 32.72056
347.3932, 33.14400
347.8753, 33.54176
348.3574, 34.14392
348.8395, 34.86141
349.3217, 35.43811
349.8038, 35.68488
350.2859, 35.62026
350.7680, 35.43596
351.2501, 35.20868
351.7322, 34.76437
352.2144, 34.05145
352.6965, 33.10712
353.1786, 31.94186
353.6607, 30.55989
354.1428, 29.06354
354.6249, 27.67771
355.1071, 26.42834
355.5892, 25.27494
356.0713, 24.12297
356.5534, 23.11735
357.0355, 22.41113
357.5176, 22.01056
357.9998, 21.75979
358.4819, 21.45910
358.9640, 21.05783
359.4461, 20.82279
359.9282, 20.87676
360.4103, 20.97032
360.8925, 20.97136
361.3746, 20.91996
361.8567, 20.94930
362.3388, 21.17351
362.8209, 21.56586
363.3030, 21.87310
363.7852, 21.94698
364.2673, 22.12677
364.7494, 22.55479
365.2315, 23.10055
365.7136, 23.58759
366.1957, 23.93596
366.6779, 24.23778
367.1600, 24.68846
367.6421, 25.35419
368.1242, 26.00236
368.6063, 26.53687
369.0884, 27.08611
369.5706, 27.72296
370.0527, 28.46388
370.5348, 29.29432
371.0169, 30.22732
371.4990, 31.26486
371.9811, 32.29179
372.4633, 33.21149
372.9454, 34.22758
373.4275, 35.50895
373.9096, 36.95978
374.3917, 38.37883
374.8738, 39.66478
375.3560, 40.81799
375.8381, 41.82642
376.3202, 42.70958
376.8023, 43.40078
377.2844, 43.98631
377.7665, 44.33279
378.2487, 44.27974
378.7308, 43.78213
379.2129, 42.87704
379.6950, 41.53341
380.1771, 39.73783
380.6592, 37.81477
381.1414, 35.70347
381.6235, 33.60494
382.1056, 31.66186
382.5877, 29.87567
383.0698, 28.23417
383.5519, 26.71098
384.0341, 25.31271
384.5162, 24.07988
384.9983, 23.04571
385.4804, 22.08978
385.9625, 21.11199
386.4446, 20.14158
386.9268, 19.27515
387.4089, 18.54087
387.8910, 17.91836
388.3731, 17.41431
388.8552, 17.02663
389.3373, 16.66920
389.8195, 16.28120
390.3016, 15.92129
390.7837, 15.69374
391.2658, 15.63562
391.7479, 15.59764
392.2300, 15.51254
392.7122, 15.39567
393.1943, 15.26096
393.6764, 15.09699
394.1585, 14.97880
394.6406, 15.01256
395.1227, 15.20030
395.6049, 15.40582
396.0870, 15.64446
396.5691, 15.87064
397.0512, 15.99668
397.5333, 16.04357
398.0154, 16.18420
398.4976, 16.55937
398.9797, 17.12275
399.4618, 17.58887
399.9439, 17.98202
400.4260, 18.27064
400.9081, 18.42704
401.3903, 18.47794
401.8724, 18.47271
402.3545, 18.43040
402.8366, 18.31197
403.3187, 18.05389
403.8008, 17.63768
404.2830, 17.08853
404.7651, 16.29071
405.2472, 15.45425
405.7293, 14.70925
406.2114, 14.07214
406.6935, 13.50379
407.1757, 12.97570
407.6578, 12.49021
408.1399, 12.02361
408.6220, 11.48604
409.1041, 11.07163
409.5862, 10.91497
410.0684, 10.87560
410.5505, 10.74361
411.0326, 10.43081
411.5147, 10.06019
411.9968, 9.888779
412.4789, 10.03540
412.9611, 10.12182
413.4432, 10.11950
413.9253, 10.06854
414.4074, 9.953266
414.8895, 9.799180
415.3716, 9.688223
415.8538, 9.700233
416.3359, 9.828403
416.8180, 9.963171
417.3001, 10.13941
417.7822, 10.26891
418.2643, 10.31934
418.7465, 10.31208
419.2286, 10.26488
419.7107, 10.17476
420.1928, 10.08545
420.6749, 10.06329
421.1570, 10.11337
421.6392, 10.19677
422.1213, 10.35476
422.6034, 10.49999
423.0855, 10.56264
423.5676, 10.54346
424.0497, 10.49052
424.5319, 10.40762
425.0140, 10.31485
425.4961, 10.25694
425.9782, 10.22469
426.4603, 10.26875
426.9424, 10.52499
427.4246, 10.87318
427.9067, 11.05614
428.3888, 10.91525
428.8709, 10.74048
429.3530, 10.76494
429.8351, 10.95743
430.3173, 11.18377
430.7994, 11.41113
431.2815, 11.62154
431.7636, 11.78537
432.2457, 11.90775
432.7278, 11.98300
433.2100, 11.88490
433.6921, 11.80976
434.1742, 12.01928
434.6563, 12.51775
435.1384, 13.03946
435.6205, 13.36267
436.1027, 13.50276
436.5848, 13.74130
437.0669, 14.07018
437.5490, 14.48738
438.0311, 14.96722
438.5132, 15.54170
438.9954, 16.28665
439.4775, 17.22675
439.9596, 18.26788
440.4417, 19.22511
440.9238, 19.96273
441.4059, 20.95074
441.8881, 22.34054
442.3702, 23.81293
442.8523, 25.25056
443.3344, 26.60516
443.8165, 27.83158
444.2986, 28.87041
444.7808, 29.75994
445.2629, 30.73461
445.7450, 31.91456
446.2271, 32.99696
446.7092, 33.79745
447.1913, 34.55190
447.6735, 35.47032
448.1556, 36.61007
448.6377, 37.91691
449.1198, 39.34246
449.6019, 40.88433
450.0840, 42.54163
450.5662, 44.34631
451.0483, 46.25175
451.5304, 48.20260
452.0125, 50.21905
452.4946, 52.36367
452.9767, 54.65887
453.4589, 57.11492
453.9410, 59.74159
454.4231, 62.52380
454.9052, 65.54893
455.3873, 68.89403
455.8694, 72.48824
456.3516, 76.26018
456.8337, 80.24097
457.3158, 84.10105
457.7979, 87.84037
458.2800, 91.29559
458.7621, 94.33487
459.2443, 96.96501
459.7264, 98.64559
460.2085, 98.94300
460.6906, 97.77486
461.1727, 95.59368
461.6548, 92.34673
462.1370, 88.17917
462.6191, 82.79895
463.1012, 76.57979
463.5833, 70.15754
464.0654, 63.70131
464.5475, 57.42455
465.0297, 51.64421
465.5118, 46.35100
465.9939, 41.71003
466.4760, 37.86761
466.9581, 34.49194
467.4402, 31.42265
467.9224, 28.65051
468.4045, 26.28743
468.8866, 24.40146
469.3687, 22.93232
469.8508, 21.56569
470.3329, 20.28952
470.8151, 19.14230
471.2972, 18.10820
471.7793, 17.19675
472.2614, 16.41501
472.7435, 15.76368
473.2256, 15.22275
473.7078, 14.80883
474.1899, 14.51651
474.6720, 14.16438
475.1541, 13.64638
475.6362, 13.24069
476.1183, 13.16177
476.6005, 13.24449
477.0826, 13.23343
477.5647, 13.02619
478.0468, 12.75165
478.5289, 12.52791
479.0110, 12.35541
479.4932, 12.21992
479.9753, 12.09715
480.4574, 12.04709
480.9395, 12.17415
481.4216, 12.45912
481.9037, 12.73304
482.3859, 12.87389
482.8680, 13.03759
483.3501, 13.38880
483.8322, 13.91520
484.3143, 14.48411
484.7964, 15.00830
485.2786, 15.54990
485.7607, 16.31778
486.2428, 17.46161
486.7249, 18.54761
487.2070, 19.50229
487.6891, 20.39594
488.1713, 21.29576
488.6534, 22.20854
489.1355, 23.09506
489.6176, 23.91839
490.0997, 24.68254
490.5818, 25.36087
491.0640, 25.78195
491.5461, 26.31097
492.0282, 27.03114
492.5103, 27.87711
492.9924, 28.74773
493.4745, 29.61839
493.9567, 30.57581
494.4388, 31.77828
494.9209, 33.24898
495.4030, 34.63740
495.8851, 35.75517
496.3672, 37.01007
496.8494, 38.65503
497.3315, 40.55450
497.8136, 42.42508
498.2957, 44.05175
498.7778, 45.77546
499.2599, 48.02113
499.7421, 50.78246
500.2242, 53.84777
500.7063, 57.28389
501.1884, 60.87798
501.6705, 64.37114
502.1526, 67.78114
502.6348, 71.16436
503.1169, 75.08440
503.5990, 78.62697
504.0811, 81.15346
504.5632, 82.56800
505.0453, 82.73579
505.5274, 81.60237
506.0096, 79.13646
506.4917, 75.17464
506.9738, 68.67532
507.4559, 62.40487
507.9380, 56.29511
508.4201, 50.58509
508.9023, 45.39015
509.3844, 40.77267
509.8665, 36.76728
510.3486, 33.42448
510.8307, 30.71750
511.3128, 28.54649
511.7950, 27.19388
512.2771, 25.99553
512.7592, 24.88287
513.2413, 23.81859
513.7234, 22.82273
514.2056, 21.87871
514.6877, 20.87806
515.1698, 19.62152
515.6519, 18.16357
516.1340, 16.96543
516.6161, 16.11974
517.0983, 15.36508
517.5804, 14.50288
518.0625, 13.65207
518.5446, 12.99580
519.0267, 12.61136
519.5089, 12.33698
519.9910, 12.08095
520.4731, 11.84279
520.9552, 11.62352
521.4373, 11.42332
521.9194, 11.23394
522.4016, 11.03980
522.8837, 10.84207
523.3658, 10.68833
523.8479, 10.54630
524.3300, 10.48130
524.8121, 10.57323
525.2943, 10.75136
525.7764, 10.89043
526.2585, 10.94472
526.7406, 10.96931
527.2227, 11.04990
527.7048, 11.20609
528.1870, 11.34810
528.6691, 11.42493
529.1512, 11.54015
529.6333, 11.73262
530.1154, 11.99254
530.5975, 12.30228
531.0797, 12.65699
531.5618, 13.03609
532.0439, 13.39571
532.5260, 13.72554
533.0081, 14.12678
533.4902, 14.70881
533.9724, 15.25984
534.4545, 15.67979
534.9366, 15.95807
535.4187, 16.06185
535.9008, 16.00391
536.3829, 15.74698
536.8651, 15.17415
537.3472, 14.32483
537.8293, 13.49611
538.3114, 12.80968
538.7935, 12.16508
539.2756, 11.37552
539.7578, 10.36405
540.2399, 9.572766
540.7220, 9.188441
541.2041, 8.909707
541.6862, 8.518845
542.1683, 8.056066
542.6505, 7.685712
543.1326, 7.498859
543.6147, 7.429233
544.0968, 7.311054
544.5789, 7.083440
545.0610, 6.934074
545.5432, 6.910905
546.0253, 6.918916
546.5074, 6.919678
546.9895, 6.906901
547.4716, 6.876873
547.9537, 6.817811
548.4359, 6.756212
548.9180, 6.749854
549.4001, 6.802143
549.8822, 6.889740
550.3643, 7.044744
550.8464, 7.194739
551.3286, 7.260276
551.8107, 7.247714
552.2928, 7.239890
552.7749, 7.275062
553.2570, 7.324949
553.7391, 7.353123
554.2213, 7.364478
554.7034, 7.395195
555.1855, 7.465694
555.6676, 7.556060
556.1497, 7.627268
556.6318, 7.672441
557.1140, 7.711761
557.5961, 7.699395
558.0782, 7.721624
558.5603, 7.839423
559.0424, 8.040055
559.5245, 8.292380
560.0067, 8.585818
560.4888, 8.879336
560.9709, 9.049910
561.4530, 9.019856
561.9351, 9.084825
562.4172, 9.402180
562.8994, 9.717402
563.3815, 9.857160
563.8636, 9.875685
564.3457, 9.960707
564.8278, 10.22378
565.3099, 10.58406
565.7921, 10.95723
566.2742, 11.33886
566.7563, 11.61966
567.2384, 11.74260
567.7205, 11.78805
568.2026, 11.84212
568.6848, 11.90333
569.1669, 11.99657
569.6490, 12.19349
570.1311, 12.36183
570.6132, 12.40532
571.0953, 12.34912
571.5775, 12.24766
572.0596, 12.12259
572.5417, 12.01342
573.0238, 11.99439
573.5059, 12.09765
573.9880, 12.19364
574.4702, 12.19603
574.9523, 12.28017
575.4344, 12.50054
575.9165, 12.85621
576.3986, 13.34985
576.8807, 13.99137
577.3629, 14.70660
577.8450, 15.38510
578.3271, 16.02795
578.8092, 16.73980
579.2913, 17.58634
579.7734, 18.41513
580.2556, 19.07066
580.7377, 19.61465
581.2198, 20.21182
581.7019, 20.91252
582.1840, 21.64371
582.6661, 22.34018
583.1483, 23.04023
583.6304, 23.85389
584.1125, 24.80833
584.5946, 25.75574
585.0767, 26.50780
585.5588, 27.04388
586.0409, 27.94847
586.5230, 29.51539
587.0051, 31.08410
587.4872, 32.45388
587.9694, 33.78526
588.4515, 35.24122
588.9336, 36.86945
589.4157, 38.62692
589.8978, 40.47152
590.3799, 42.40224
590.8621, 44.45697
591.3442, 46.60394
591.8263, 48.98322
592.3084, 51.87989
592.7905, 54.92191
593.2726, 57.75736
593.7548, 60.37821
594.2369, 62.59259
594.7190, 64.45450
595.2011, 65.77081
595.6832, 66.22331
596.1653, 65.81704
596.6475, 64.73653
597.1296, 63.01638
597.6117, 60.82732
598.0938, 58.64607
598.5759, 56.33749
599.0580, 54.27259
599.5402, 52.56260
600.0223, 51.00830
600.5044, 49.47414
600.9865, 47.98418
601.4686, 46.61226
601.9507, 45.39729
602.4329, 44.36748
602.9150, 43.58550
603.3971, 43.04885
603.8792, 42.76277
604.3613, 42.76078
604.8434, 42.98817
605.3256, 43.38733
605.8077, 43.95816
606.2898, 44.69792
606.7719, 45.53468
607.2540, 46.63309
607.7361, 48.18264
608.2183, 50.09681
608.7004, 52.13314
609.1825, 54.22217
609.6646, 56.45744
610.1467, 58.88300
610.6288, 61.48332
611.1110, 64.66612
611.5931, 68.69843
612.0752, 72.93462
612.5573, 77.35571
613.0394, 81.82887
613.5215, 86.44802
614.0037, 91.11342
614.4858, 95.20467
614.9679, 98.29934
615.4500, 100.3654
615.9321, 101.3094
616.4142, 101.2375
616.8964, 99.68739
617.3785, 96.06278
617.8606, 91.03722
618.3427, 85.29930
618.8248, 78.80769
619.3069, 72.27570
619.7891, 65.60594
620.2712, 59.25029
620.7533, 53.67188
621.2354, 48.80733
621.7175, 44.24513
622.1996, 39.78868
622.6818, 35.61894
623.1639, 32.12666
623.6460, 29.45193
624.1281, 27.06646
624.6102, 24.93970
625.0923, 23.09230
625.5745, 21.63281
626.0566, 20.44083
626.5387, 19.32197
627.0208, 18.20596
627.5029, 17.17163
627.9850, 16.28743
628.4672, 15.55971
628.9493, 15.06247
629.4314, 14.86751
629.9135, 14.66362
630.3956, 14.20834
630.8777, 13.61300
631.3599, 13.18654
631.8420, 12.96356
632.3241, 12.83418
632.8062, 12.81600
633.2883, 12.84274
633.7704, 12.84134
634.2526, 12.81537
634.7347, 12.82291
635.2168, 12.90586
635.6989, 13.02872
636.1810, 13.08623
636.6631, 13.05205
637.1453, 13.01916
637.6274, 13.02748
638.1095, 13.00745
638.5916, 12.91426
639.0737, 12.76643
639.5558, 12.61749
640.0380, 12.50925
640.5201, 12.35726
641.0022, 12.03960
641.4843, 11.60239
641.9664, 11.20005
642.4485, 10.86032
642.9307, 10.56341
643.4128, 10.30791
643.8949, 10.08496
644.3770, 9.812392
644.8591, 9.449810
645.3412, 9.098514
645.8234, 8.745350
646.3055, 8.430983
646.7876, 8.209991
647.2697, 8.069433
647.7518, 7.943265
648.2339, 7.784858
648.7161, 7.610871
649.1982, 7.461870
649.6803, 7.339722
650.1624, 7.235982
650.6445, 7.161063
651.1266, 7.089372
651.6088, 7.008512
652.0909, 6.914750
652.5730, 6.790279
653.0551, 6.565898
653.5372, 6.381790
654.0193, 6.356515
654.5015, 6.416898
654.9836, 6.435888
655.4657, 6.387259
655.9478, 6.321648
656.4299, 6.285821
656.9120, 6.276647
657.3942, 6.263669
657.8763, 6.251760
658.3584, 6.227457
658.8405, 6.155482
659.3226, 6.098096
659.8047, 6.124882
660.2869, 6.217110
660.7690, 6.277552
661.2511, 6.240996
661.7332, 6.159637
662.2153, 6.086278
662.6974, 6.025802
663.1796, 6.017000
663.6617, 6.081986
664.1438, 6.146219
664.6259, 6.122970
665.1080, 6.010851
665.5901, 5.948201
666.0723, 5.966084
666.5544, 5.987987
667.0365, 6.010819
667.5186, 6.019629
668.0007, 5.972952
668.4828, 5.886375
668.9650, 5.852313
669.4471, 5.965369
669.9292, 6.159542
670.4113, 6.243670
670.8934, 6.208458
671.3755, 6.139342
671.8577, 6.024339
672.3398, 5.928557
672.8219, 5.944972
673.3040, 6.050996
673.7861, 6.120668
674.2682, 6.134526
674.7504, 6.108647
675.2325, 5.994918
675.7146, 5.869682
676.1967, 5.866589
676.6788, 5.996100
677.1609, 6.136467
677.6431, 6.179577
678.1252, 6.138402
678.6073, 6.075051
679.0894, 5.955298
679.5715, 5.899556
680.0536, 5.985301
680.5358, 6.100247
681.0179, 6.176258
681.5000, 6.215749
681.9821, 6.245666
682.4642, 6.272758
682.9464, 6.296874
683.4285, 6.320971
683.9106, 6.341687
684.3927, 6.345586
684.8748, 6.330840
685.3569, 6.322901
685.8391, 6.343370
686.3212, 6.391423
686.8033, 6.460505
687.2854, 6.570339
687.7675, 6.669814
688.2496, 6.764195
688.7318, 6.838896
689.2139, 6.871933
689.6960, 6.874946
690.1781, 6.881026
690.6602, 6.892195
691.1423, 6.938780
691.6245, 7.103202
692.1066, 7.340137
692.5887, 7.458888
693.0708, 7.413649
693.5529, 7.341722
694.0350, 7.348044
694.5172, 7.424544
694.9993, 7.521675
695.4814, 7.691803
695.9635, 7.808590
696.4456, 7.807830
696.9277, 7.799600
697.4099, 7.863320
697.8920, 7.988235
698.3741, 8.130888
698.8562, 8.278832
699.3383, 8.398940
699.8204, 8.398976
700.3026, 8.307489
700.7847, 8.370112
701.2668, 8.658518
701.7489, 8.925126
702.2310, 8.981003
702.7131, 8.885072
703.1953, 8.850187
703.6774, 8.864395
704.1595, 8.951965
704.6416, 9.257613
705.1237, 9.514994
705.6058, 9.459769
706.0880, 9.204657
706.5701, 9.036170
707.0522, 9.090328
707.5343, 9.246998
708.0164, 9.346096
708.4985, 9.390521
708.9807, 9.423921
709.4628, 9.450391
709.9449, 9.457062
710.4270, 9.398115
710.9091, 9.336384
711.3912, 9.402010
711.8734, 9.612570
712.3555, 9.870687
712.8376, 10.21364
713.3197, 10.54671
713.8018, 10.78982
714.2839, 10.97705
714.7661, 11.17663
715.2482, 11.41528
715.7303, 11.68303
716.2124, 11.96553
716.6945, 12.26456
717.1766, 12.60111
717.6588, 12.96109
718.1409, 13.40592
718.6230, 14.01039
719.1051, 14.67021
719.5872, 15.23735
720.0693, 15.71145
720.5515, 16.19366
721.0336, 16.68310
721.5157, 17.20862
721.9978, 17.78414
722.4799, 18.40613
722.9620, 19.06624
723.4442, 19.76462
723.9263, 20.50500
724.4084, 21.29729
724.8905, 22.14100
725.3726, 23.07871
725.8547, 24.16940
726.3369, 25.07848
726.8190, 25.55582
727.3011, 26.01146
727.7832, 26.82512
728.2653, 27.94710
728.7474, 29.14975
729.2296, 30.57147
729.7117, 31.87355
730.1938, 32.81468
730.6759, 33.60414
731.1580, 34.45634
731.6401, 35.42263
732.1223, 36.53194
732.6044, 37.83077
733.0865, 39.19516
733.5686, 40.31213
734.0507, 41.15999
734.5328, 41.91387
735.0150, 42.60332
735.4971, 43.18659
735.9792, 43.66100
736.4613, 44.00006
736.9434, 44.15364
737.4255, 44.13877
737.9077, 43.87640
738.3898, 43.26661
738.8719, 42.45745
739.3540, 41.57275
739.8361, 40.59954
740.3182, 39.43606
740.8004, 38.03344
741.2825, 36.53231
741.7646, 35.13728
742.2467, 33.84422
742.7288, 32.51584
743.2109, 31.12647
743.6931, 29.77423
744.1752, 28.48825
744.6573, 27.27243
745.1394, 26.13276
745.6215, 25.06915
746.1036, 24.07329
746.5858, 23.16313
747.0679, 22.30567
747.5500, 21.45681
748.0321, 20.66581
748.5142, 20.01652
748.9963, 19.51513
749.4785, 19.07536
749.9606, 18.61583
750.4427, 18.15848
750.9248, 17.78238
751.4069, 17.49170
751.8890, 17.25715
752.3712, 17.10416
752.8533, 16.94890
753.3354, 16.70871
753.8175, 16.39762
754.2996, 16.10367
754.7817, 15.75572
755.2639, 15.52652
755.7460, 15.54619
756.2281, 15.63166
756.7102, 15.62526
757.1923, 15.54028
757.6744, 15.46569
758.1566, 15.44444
758.6387, 15.46463
759.1208, 15.53133
759.6029, 15.63350
760.0850, 15.65683
760.5671, 15.56828
761.0493, 15.55620
761.5314, 15.74850
762.0135, 16.04400
762.4956, 16.25023
762.9777, 16.35086
763.4598, 16.41383
763.9420, 16.41002
764.4241, 16.40244
764.9062, 16.41819
765.3883, 16.44514
765.8704, 16.46684
766.3525, 16.48000
766.8347, 16.49167
767.3168, 16.51665
767.7989, 16.53689
768.2810, 16.55799
768.7631, 16.56137
769.2452, 16.36949
769.7274, 15.91117
770.2095, 15.41163
770.6916, 15.09564
771.1737, 14.93002
771.6558, 14.64662
772.1379, 14.09009
772.6201, 13.64431
773.1022, 13.39605
773.5843, 13.20067
774.0664, 12.98670
774.5485, 12.75248
775.0306, 12.49486
775.5128, 12.19275
775.9949, 11.96736
776.4770, 12.01676
776.9591, 12.16618
777.4412, 12.04374
777.9233, 11.68015
778.4055, 11.45346
778.8876, 11.54459
779.3697, 11.79031
779.8518, 11.93567
780.3339, 11.96410
780.8160, 12.03871
781.2982, 12.18793
781.7803, 12.33645
782.2624, 12.46832
782.7445, 12.58652
783.2266, 12.67698
783.7087, 12.74719
784.1909, 12.85622
784.6730, 13.06341
785.1551, 13.27346
785.6372, 13.44259
786.1193, 13.56739
786.6014, 13.59414
787.0836, 13.55190
787.5657, 13.60463
788.0478, 13.87318
788.5299, 14.27293
789.0120, 14.62357
789.4941, 14.92511
789.9763, 15.17121
790.4584, 15.34213
790.9405, 15.50030
791.4226, 15.64856
791.9047, 15.82260
792.3868, 16.09556
792.8690, 16.47998
793.3511, 16.90467
793.8332, 17.51925
794.3153, 18.00288
794.7974, 18.07491
795.2795, 17.95868
795.7617, 18.03526
796.2438, 18.34859
796.7259, 18.54162
797.2080, 18.27352
797.6901, 17.73529
798.1722, 17.31704
798.6544, 17.00001
799.1365, 16.61401
799.6186, 16.11189
800.1007, 15.57867
800.5828, 15.08510
801.0649, 14.62227
801.5471, 14.15296
802.0292, 13.70606
802.5113, 13.20080
802.9934, 12.54989
803.4755, 11.93625
803.9576, 11.44145
804.4398, 11.04771
804.9219, 10.74889
805.4040, 10.55165
805.8861, 10.33585
806.3682, 9.970715
806.8503, 9.591772
807.3325, 9.382318
807.8146, 9.297606
808.2967, 9.186703
808.7788, 9.004001
809.2609, 8.820440
809.7430, 8.711362
810.2252, 8.664898
810.7073, 8.612901
811.1894, 8.565284
811.6715, 8.471599
812.1536, 8.303301
812.6357, 8.111437
813.1179, 7.902715
813.6000, 7.702035
814.0821, 7.590668
814.5642, 7.625013
815.0463, 7.640994
815.5284, 7.568704
816.0106, 7.494486
816.4927, 7.489348
816.9748, 7.526938
817.4569, 7.551147
817.9390, 7.542987
818.4211, 7.517404
818.9033, 7.482198
819.3854, 7.442301
819.8675, 7.403357
820.3496, 7.367526
820.8317, 7.366663
821.3138, 7.416961
821.7960, 7.453908
822.2781, 7.405739
822.7602, 7.285403
823.2423, 7.207713
823.7244, 7.196945
824.2065, 7.184979
824.6887, 7.164902
825.1708, 7.143445
825.6529, 7.106756
826.1350, 7.075761
826.6171, 7.097441
827.0992, 7.193353
827.5814, 7.281104
828.0635, 7.340482
828.5456, 7.357107
829.0277, 7.297493
829.5098, 7.187980
829.9919, 7.070921
830.4741, 6.965652
830.9562, 6.910052
831.4383, 6.956587
831.9204, 7.069273
832.4025, 7.120564
832.8846, 7.107019
833.3668, 7.085229
833.8489, 7.058512
834.3310, 7.053811
834.8131, 7.111102
835.2952, 7.202632
835.7773, 7.215556
836.2595, 7.082137
836.7416, 6.988670
837.2237, 6.960236
837.7058, 6.946769
838.1879, 6.922609
838.6700, 6.899775
839.1522, 6.903949
839.6343, 6.938406
840.1164, 6.961874
840.5985, 6.924907
841.0806, 6.886077
841.5627, 6.918323
842.0449, 6.994610
842.5270, 7.059056
843.0091, 7.097348
843.4912, 7.111122
843.9733, 7.100917
844.4554, 7.068808
844.9376, 7.006624
845.4197, 6.906321
845.9018, 6.865945
846.3839, 6.900384
846.8660, 6.983084
847.3481, 7.147795
847.8303, 7.316522
848.3124, 7.326492
848.7945, 7.137232
849.2766, 7.010338
849.7587, 7.026082
850.2408, 7.019865
850.7230, 6.881916
851.2051, 6.733981
851.6872, 6.738316
852.1693, 6.864182
852.6514, 6.902044
853.1335, 6.694258
853.6157, 6.489668
854.0978, 6.559733
854.5799, 6.783221
855.0620, 6.959375
855.5441, 7.065240
856.0262, 7.125498
856.5084, 7.151223
856.9905, 7.147730
857.4726, 7.111637
857.9547, 7.044787
858.4368, 7.032228
858.9189, 7.086245
859.4011, 7.150763
859.8832, 7.234297
860.3653, 7.285248
860.8474, 7.234329
861.3295, 7.095729
861.8116, 7.000412
862.2938, 6.932068
862.7759, 6.930151
863.2580, 7.080682
863.7401, 7.218881
864.2222, 7.225222
864.7043, 7.151585
865.1865, 7.100053
865.6686, 7.097861
866.1507, 7.102774
866.6328, 7.077010
867.1149, 7.050586
867.5970, 7.059555
868.0792, 7.096875
868.5613, 7.157269
869.0434, 7.232301
869.5255, 7.265489
870.0076, 7.195920
870.4897, 7.098663
870.9719, 7.207311
871.4540, 7.535425
871.9361, 7.732961
872.4182, 7.743126
872.9003, 7.705600
873.3824, 7.676819
873.8646, 7.659644
874.3467, 7.655490
874.8288, 7.658783
875.3109, 7.706938
875.7930, 7.811560
876.2751, 7.942482
876.7573, 8.130517
877.2394, 8.312023
877.7215, 8.433559
878.2036, 8.501268
878.6857, 8.549201
879.1678, 8.575706
879.6500, 8.617191
880.1321, 8.698795
880.6142, 8.805079
881.0963, 8.926833
881.5784, 9.057584
882.0605, 9.189885
882.5427, 9.319956
883.0248, 9.436571
883.5069, 9.511874
883.9890, 9.576182
884.4711, 9.738983
884.9532, 9.992809
885.4354, 10.19056
885.9175, 10.29564
886.3996, 10.40104
886.8817, 10.57699
887.3638, 10.79778
887.8459, 10.99088
888.3281, 11.15995
888.8102, 11.28735
889.2923, 11.30314
889.7744, 11.37673
890.2565, 11.69866
890.7386, 12.01574
891.2208, 12.00976
891.7029, 11.70618
892.1850, 11.53209
892.6671, 11.67916
893.1492, 11.83461
893.6313, 11.91143
894.1135, 11.92728
894.5956, 11.89143
895.0777, 11.81064
895.5598, 11.69371
896.0419, 11.54394
896.5240, 11.36148
897.0062, 11.11938
897.4883, 10.86063
897.9704, 10.65999
898.4525, 10.50503
898.9346, 10.34061
899.4167, 10.15446
899.8989, 9.974738
900.3810, 9.824645
900.8631, 9.695135
901.3452, 9.569004
901.8273, 9.450259
902.3094, 9.259183
902.7916, 8.946607
903.2737, 8.722975
903.7558, 8.738282
904.2379, 8.828710
904.7200, 8.716185
905.2021, 8.358892
905.6843, 8.209647
906.1664, 8.496650
906.6485, 8.674586
907.1306, 8.646027
907.6127, 8.501565
908.0948, 8.220820
908.5770, 7.887792
909.0591, 7.695493
909.5412, 7.717630
910.0233, 7.747609
910.5054, 7.668847
910.9875, 7.589639
911.4697, 7.623778
911.9518, 7.704235
912.4339, 7.703619
912.9160, 7.610777
913.3981, 7.525190
913.8802, 7.512785
914.3624, 7.546624
914.8445, 7.623705
915.3265, 7.710652
915.8087, 7.691675
916.2908, 7.568933
916.7729, 7.466130
917.2550, 7.440464
917.7371, 7.457376
918.2192, 7.478334
918.7014, 7.499595
919.1835, 7.468498
919.6656, 7.369797
920.1477, 7.292325
920.6298, 7.236241
921.1119, 7.251107
921.5941, 7.408851
922.0762, 7.648653
922.5583, 7.780423
923.0404, 7.746166
923.5225, 7.750989
924.0046, 7.860256
924.4868, 7.925673
924.9689, 7.834297
925.4510, 7.727457
925.9331, 7.765836
926.4152, 7.932288
926.8973, 8.064332
927.3795, 8.096489
927.8616, 8.125791
928.3437, 8.228222
928.8258, 8.315069
929.3079, 8.240480
929.7900, 8.109167
930.2722, 8.172091
930.7543, 8.482382
931.2364, 8.761477
931.7185, 8.725983
932.2006, 8.602471
932.6827, 8.753060
933.1649, 9.050437
933.6470, 9.169580
934.1291, 9.082264
934.6112, 8.968160
935.0933, 8.929297
935.5754, 8.921766
936.0576, 8.864957
936.5397, 8.768627
937.0218, 8.739514
937.5039, 8.781579
937.9860, 8.825286
938.4681, 8.849073
938.9503, 8.877684
939.4324, 8.935872
939.9145, 9.014151
940.3966, 9.070935
940.8787, 9.085567
941.3608, 9.134772
941.8430, 9.219460
942.3251, 9.340543
942.8072, 9.544295
943.2893, 9.752736
943.7714, 9.851573
944.2535, 9.849172
944.7357, 9.911078
945.2178, 10.13083
945.6999, 10.30194
946.1820, 10.31176
946.6641, 10.32979
947.1462, 10.49997
947.6284, 10.74616
948.1105, 10.90655
948.5926, 10.94754
949.0747, 11.04236
949.5568, 11.33547
950.0389, 11.64891
950.5211, 11.83765
951.0032, 11.97681
951.4853, 12.14648
951.9674, 12.36914
952.4495, 12.67821
952.9316, 13.09285
953.4138, 13.50457
953.8959, 13.77510
954.3780, 13.97118
954.8601, 14.20099
955.3422, 14.47264
955.8243, 14.80163
956.3065, 15.19166
956.7886, 15.64435
957.2707, 16.17079
957.7528, 16.73254
958.2349, 17.24960
958.7170, 17.72520
959.1992, 18.21212
959.6813, 18.70884
960.1634, 19.26809
960.6455, 19.91428
961.1276, 20.59956
961.6097, 21.26217
962.0919, 21.91782
962.5740, 22.64247
963.0561, 23.45786
963.5382, 24.27294
964.0203, 25.06139
964.5024, 25.88819
964.9846, 26.76667
965.4667, 27.71104
965.9488, 28.76420
966.4309, 29.93554
966.9130, 31.05672
967.3951, 31.93494
967.8773, 33.03440
968.3594, 34.49228
968.8415, 36.12083
969.3236, 37.86679
969.8057, 39.68377
970.2878, 41.53174
970.7700, 43.39839
971.2521, 45.27481
971.7342, 47.06393
972.2163, 48.97698
972.6984, 51.23719
973.1805, 53.57744
973.6627, 55.67540
974.1448, 57.61733
974.6269, 59.66297
975.1090, 61.89024
975.5911, 64.44173
976.0732, 67.56216
976.5554, 70.93626
977.0375, 74.32869
977.5196, 77.65823
978.0017, 80.78978
978.4838, 83.70679
978.9659, 86.58037
979.4481, 89.52418
979.9302, 92.27670
980.4123, 94.55849
980.8944, 96.39847
981.3765, 97.84421
981.8586, 98.90848
982.3408, 99.67178
982.8229, 100.1305
983.3050, 99.88696
983.7871, 98.58395
984.2692, 96.48895
984.7513, 94.04560
985.2335, 91.29998
985.7156, 88.89694
986.1977, 86.85880
986.6798, 85.20634
987.1619, 83.91103
987.6440, 83.20396
988.1262, 83.36539
988.6083, 84.28609
989.0904, 85.39555
989.5725, 86.55159
990.0546, 88.61087
990.5367, 91.96416
991.0189, 95.31574
991.5010, 97.96505
991.9831, 100.5826
992.4652, 104.0907
992.9473, 108.4440
993.4294, 112.7454
993.9116, 116.6806
994.3937, 121.1494
994.8758, 126.2669
995.3579, 131.8587
995.8400, 137.6212
996.3221, 143.9547
996.8043, 151.4968
997.2864, 160.2769
997.7685, 169.5398
998.2506, 179.2835
998.7327, 189.4973
999.2148, 199.8459
999.6970, 210.9484
1000.179, 224.0612
1000.661, 237.8277
1001.143, 250.4512
1001.625, 261.6072
1002.108, 270.2595
1002.590, 277.1635
1003.072, 280.0351
1003.554, 277.7816
1004.036, 271.0000
1004.518, 259.1725
1005.000, 243.5591
1005.482, 225.8277
1005.964, 206.5040
1006.447, 187.5310
1006.929, 169.4858
1007.411, 152.8556
1007.893, 137.9121
1008.375, 124.5953
1008.857, 112.9402
1009.339, 102.8012
1009.821, 93.76527
1010.304, 85.62975
1010.786, 78.44324
1011.268, 72.32687
1011.750, 67.04070
1012.232, 62.32236
1012.714, 58.13661
1013.196, 54.47070
1013.678, 51.28352
1014.160, 48.43458
1014.643, 45.84430
1015.125, 43.52913
1015.607, 41.55275
1016.089, 39.82465
1016.571, 38.16619
1017.053, 36.57145
1017.535, 34.99088
1018.017, 33.42949
1018.500, 32.01802
1018.982, 30.82506
1019.464, 29.85504
1019.946, 29.18840
1020.428, 28.73410
1020.910, 28.09543
1021.392, 27.28996
1021.874, 26.49639
1022.356, 25.74969
1022.839, 25.10633
1023.321, 24.60560
1023.803, 24.20187
1024.285, 23.80682
1024.767, 23.42724
1025.249, 23.17747
1025.731, 23.06401
1026.213, 22.99706
1026.696, 22.96886
1027.178, 22.89094
1027.660, 22.67527
1028.142, 22.45033
1028.624, 22.49776
1029.106, 22.83322
1029.588, 23.05123
1030.070, 23.13726
1030.552, 23.16461
1031.035, 23.11594
1031.517, 23.11566
1031.999, 23.27170
1032.481, 23.50287
1032.963, 23.61789
1033.445, 23.58835
1033.927, 23.68388
1034.409, 23.93679
1034.891, 24.23642
1035.374, 24.58923
1035.856, 24.92879
1036.338, 25.20384
1036.820, 25.43835
1037.302, 25.68339
1037.784, 25.94276
1038.266, 26.19662
1038.748, 26.50986
1039.231, 26.69896
1039.713, 26.70531
1040.195, 26.60480
1040.677, 26.41862
1041.159, 26.17338
1041.641, 25.94296
1042.123, 25.77073
1042.605, 25.40591
1043.088, 24.75964
1043.570, 24.04865
1044.052, 23.23625
1044.534, 22.44083
1045.016, 21.79326
1045.498, 21.19141
1045.980, 20.40445
1046.462, 19.37603
1046.944, 18.46998
1047.427, 17.68823
1047.909, 17.06377
1048.391, 16.69459
1048.873, 16.39323
1049.355, 16.05563
1049.837, 15.69713
1050.319, 15.34460
1050.801, 14.99755
1051.283, 14.69304
1051.766, 14.34850
1052.248, 14.16989
1052.730, 14.34841
1053.212, 14.56928
1053.694, 14.55725
1054.176, 14.46953
1054.658, 14.59723
1055.140, 14.97673
1055.623, 15.41189
1056.105, 15.85893
1056.587, 16.35623
1057.069, 16.91945
1057.551, 17.53291
1058.033, 18.19805
1058.515, 18.90055
1058.997, 19.60936
1059.479, 20.32052
1059.962, 21.08402
1060.444, 21.92378
1060.926, 22.80523
1061.408, 23.76726
1061.890, 24.70768
1062.372, 25.48456
1062.854, 26.22419
1063.336, 27.10396
1063.818, 28.14738
1064.301, 29.28146
1064.783, 30.42350
1065.265, 31.74863
1065.747, 33.49938
1066.229, 35.29083
1066.711, 36.82897
1067.193, 38.25323
1067.675, 39.77180
1068.158, 41.40582
1068.640, 43.07056
1069.122, 44.86007
1069.604, 46.38337
1070.086, 47.42304
1070.568, 48.19344
1071.050, 49.11801
1071.532, 49.67517
1072.015, 49.14935
1072.497, 47.57206
1072.979, 45.47396
1073.461, 42.96235
1073.943, 40.13563
1074.425, 36.69230
1074.907, 33.33228
1075.389, 30.55703
1075.871, 28.13449
1076.354, 25.77918
1076.836, 23.49464
1077.318, 21.38889
1077.800, 19.48206
1078.282, 17.86628
1078.764, 16.69124
1079.246, 15.69672
1079.728, 14.73137
1080.210, 13.85285
1080.693, 13.14294
1081.175, 12.56888
1081.657, 12.04298
1082.139, 11.53845
1082.621, 11.06941
1083.103, 10.63196
1083.585, 10.24036
1084.067, 9.889426
1084.549, 9.596047
1085.032, 9.398992
1085.514, 9.266111
1085.996, 9.143445
1086.478, 9.017612
1086.960, 8.861206
1087.442, 8.596022
1087.924, 8.385111
1088.406, 8.386431
1088.889, 8.398237
1089.371, 8.219660
1089.853, 7.949724
1090.335, 7.757062
1090.817, 7.671233
1091.299, 7.652586
1091.781, 7.744879
1092.263, 7.804305
1092.745, 7.758926
1093.228, 7.673994
1093.710, 7.565466
1094.192, 7.463416
1094.674, 7.412973
1095.156, 7.408011
1095.638, 7.392888
1096.120, 7.352102
1096.602, 7.299227
1097.084, 7.185642
1097.567, 7.123705
1098.049, 7.222052
1098.531, 7.370207
1099.013, 7.448778
1099.495, 7.469270
1099.977, 7.522207
1100.459, 7.655112
1100.941, 7.691228
1101.424, 7.413560
1101.906, 7.244795
1102.388, 7.468343
1102.870, 7.776132
1103.352, 7.921618
1103.834, 7.941380
1104.316, 7.944967
1104.798, 7.945478
1105.281, 7.956488
1105.763, 7.936157
1106.245, 7.989419
1106.727, 8.150886
1107.209, 8.388350
1107.691, 8.717124
1108.173, 9.088913
1108.655, 9.413285
1109.137, 9.688972
1109.620, 10.07748
1110.102, 10.70647
1110.584, 11.28080
1111.066, 11.71595
1111.548, 12.14373
1112.030, 12.67087
1112.512, 13.18785
1112.994, 13.52807
1113.476, 13.73508
1113.959, 14.09314
1114.441, 14.66557
1114.923, 15.27775
1115.405, 15.94281
1115.887, 16.62810
1116.369, 17.25592
1116.851, 17.97206
1117.333, 18.91272
1117.816, 20.02241
1118.298, 21.14084
1118.780, 22.24684
1119.262, 23.46202
1119.744, 24.76027
1120.226, 26.23824
1120.708, 28.12485
1121.190, 29.86139
1121.672, 31.13335
1122.155, 32.04811
1122.637, 32.79760
1123.119, 33.37405
1123.601, 33.46830
1124.083, 33.08806
1124.565, 32.15847
1125.047, 30.49259
1125.529, 28.69518
1126.011, 26.91020
1126.494, 25.33315
1126.976, 24.21459
1127.458, 23.45089
1127.940, 22.57594
1128.422, 21.50785
1128.904, 20.89750
1129.386, 20.82593
1129.868, 20.82929
1130.351, 20.75943
1130.833, 20.84969
1131.315, 21.30839
1131.797, 21.93840
1132.279, 22.31587
1132.761, 22.46499
1133.243, 22.80395
1133.725, 23.33309
1134.208, 23.99393
1134.690, 24.78606
1135.172, 25.49673
1135.654, 26.01752
1136.136, 26.44246
1136.618, 26.92729
1137.100, 27.35376
1137.582, 27.28044
1138.064, 26.79218
1138.547, 26.41574
1139.029, 26.14623
1139.511, 25.54418
1139.993, 24.48417
1140.475, 23.29089
1140.957, 22.21215
1141.439, 21.20881
1141.921, 20.21798
1142.403, 19.25738
1142.886, 18.40234
1143.368, 17.61599
1143.850, 16.76893
1144.332, 15.86189
1144.814, 14.99944
1145.296, 14.22817
1145.778, 13.60157
1146.260, 13.23899
1146.743, 12.98534
1147.225, 12.64668
1147.707, 12.27351
1148.189, 11.91956
1148.671, 11.60944
1149.153, 11.40349
1149.635, 11.29843
1150.117, 11.12946
1150.599, 10.73331
1151.082, 10.38347
1151.564, 10.33959
1152.046, 10.38506
1152.528, 10.33942
1153.010, 10.23664
1153.492, 10.13510
1153.974, 10.04602
1154.456, 9.958862
1154.938, 9.859158
1155.421, 9.820008
1155.903, 9.929528
1156.385, 10.03358
1156.867, 10.01981
1157.349, 10.00360
1157.831, 10.11747
1158.313, 10.28917
1158.795, 10.35080
1159.278, 10.28324
1159.760, 10.29942
1160.242, 10.50064
1160.724, 10.68297
1161.206, 10.84829
1161.688, 10.95097
1162.170, 10.92747
1162.652, 10.86511
1163.135, 10.83658
1163.617, 10.84415
1164.099, 10.90070
1164.581, 11.02077
1165.063, 11.13447
1165.545, 11.20723
1166.027, 11.35966
1166.509, 11.65491
1166.991, 11.95320
1167.474, 12.17161
1167.956, 12.33650
1168.438, 12.47815
1168.920, 12.60530
1169.402, 12.85023
1169.884, 13.24269
1170.366, 13.44808
1170.848, 13.41246
1171.330, 13.45333
1171.813, 13.68665
1172.295, 14.02927
1172.777, 14.42148
1173.259, 14.82583
1173.741, 15.17330
1174.223, 15.46189
1174.705, 15.66330
1175.187, 15.79572
1175.670, 15.95122
1176.152, 16.15416
1176.634, 16.45367
1177.116, 16.87317
1177.598, 17.28492
1178.080, 17.56581
1178.562, 17.75589
1179.044, 17.85556
1179.526, 17.94479
1180.009, 18.21176
1180.491, 18.58435
1180.973, 18.84823
1181.455, 18.97364
1181.937, 19.10876
1182.419, 19.36309
1182.901, 19.48981
1183.383, 19.20374
1183.865, 18.83415
1184.348, 18.66227
1184.830, 18.54318
1185.312, 18.29318
1185.794, 17.94934
1186.276, 17.63098
1186.758, 17.36234
1187.240, 17.13071
1187.722, 16.99836
1188.205, 16.80426
1188.687, 16.42090
1189.169, 16.06627
1189.651, 15.88782
1190.133, 15.77041
1190.615, 15.57440
1191.097, 15.32301
1191.579, 15.12888
1192.062, 15.00881
1192.544, 14.88693
1193.026, 14.76383
1193.508, 14.63896
1193.990, 14.52101
1194.472, 14.37580
1194.954, 14.16301
1195.436, 13.96129
1195.918, 13.89636
1196.401, 13.92800
1196.883, 13.81270
1197.365, 13.54130
1197.847, 13.38296
1198.329, 13.35530
1198.811, 13.28393
1199.293, 13.12004
1199.775, 12.97688
1200.257, 12.93221
1200.740, 12.92149
1201.222, 12.82804
1201.704, 12.70799
1202.186, 12.75960
1202.668, 12.89002
1203.150, 12.81328
1203.632, 12.55917
1204.114, 12.33212
1204.597, 12.20000
1205.079, 12.15892
1205.561, 12.23926
1206.043, 12.29892
1206.525, 12.16987
1207.007, 12.00243
1207.489, 11.94247
1207.971, 11.93808
1208.453, 11.94506
1208.936, 11.93013
1209.418, 11.82431
1209.900, 11.61049
1210.382, 11.41248
1210.864, 11.26370
1211.346, 11.14806
1211.828, 11.09059
1212.310, 11.02891
1212.792, 10.93706
1213.275, 10.81771
1213.757, 10.62476
1214.239, 10.41046
1214.721, 10.38336
1215.203, 10.62125
1215.685, 10.66263
1216.167, 10.39693
1216.649, 10.27757
1217.132, 10.45221
1217.614, 10.53072
1218.096, 10.28273
1218.578, 9.977320
1219.060, 9.937736
1219.542, 10.07399
1220.024, 10.10201
1220.506, 10.02956
1220.989, 9.903640
1221.471, 9.738794
1221.953, 9.626159
1222.435, 9.584993
1222.917, 9.616435
1223.399, 9.721124
1223.881, 9.785250
1224.363, 9.646334
1224.845, 9.460275
1225.328, 9.476495
1225.810, 9.556760
1226.292, 9.489703
1226.774, 9.322766
1227.256, 9.173157
1227.738, 9.061131
1228.220, 8.954174
1228.702, 8.833674
1229.184, 8.751296
1229.667, 8.764055
1230.149, 8.774511
1230.631, 8.711620
1231.113, 8.657029
1231.595, 8.677428
1232.077, 8.743009
1232.559, 8.824462
1233.041, 8.912673
1233.524, 8.938033
1234.006, 8.886797
1234.488, 8.801230
1234.970, 8.642163
1235.452, 8.556504
1235.934, 8.603814
1236.416, 8.650812
1236.898, 8.610472
1237.380, 8.553718
1237.863, 8.601764
1238.345, 8.698764
1238.827, 8.557058
1239.309, 8.233129
1239.791, 8.184761
1240.273, 8.388768
1240.755, 8.491815
1241.237, 8.425915
1241.719, 8.391704
1242.202, 8.501670
1242.684, 8.623225
1243.166, 8.601235
1243.648, 8.540466
1244.130, 8.542616
1244.612, 8.591055
1245.094, 8.719193
1245.576, 8.850765
1246.059, 8.834626
1246.541, 8.680876
1247.023, 8.546146
1247.505, 8.470531
1247.987, 8.438855
1248.469, 8.448412
1248.951, 8.499392
1249.433, 8.629580
1249.916, 8.759995
1250.398, 8.882387
1250.880, 8.940127
1251.362, 8.813165
1251.844, 8.561621
1252.326, 8.544064
1252.808, 8.835189
1253.290, 8.930869
1253.772, 8.792965
1254.255, 8.757996
1254.737, 8.901031
1255.219, 9.043557
1255.701, 9.091721
1256.183, 9.124161
1256.665, 9.237898
1257.147, 9.370873
1257.629, 9.393170
1258.111, 9.347570
1258.594, 9.312495
1259.076, 9.294286
1259.558, 9.288940
1260.040, 9.300320
1260.522, 9.350183
1261.004, 9.445649
1261.486, 9.532629
1261.968, 9.581885
1262.451, 9.612012
1262.933, 9.598572
1263.415, 9.606931
1263.897, 9.733979
1264.379, 9.862861
1264.861, 9.820411
1265.343, 9.675084
1265.825, 9.680079
1266.307, 9.865846
1266.790, 9.950672
1267.272, 9.908737
1267.754, 9.828914
1268.236, 9.688451
1268.718, 9.647323
1269.200, 9.776949
1269.682, 9.948411
1270.164, 10.06065
1270.646, 10.11375
1271.129, 10.07061
1271.611, 9.984211
1272.093, 10.05290
1272.575, 10.21872
1273.057, 10.31775
1273.539, 10.34849
1274.021, 10.37638
1274.503, 10.41559
1274.986, 10.42799
1275.468, 10.38725
1275.950, 10.34851
1276.432, 10.32557
1276.914, 10.34299
1277.396, 10.47066
1277.878, 10.59077
1278.360, 10.59243
1278.843, 10.52642
1279.325, 10.46360
1279.807, 10.41298
1280.289, 10.40121
1280.771, 10.43944
1281.253, 10.48189
1281.735, 10.54644
1282.217, 10.54305
1282.699, 10.43104
1283.182, 10.36544
1283.664, 10.41979
1284.146, 10.57659
1284.628, 10.84414
1285.110, 11.11590
1285.592, 11.20177
1286.074, 11.10341
##END=



