##NAMES=Vermiculite
##RRUFFID=R050490
##IDEAL CHEMISTRY=Mg_0.7_(Mg,Fe^3+^,Al)_6_(Si,Al)_8_O_20_(OH)_4_&#183;8H_2_O
##LOCALITY=near Tonopah, Nevada, USA
##OWNER=RRUFF
##SOURCE=California Institute of Technology
##DESCRIPTION=Dark green micaceous fragment
##STATUS=The identification of this mineral has been confirmed by X-ray diffraction and chemical analysis
##URL=rruff.info/R050490
##MEASURED CHEMISTRY=(Mg_2.26_Fe^3+^_0.25_Al_0.25_Ca_0.24_)_Σ=3_(Si_3.50_Al_0.50_)_Σ=4_O_10_((OH)_1.90_F_0.10_)_Σ=2_·4H_2_O
93.78320, 552.2610
94.26532, 550.7545
94.74744, 552.6992
95.22955, 556.7361
95.71167, 562.6287
96.19379, 567.0565
96.67590, 571.1394
97.15802, 574.4703
97.64014, 577.1026
98.12225, 578.9617
98.60437, 579.9236
99.08649, 579.9925
99.56860, 579.5129
100.0507, 579.0195
100.5328, 577.6385
101.0150, 575.8151
101.4971, 573.7218
101.9792, 571.3399
102.4613, 569.6029
102.9434, 569.3900
103.4255, 569.5901
103.9077, 569.2620
104.3898, 567.9467
104.8719, 566.4531
105.3540, 566.5522
105.8361, 569.2946
106.3182, 571.8009
106.8004, 573.8146
107.2825, 575.1495
107.7646, 575.4338
108.2467, 574.3284
108.7288, 571.9557
109.2109, 570.1444
109.6931, 569.1763
110.1752, 568.4213
110.6573, 567.8541
111.1394, 567.3737
111.6215, 566.7992
112.1036, 565.9625
112.5858, 564.8004
113.0679, 563.7068
113.5500, 562.0833
114.0321, 560.9008
114.5142, 561.0674
114.9964, 562.7210
115.4785, 564.9190
115.9606, 566.7743
116.4427, 568.3098
116.9248, 569.2702
117.4069, 569.0467
117.8891, 568.2319
118.3712, 568.1325
118.8533, 569.2977
119.3354, 570.7800
119.8175, 571.4521
120.2996, 571.4072
120.7818, 571.6994
121.2639, 573.3458
121.7460, 576.4049
122.2281, 579.1487
122.7102, 581.4017
123.1923, 583.1192
123.6745, 583.9944
124.1566, 584.0368
124.6387, 583.8182
125.1208, 584.2550
125.6029, 585.9365
126.0850, 586.9961
126.5672, 587.3282
127.0493, 587.1013
127.5314, 586.1893
128.0135, 584.5746
128.4956, 582.7229
128.9777, 581.9285
129.4599, 583.5202
129.9420, 584.7846
130.4241, 585.5200
130.9062, 585.8189
131.3883, 585.7756
131.8705, 585.3944
132.3526, 584.7745
132.8347, 584.4686
133.3168, 584.6896
133.7989, 584.9393
134.2810, 585.0430
134.7632, 585.0080
135.2453, 584.8582
135.7274, 584.4869
136.2095, 584.0411
136.6916, 583.9727
137.1737, 584.5150
137.6559, 585.3153
138.1380, 585.9600
138.6201, 586.3748
139.1022, 586.9901
139.5843, 588.7520
140.0664, 590.8336
140.5486, 591.8757
141.0307, 590.6603
141.5128, 588.1041
141.9949, 587.0285
142.4770, 588.3733
142.9591, 589.8937
143.4413, 590.5605
143.9234, 590.6794
144.4055, 590.8758
144.8876, 591.7646
145.3697, 593.3562
145.8518, 593.9732
146.3340, 592.2902
146.8161, 590.7394
147.2982, 590.1877
147.7803, 590.4745
148.2624, 590.8859
148.7445, 590.6605
149.2267, 589.4958
149.7088, 588.9943
150.1909, 589.6607
150.6730, 590.4288
151.1551, 590.5804
151.6372, 590.0789
152.1194, 589.5112
152.6015, 589.6277
153.0836, 590.8071
153.5657, 591.7091
154.0478, 592.2299
154.5299, 592.5247
155.0121, 592.7870
155.4942, 593.0779
155.9763, 593.2079
156.4584, 592.7330
156.9405, 591.5936
157.4227, 590.6362
157.9048, 590.1590
158.3869, 590.0176
158.8690, 589.9646
159.3511, 590.0486
159.8332, 590.0012
160.3154, 589.3884
160.7975, 588.1865
161.2796, 587.1512
161.7617, 586.7621
162.2438, 586.9895
162.7259, 587.4642
163.2081, 588.2423
163.6902, 589.1573
164.1723, 590.1494
164.6544, 591.2172
165.1365, 592.1846
165.6186, 592.7911
166.1008, 592.9137
166.5829, 593.2347
167.0650, 594.2106
167.5471, 595.2014
168.0292, 595.7864
168.5113, 595.8659
168.9935, 595.6607
169.4756, 595.5352
169.9577, 595.5858
170.4398, 595.5273
170.9219, 594.9578
171.4040, 594.4844
171.8862, 594.7088
172.3683, 595.8337
172.8504, 597.4805
173.3325, 598.7659
173.8146, 599.4750
174.2967, 599.9990
174.7789, 600.0031
175.2610, 599.9385
175.7431, 600.4811
176.2252, 601.9772
176.7073, 603.9728
177.1894, 604.9229
177.6716, 603.7003
178.1537, 602.9354
178.6358, 603.4609
179.1179, 604.7694
179.6000, 605.8568
180.0821, 606.1677
180.5643, 606.0176
181.0464, 606.3945
181.5285, 607.4935
182.0106, 608.7275
182.4927, 609.9266
182.9749, 611.0677
183.4570, 612.0453
183.9391, 612.8162
184.4212, 613.3571
184.9033, 613.6857
185.3854, 613.7096
185.8676, 613.6744
186.3497, 613.5616
186.8318, 613.3512
187.3139, 613.8117
187.7960, 616.1326
188.2781, 618.9455
188.7603, 620.7521
189.2424, 621.1738
189.7245, 620.7396
190.2066, 619.9581
190.6887, 618.6747
191.1708, 617.6057
191.6530, 617.1742
192.1351, 616.9821
192.6172, 616.6832
193.0993, 616.1379
193.5814, 615.5097
194.0635, 615.1766
194.5457, 615.3952
195.0278, 615.3879
195.5099, 615.0707
195.9920, 614.4623
196.4741, 613.4958
196.9562, 612.1223
197.4384, 610.5367
197.9205, 609.3302
198.4026, 609.1602
198.8847, 608.4543
199.3668, 606.5248
199.8489, 604.1593
200.3311, 602.2478
200.8132, 601.2459
201.2953, 600.9517
201.7774, 600.5752
202.2595, 600.1115
202.7416, 599.5599
203.2238, 598.9694
203.7059, 598.2777
204.1880, 597.3577
204.6701, 596.1311
205.1522, 594.6790
205.6344, 593.3713
206.1165, 592.1111
206.5986, 591.0628
207.0807, 590.3821
207.5628, 589.9318
208.0449, 589.4491
208.5271, 588.7852
209.0092, 588.0089
209.4913, 587.4209
209.9734, 587.2683
210.4555, 586.9738
210.9376, 586.3173
211.4198, 585.3598
211.9019, 584.1924
212.3840, 582.7343
212.8661, 581.2353
213.3482, 580.3616
213.8303, 580.4213
214.3125, 580.5601
214.7946, 580.3386
215.2767, 579.7976
215.7588, 579.1178
216.2409, 578.1888
216.7230, 577.3227
217.2052, 577.0242
217.6873, 577.4880
218.1694, 578.1248
218.6515, 578.6166
219.1336, 578.9589
219.6157, 578.9290
220.0979, 577.9913
220.5800, 576.9310
221.0621, 576.7209
221.5442, 577.6416
222.0263, 578.6920
222.5084, 578.6824
222.9906, 577.4698
223.4727, 576.7758
223.9548, 577.9782
224.4369, 579.4001
224.9190, 579.5983
225.4011, 578.2538
225.8833, 576.6551
226.3654, 576.4540
226.8475, 577.9837
227.3296, 579.3056
227.8117, 579.9748
228.2938, 580.3304
228.7760, 580.4427
229.2581, 580.3510
229.7402, 580.2529
230.2223, 580.4387
230.7044, 581.0145
231.1866, 581.5412
231.6687, 582.3900
232.1508, 582.8996
232.6329, 582.3740
233.1150, 580.7985
233.5971, 579.0175
234.0793, 578.2946
234.5614, 579.2266
235.0435, 579.7640
235.5256, 579.5873
236.0077, 579.2666
236.4898, 579.1130
236.9720, 579.1982
237.4541, 579.4298
237.9362, 579.6443
238.4183, 579.6174
238.9004, 580.1740
239.3825, 582.1162
239.8647, 583.9368
240.3468, 584.5090
240.8289, 583.7707
241.3110, 582.5764
241.7931, 581.9786
242.2752, 582.2394
242.7574, 582.3914
243.2395, 582.1221
243.7216, 581.9838
244.2037, 582.5244
244.6858, 583.7047
245.1679, 584.8656
245.6501, 585.2299
246.1322, 584.4979
246.6143, 584.1484
247.0964, 584.1728
247.5785, 584.5360
248.0606, 585.4787
248.5428, 586.8950
249.0249, 588.1188
249.5070, 588.4169
249.9891, 587.5888
250.4712, 587.3218
250.9533, 588.0615
251.4355, 588.9824
251.9176, 589.6313
252.3997, 589.9561
252.8818, 589.9611
253.3639, 589.4985
253.8460, 588.5930
254.3282, 588.4005
254.8103, 589.7711
255.2924, 591.1679
255.7745, 591.2842
256.2566, 590.2128
256.7387, 589.2733
257.2209, 589.4450
257.7030, 590.6124
258.1851, 591.5537
258.6672, 592.0255
259.1493, 592.4608
259.6314, 593.1407
260.1136, 594.0535
260.5957, 595.0934
261.0778, 596.3176
261.5599, 597.5777
262.0420, 598.4764
262.5241, 598.6096
263.0063, 598.8516
263.4884, 600.1127
263.9705, 602.2402
264.4526, 603.8966
264.9347, 604.3901
265.4168, 604.0050
265.8990, 603.3834
266.3811, 602.3105
266.8632, 601.4822
267.3453, 601.4913
267.8275, 602.2556
268.3096, 603.1379
268.7917, 603.9611
269.2738, 604.7659
269.7559, 605.7639
270.2380, 607.0906
270.7202, 607.9053
271.2023, 607.2625
271.6844, 605.4057
272.1665, 603.9510
272.6486, 603.2570
273.1307, 603.2350
273.6129, 603.8580
274.0950, 605.1183
274.5771, 606.2719
275.0592, 606.8793
275.5413, 606.9781
276.0234, 606.7079
276.5056, 605.7293
276.9877, 604.8679
277.4698, 604.8318
277.9519, 605.4851
278.4340, 606.1402
278.9161, 606.4084
279.3983, 606.3404
279.8804, 606.1536
280.3625, 605.8022
280.8446, 605.4120
281.3267, 604.8489
281.8088, 604.2885
282.2910, 604.1708
282.7731, 604.9949
283.2552, 606.4316
283.7373, 607.4333
284.2194, 608.0208
284.7015, 608.0720
285.1837, 607.3669
285.6658, 606.1996
286.1479, 604.9495
286.6300, 603.6885
287.1121, 602.5522
287.5942, 601.9259
288.0764, 602.0403
288.5585, 602.1296
289.0406, 601.5513
289.5227, 600.9465
290.0048, 601.1329
290.4869, 602.5293
290.9691, 604.3741
291.4512, 605.2496
291.9333, 604.7477
292.4154, 604.5912
292.8975, 606.1026
293.3796, 607.6324
293.8618, 607.6835
294.3439, 605.8807
294.8260, 603.5013
295.3081, 602.2191
295.7902, 602.2655
296.2723, 602.3161
296.7545, 601.9818
297.2366, 601.7211
297.7187, 601.9156
298.2008, 602.5437
298.6829, 603.1560
299.1650, 603.1636
299.6472, 602.4581
300.1293, 602.1449
300.6114, 602.9566
301.0935, 603.5641
301.5756, 602.7654
302.0577, 604.3812
302.5399, 605.3301
303.0220, 605.6476
303.5041, 603.4435
303.9862, 604.4957
304.4683, 604.2429
304.9504, 603.9365
305.4326, 605.4471
305.9147, 603.6097
306.3968, 605.0914
306.8789, 605.2482
307.3610, 603.3049
307.8431, 603.0233
308.3253, 604.0152
308.8074, 604.8341
309.2895, 605.0141
309.7716, 604.8465
310.2537, 604.6638
310.7358, 604.6083
311.2180, 604.6221
311.7001, 604.4883
312.1822, 603.8482
312.6643, 603.8870
313.1464, 605.5421
313.6285, 607.4538
314.1107, 608.3958
314.5928, 608.0588
315.0749, 607.3118
315.5570, 607.5293
316.0392, 609.1381
316.5213, 610.1339
317.0034, 609.4141
317.4855, 608.7225
317.9676, 609.1686
318.4497, 610.7432
318.9319, 612.5421
319.4140, 613.6682
319.8961, 614.0575
320.3782, 614.4172
320.8603, 614.7169
321.3424, 615.0195
321.8246, 615.2499
322.3067, 615.4960
322.7888, 615.9886
323.2709, 617.0254
323.7530, 618.4742
324.2351, 619.2853
324.7173, 619.0065
325.1994, 618.6872
325.6815, 618.4873
326.1636, 618.4948
326.6457, 618.8167
327.1278, 619.5098
327.6100, 620.5291
328.0921, 621.8956
328.5742, 624.0421
329.0563, 625.5637
329.5384, 625.5358
330.0205, 625.1497
330.5027, 625.5272
330.9848, 626.9883
331.4669, 628.7776
331.9490, 629.8444
332.4311, 630.0538
332.9132, 630.1374
333.3954, 629.7037
333.8775, 629.5473
334.3596, 630.2901
334.8417, 631.8790
335.3238, 633.6288
335.8059, 634.8858
336.2881, 635.6462
336.7702, 636.4708
337.2523, 637.2180
337.7344, 638.2328
338.2165, 639.7198
338.6986, 641.5770
339.1808, 643.6466
339.6629, 646.1699
340.1450, 648.7414
340.6271, 649.6425
341.1092, 647.8391
341.5913, 646.3401
342.0735, 646.5693
342.5556, 647.6215
343.0377, 648.3588
343.5198, 648.2666
344.0019, 647.9805
344.4840, 648.6208
344.9662, 650.4273
345.4483, 652.1191
345.9304, 653.1625
346.4125, 654.0374
346.8946, 655.0474
347.3767, 656.2491
347.8589, 657.5306
348.3410, 658.9839
348.8231, 660.5934
349.3052, 661.4698
349.7873, 660.9632
350.2694, 660.2649
350.7516, 660.2824
351.2337, 660.8646
351.7158, 661.3227
352.1979, 661.0923
352.6800, 660.4088
353.1621, 660.0487
353.6443, 660.0754
354.1264, 660.3171
354.6085, 660.9326
355.0906, 661.6464
355.5727, 662.0033
356.0548, 661.8400
356.5370, 661.2803
357.0191, 660.2746
357.5012, 658.7532
357.9833, 657.6777
358.4654, 657.9548
358.9475, 658.5963
359.4297, 658.3126
359.9118, 656.8026
360.3939, 655.2783
360.8760, 654.7961
361.3581, 655.1364
361.8402, 655.1562
362.3224, 654.5300
362.8045, 653.5978
363.2866, 652.7095
363.7687, 651.8554
364.2508, 650.9167
364.7329, 649.8281
365.2151, 648.6242
365.6972, 647.3520
366.1793, 646.0032
366.6614, 644.6057
367.1436, 642.9812
367.6257, 641.3231
368.1078, 640.2375
368.5899, 640.1733
369.0720, 640.3994
369.5541, 640.2739
370.0363, 639.8707
370.5184, 639.7172
371.0005, 640.1984
371.4826, 640.9580
371.9647, 641.2029
372.4468, 640.8621
372.9290, 640.2784
373.4111, 639.5606
373.8932, 638.6904
374.3753, 637.5805
374.8574, 636.1738
375.3395, 634.7268
375.8217, 633.5423
376.3038, 632.6210
376.7859, 631.9700
377.2680, 631.6252
377.7501, 631.5248
378.2322, 631.7948
378.7144, 632.3593
379.1965, 632.7156
379.6786, 632.4559
380.1607, 631.6287
380.6428, 630.8900
381.1249, 630.2090
381.6071, 629.6400
382.0892, 629.2678
382.5713, 629.0137
383.0534, 628.7175
383.5355, 628.3041
384.0176, 627.8558
384.4998, 627.5478
384.9819, 627.5168
385.4640, 627.4138
385.9461, 626.9681
386.4282, 626.6154
386.9103, 626.8810
387.3925, 627.7579
387.8746, 628.6723
388.3567, 628.9693
388.8388, 628.5173
389.3209, 628.4072
389.8030, 629.0406
390.2852, 629.5501
390.7673, 629.5824
391.2494, 629.2379
391.7315, 628.7346
392.2136, 628.1882
392.6957, 627.6290
393.1779, 627.1721
393.6600, 626.6168
394.1421, 625.1274
394.6242, 626.8379
395.1063, 627.8812
395.5884, 628.2934
396.0706, 626.1838
396.5527, 627.3306
397.0348, 627.1723
397.5169, 626.9606
397.9990, 628.5656
398.4811, 626.8228
398.9633, 628.3990
399.4454, 628.6504
399.9275, 629.5081
400.4096, 629.0528
400.8917, 629.0030
401.3738, 630.2667
401.8560, 630.8032
402.3381, 630.1967
402.8202, 631.0930
403.3023, 629.3043
403.7844, 630.2897
404.2665, 630.5976
404.7487, 631.0244
405.2308, 631.3601
405.7129, 631.1205
406.1950, 630.2366
406.6771, 630.1304
407.1592, 631.7802
407.6414, 633.5417
408.1235, 634.1083
408.6056, 633.6498
409.0877, 633.2299
409.5698, 633.7712
410.0519, 634.7336
410.5341, 634.6002
411.0162, 632.9670
411.4983, 631.6623
411.9804, 632.2206
412.4625, 633.7499
412.9446, 634.7859
413.4268, 634.9452
413.9089, 634.8216
414.3910, 634.8450
414.8731, 634.9813
415.3553, 635.0115
415.8374, 634.7428
416.3195, 634.5487
416.8016, 635.2018
417.2837, 636.7751
417.7658, 637.8580
418.2480, 637.6921
418.7301, 637.0463
419.2122, 636.7715
419.6943, 636.9583
420.1764, 637.3266
420.6585, 637.6575
421.1407, 637.9739
421.6228, 638.4753
422.1049, 639.2981
422.5870, 640.1366
423.0691, 641.0702
423.5512, 641.9031
424.0334, 642.1551
424.5155, 641.6041
424.9976, 640.7898
425.4797, 640.7518
425.9618, 642.1311
426.4439, 643.0292
426.9261, 643.3862
427.4082, 643.3441
427.8903, 642.8453
428.3724, 642.0017
428.8545, 641.1443
429.3366, 640.5422
429.8188, 640.1866
430.3009, 639.8762
430.7830, 639.4371
431.2651, 639.2629
431.7472, 639.6075
432.2293, 640.1811
432.7115, 640.6504
433.1936, 640.8882
433.6757, 640.9781
434.1578, 641.1064
434.6399, 641.3943
435.1220, 641.2651
435.6042, 639.9970
436.0863, 638.8603
436.5684, 638.4717
437.0505, 638.7608
437.5326, 639.3650
438.0147, 640.2683
438.4969, 641.2274
438.9790, 641.3123
439.4611, 640.2640
439.9432, 638.9885
440.4253, 637.8388
440.9074, 636.6649
441.3896, 635.1288
441.8717, 633.0213
442.3538, 631.3458
442.8359, 631.4166
443.3180, 632.8936
443.8001, 633.6949
444.2823, 633.2867
444.7644, 632.3752
445.2465, 631.3668
445.7286, 630.3405
446.2107, 629.8464
446.6928, 630.5906
447.1750, 631.5583
447.6571, 631.5956
448.1392, 630.7783
448.6213, 630.0183
449.1034, 629.7879
449.5855, 629.9410
450.0677, 630.1043
450.5498, 630.3873
451.0319, 630.4573
451.5140, 630.0107
451.9961, 629.4025
452.4782, 629.1092
452.9604, 629.2053
453.4425, 629.3793
453.9246, 629.3038
454.4067, 628.9442
454.8888, 628.7040
455.3709, 628.6967
455.8531, 628.6672
456.3352, 628.5049
456.8173, 628.2635
457.2994, 628.0876
457.7815, 628.0475
458.2636, 627.4973
458.7458, 628.6712
459.2279, 629.1781
459.7100, 629.0538
460.1921, 626.4078
460.6742, 627.0181
461.1563, 626.3234
461.6385, 625.5751
462.1206, 626.6438
462.6027, 624.3646
463.0848, 624.4855
463.5669, 625.7872
464.0491, 626.4219
464.5312, 626.4254
465.0133, 623.9071
465.4954, 624.6451
465.9775, 624.0782
466.4597, 623.4577
466.9418, 624.6541
467.4239, 622.5026
467.9060, 623.6701
468.3881, 623.5128
468.8702, 623.9618
469.3524, 623.0977
469.8345, 622.6392
470.3166, 621.9214
470.7987, 623.3066
471.2808, 624.0248
471.7629, 624.1117
472.2451, 621.6768
472.7272, 622.4984
473.2093, 622.0149
473.6914, 621.4778
474.1735, 622.7577
474.6556, 620.6896
475.1378, 621.9407
475.6199, 621.8668
476.1020, 622.3993
476.5841, 621.6187
477.0662, 621.2437
477.5483, 622.1822
478.0305, 620.9013
478.5126, 622.4180
478.9947, 623.2877
479.4768, 623.5463
479.9589, 621.3033
480.4410, 622.3367
480.9232, 622.0852
481.4053, 621.8003
481.8874, 623.3524
482.3695, 621.5766
482.8516, 623.1401
483.3337, 623.3987
483.8159, 624.2839
484.2980, 623.8761
484.7801, 623.8939
485.2622, 625.2454
485.7443, 625.8896
486.2264, 625.4111
486.7086, 626.4555
487.1907, 624.8350
487.6728, 625.5907
488.1549, 627.3830
488.6370, 627.0710
489.1191, 628.2399
489.6013, 628.8727
490.0834, 626.9971
490.5655, 629.5387
491.0476, 630.1988
491.5297, 628.9265
492.0118, 631.3777
492.4940, 631.4510
492.9761, 631.6247
493.4582, 630.9285
493.9403, 630.2270
494.4224, 629.9001
494.9045, 629.9050
495.3867, 630.1356
495.8688, 630.5295
496.3509, 631.2265
496.8330, 632.6070
497.3151, 634.1054
497.7972, 635.1583
498.2794, 635.6855
498.7615, 635.8245
499.2436, 635.6564
499.7257, 635.1940
500.2078, 634.6936
500.6899, 633.6862
501.1721, 633.2092
501.6542, 633.9178
502.1363, 634.9993
502.6184, 635.4667
503.1005, 635.1150
503.5826, 634.6574
504.0648, 634.9871
504.5469, 636.1726
505.0290, 637.5092
505.5111, 639.3405
505.9932, 640.8965
506.4753, 642.0490
506.9575, 642.7102
507.4396, 642.5724
507.9217, 641.2870
508.4038, 639.9653
508.8859, 640.2452
509.3680, 642.0175
509.8502, 643.2347
510.3323, 643.1676
510.8144, 642.8802
511.2965, 643.5991
511.7786, 645.1107
512.2607, 646.2720
512.7429, 646.8439
513.2250, 646.9160
513.7071, 646.2313
514.1892, 645.0256
514.6713, 644.2733
515.1534, 644.4528
515.6356, 645.1730
516.1177, 645.6407
516.5998, 645.5547
517.0819, 645.9430
517.5640, 647.3738
518.0461, 648.8499
518.5283, 649.8460
519.0104, 650.2821
519.4925, 650.0733
519.9746, 649.0857
520.4567, 647.6342
520.9388, 646.8541
521.4210, 646.6660
521.9031, 647.3598
522.3852, 649.7864
522.8673, 652.3601
523.3494, 653.8926
523.8315, 654.3817
524.3137, 654.6439
524.7958, 655.4417
525.2779, 656.4770
525.7600, 656.5773
526.2421, 655.4943
526.7242, 654.3939
527.2064, 653.6155
527.6885, 653.2101
528.1706, 653.2981
528.6527, 653.9658
529.1348, 654.7126
529.6169, 655.3310
530.0991, 655.8548
530.5812, 656.4811
531.0633, 657.2240
531.5454, 657.4704
532.0275, 656.6053
532.5096, 654.8537
532.9918, 653.7986
533.4739, 653.5585
533.9560, 653.7375
534.4381, 654.6248
534.9202, 655.6946
535.4023, 656.4218
535.8845, 656.6879
536.3666, 656.6382
536.8487, 656.4142
537.3308, 656.0148
537.8129, 655.3283
538.2951, 653.8278
538.7772, 652.7413
539.2593, 652.7184
539.7415, 653.0344
540.2236, 652.7941
540.7057, 651.7899
541.1878, 650.8339
541.6699, 651.0549
542.1520, 652.1971
542.6342, 652.4052
543.1163, 651.3512
543.5984, 649.8427
544.0805, 648.0345
544.5626, 646.2053
545.0447, 644.9315
545.5269, 644.5099
546.0090, 644.2388
546.4911, 643.6516
546.9732, 642.9404
547.4553, 642.5718
547.9374, 642.6459
548.4196, 642.6786
548.9017, 642.1932
549.3838, 641.1774
549.8659, 640.1527
550.3480, 639.2309
550.8301, 638.1674
551.3123, 636.7903
551.7944, 635.2852
552.2765, 633.6904
552.7586, 632.0995
553.2407, 630.9866
553.7228, 631.1711
554.2050, 632.7740
554.6871, 633.3952
555.1692, 632.4070
555.6513, 631.2880
556.1334, 630.4582
556.6155, 629.8707
557.0977, 629.5855
557.5798, 629.6898
558.0619, 629.5410
558.5440, 628.2540
559.0261, 626.1933
559.5082, 624.6676
559.9904, 623.8596
560.4725, 623.6147
560.9546, 624.1807
561.4367, 625.2600
561.9188, 625.4305
562.4009, 624.5366
562.8831, 622.9129
563.3652, 619.8649
563.8473, 616.4900
564.3294, 614.4955
564.8115, 614.1509
565.2936, 614.2328
565.7758, 613.5490
566.2579, 612.0950
566.7400, 610.5358
567.2221, 608.2587
567.7042, 606.6478
568.1863, 606.3620
568.6685, 606.6151
569.1506, 606.6173
569.6327, 606.2021
570.1148, 605.7473
570.5969, 605.7325
571.0790, 606.0433
571.5612, 605.9173
572.0433, 605.2133
572.5254, 604.4460
573.0075, 603.9388
573.4896, 603.4964
573.9717, 602.7645
574.4539, 601.5941
574.9360, 600.5920
575.4181, 600.2302
575.9002, 600.1252
576.3823, 599.6497
576.8644, 598.7769
577.3466, 598.0849
577.8287, 598.0430
578.3108, 598.4735
578.7929, 598.4942
579.2750, 597.7885
579.7571, 597.0699
580.2393, 596.3644
580.7214, 595.6649
581.2035, 594.7414
581.6856, 593.7562
582.1677, 593.3675
582.6498, 594.2988
583.1320, 595.9656
583.6141, 596.2761
584.0962, 594.9300
584.5783, 593.2222
585.0604, 590.8418
585.5425, 588.7653
586.0247, 587.9752
586.5068, 588.4044
586.9889, 588.9329
587.4710, 589.1898
587.9531, 589.2246
588.4352, 589.0424
588.9174, 588.6741
589.3995, 588.2301
589.8816, 587.7240
590.3637, 587.2794
590.8458, 587.1625
591.3279, 587.6765
591.8101, 587.6070
592.2922, 586.1641
592.7743, 584.9168
593.2564, 584.9529
593.7385, 585.7602
594.2206, 586.2501
594.7028, 585.9214
595.1849, 585.2372
595.6670, 585.0053
596.1491, 585.3082
596.6312, 585.4164
597.1133, 584.9951
597.5955, 584.7650
598.0776, 585.4221
598.5597, 586.4714
599.0418, 586.9619
599.5239, 586.5854
600.0060, 585.7430
600.4882, 584.3893
600.9703, 582.8512
601.4524, 581.8873
601.9345, 581.6424
602.4166, 582.0311
602.8987, 583.1520
603.3809, 584.9190
603.8630, 586.0059
604.3451, 586.4568
604.8272, 586.2725
605.3093, 584.6790
605.7914, 582.9212
606.2736, 582.4101
606.7557, 583.1661
607.2378, 583.9460
607.7199, 583.6019
608.2020, 582.4401
608.6841, 582.1387
609.1663, 583.2147
609.6484, 583.6523
610.1305, 582.0332
610.6126, 580.1221
611.0947, 579.4966
611.5768, 580.1751
612.0590, 581.0159
612.5411, 581.9738
613.0232, 582.5541
613.5053, 581.9285
613.9874, 580.3321
614.4695, 578.8235
614.9517, 577.7843
615.4338, 577.2605
615.9159, 577.4115
616.3980, 578.6169
616.8801, 579.1722
617.3622, 578.2742
617.8444, 577.6535
618.3265, 578.5778
618.8086, 580.0936
619.2907, 580.4853
619.7728, 578.2169
620.2549, 579.6990
620.7371, 580.5141
621.2192, 580.6979
621.7013, 578.3600
622.1834, 579.2784
622.6655, 578.8918
623.1476, 578.4518
623.6298, 579.8286
624.1119, 577.8574
624.5940, 579.2053
625.0761, 579.2284
625.5582, 579.8578
626.0403, 579.1741
626.5225, 578.8961
627.0046, 579.9315
627.4867, 580.2396
627.9688, 579.4048
628.4509, 580.0728
628.9330, 578.0558
629.4152, 578.3948
629.8973, 579.7505
630.3794, 578.9818
630.8615, 579.6737
631.3436, 579.8094
631.8257, 577.4167
632.3079, 579.4211
632.7900, 577.9443
633.2721, 576.9122
633.7542, 578.5875
634.2363, 579.6051
634.7184, 580.0007
635.2006, 577.8840
635.6827, 579.0328
636.1648, 578.8859
636.6469, 578.6949
637.1291, 580.3300
637.6112, 578.6265
638.0933, 580.2514
638.5754, 580.5607
639.0576, 581.4857
639.5397, 581.1069
640.0218, 581.1430
640.5039, 582.5018
640.9860, 583.1428
641.4681, 582.6500
641.9503, 583.6694
642.4324, 582.0131
642.9145, 582.7222
643.3966, 584.4572
643.8787, 584.0770
644.3608, 585.1669
644.8430, 585.7099
645.3251, 583.7338
645.8072, 586.1639
646.2893, 586.7018
646.7714, 585.8477
647.2535, 586.8094
647.7357, 587.6620
648.2178, 588.2098
648.6999, 588.6268
649.1820, 589.0892
649.6641, 589.6045
650.1462, 590.1290
650.6284, 590.3226
651.1105, 590.9617
651.5926, 592.6119
652.0747, 594.5345
652.5568, 596.0370
653.0389, 597.0040
653.5211, 597.6545
654.0032, 598.0547
654.4853, 598.3173
654.9674, 598.8511
655.4495, 599.7029
655.9316, 600.2109
656.4138, 599.9406
656.8959, 599.4867
657.3780, 599.6663
657.8601, 600.4479
658.3422, 601.2589
658.8243, 601.8912
659.3065, 602.6711
659.7886, 603.6429
660.2707, 604.9285
660.7528, 607.0302
661.2349, 609.9581
661.7170, 612.6432
662.1992, 613.7541
662.6813, 613.3668
663.1634, 613.2869
663.6455, 613.6366
664.1276, 614.0510
664.6097, 614.1722
665.0919, 614.4618
665.5740, 615.5921
666.0561, 617.5419
666.5382, 619.0099
667.0203, 619.1604
667.5024, 618.7256
667.9846, 618.2814
668.4667, 617.9102
668.9488, 617.8348
669.4309, 618.1505
669.9130, 618.6514
670.3951, 619.0999
670.8773, 619.5248
671.3594, 619.6884
671.8415, 619.5895
672.3236, 619.2244
672.8057, 618.4540
673.2878, 617.5034
673.7700, 616.5040
674.2521, 615.5262
674.7342, 614.7853
675.2163, 614.7763
675.6984, 615.0034
676.1805, 614.3887
676.6627, 612.9496
677.1448, 611.2054
677.6269, 609.1179
678.1090, 607.3525
678.5911, 607.0118
679.0732, 608.4876
679.5554, 609.1397
680.0375, 608.2820
680.5196, 607.4125
681.0017, 607.4402
681.4838, 607.6093
681.9659, 606.8851
682.4481, 605.0793
682.9302, 602.8330
683.4123, 600.3226
683.8944, 597.9288
684.3765, 597.6447
684.8586, 600.0186
685.3408, 601.1595
685.8229, 599.2632
686.3050, 596.0988
686.7871, 593.6940
687.2692, 592.0150
687.7513, 590.8033
688.2335, 590.3879
688.7156, 590.0392
689.1977, 589.6473
689.6798, 588.9653
690.1619, 587.4180
690.6440, 584.9871
691.1262, 582.5394
691.6083, 580.9028
692.0904, 580.0258
692.5725, 579.6765
693.0546, 580.2286
693.5367, 580.2234
694.0189, 578.9980
694.5010, 577.2672
694.9831, 575.5920
695.4652, 573.9922
695.9473, 572.4869
696.4294, 570.9133
696.9116, 569.6057
697.3937, 569.0188
697.8758, 568.7943
698.3579, 568.2640
698.8400, 567.2840
699.3221, 566.0970
699.8043, 564.8349
700.2864, 563.6110
700.7685, 563.4161
701.2506, 564.9020
701.7327, 566.0164
702.2148, 566.4601
702.6970, 566.3035
703.1791, 565.3533
703.6612, 563.7784
704.1433, 562.1666
704.6254, 560.6650
705.1075, 559.3026
705.5897, 558.0406
706.0718, 556.9561
706.5539, 556.2224
707.0360, 555.8697
707.5181, 555.9476
708.0002, 556.6590
708.4824, 557.6712
708.9645, 557.1713
709.4466, 553.7317
709.9287, 551.5228
710.4108, 551.6253
710.8929, 552.3314
711.3751, 553.1820
711.8572, 553.8474
712.3393, 553.6270
712.8214, 552.0268
713.3035, 550.1243
713.7856, 548.8251
714.2678, 547.9151
714.7499, 546.8649
715.2320, 545.6286
715.7141, 544.6019
716.1962, 544.0902
716.6783, 543.9022
717.1605, 543.4387
717.6426, 542.2725
718.1247, 541.6811
718.6068, 542.0671
719.0889, 542.5777
719.5710, 543.1279
720.0532, 543.4531
720.5353, 543.0200
721.0174, 541.5801
721.4995, 540.1672
721.9816, 539.6114
722.4637, 539.6627
722.9459, 540.0690
723.4280, 540.7300
723.9101, 540.7669
724.3922, 539.6100
724.8743, 538.0477
725.3564, 537.6752
725.8386, 539.1324
726.3207, 539.4536
726.8028, 537.4841
727.2849, 535.7457
727.7670, 535.1745
728.2491, 535.1630
728.7313, 534.9716
729.2134, 534.4535
729.6955, 533.8930
730.1776, 533.3064
730.6597, 532.8974
731.1418, 533.0587
731.6240, 533.7250
732.1061, 534.6048
732.5882, 535.6479
733.0703, 536.5049
733.5524, 536.7778
734.0345, 536.4666
734.5167, 535.6052
734.9988, 533.3605
735.4809, 531.6581
735.9631, 531.2379
736.4452, 531.1359
736.9273, 530.5029
737.4094, 529.3835
737.8915, 528.3967
738.3737, 527.8044
738.8558, 527.5715
739.3379, 527.7493
739.8200, 528.2535
740.3021, 528.9273
740.7842, 529.7338
741.2664, 530.3033
741.7485, 530.3106
742.2306, 529.8593
742.7127, 529.4844
743.1948, 529.5082
743.6769, 529.0013
744.1591, 527.1669
744.6412, 525.5554
745.1233, 525.0848
745.6054, 525.4274
746.0875, 525.8219
746.5696, 525.9966
747.0518, 526.3283
747.5339, 527.4705
748.0160, 528.8007
748.4981, 529.2353
748.9802, 528.7510
749.4623, 527.7197
749.9445, 526.2302
750.4266, 524.8624
750.9087, 524.8577
751.3908, 526.7656
751.8729, 527.4171
752.3550, 525.9896
752.8372, 524.3647
753.3193, 522.8464
753.8014, 521.6174
754.2835, 520.9201
754.7656, 520.7693
755.2477, 520.8483
755.7299, 521.0237
756.2120, 521.3436
756.6941, 521.9772
757.1762, 522.7756
757.6583, 523.6343
758.1404, 524.4527
758.6226, 524.3434
759.1047, 522.1722
759.5868, 518.4120
760.0689, 516.3391
760.5510, 516.6525
761.0331, 516.8336
761.5153, 516.1306
761.9974, 515.4615
762.4795, 515.6389
762.9616, 516.3953
763.4437, 516.8484
763.9258, 516.7017
764.4080, 516.4382
764.8901, 516.2743
765.3722, 516.1232
765.8543, 515.8419
766.3364, 515.4648
766.8185, 515.0850
767.3007, 514.7311
767.7828, 514.6514
768.2649, 515.4721
768.7470, 517.2368
769.2291, 518.5461
769.7112, 519.4072
770.1934, 519.6215
770.6755, 518.7762
771.1576, 517.4222
771.6397, 516.5109
772.1218, 516.0962
772.6039, 515.6403
773.0861, 515.1534
773.5682, 514.5067
774.0503, 513.4589
774.5324, 512.2931
775.0145, 511.4686
775.4966, 511.0383
775.9788, 510.5872
776.4609, 509.6426
776.9430, 508.5658
777.4251, 508.4818
777.9072, 509.3529
778.3893, 509.3516
778.8715, 507.8282
779.3536, 506.2070
779.8357, 505.7032
780.3178, 506.1891
780.7999, 506.7921
781.2820, 508.0893
781.7642, 508.6629
782.2463, 507.9438
782.7284, 506.9457
783.2105, 506.1378
783.6926, 505.5733
784.1747, 505.3083
784.6569, 505.3982
785.1390, 505.3957
785.6211, 504.8873
786.1032, 504.0099
786.5853, 502.8711
787.0674, 501.5563
787.5496, 500.5652
788.0317, 500.1317
788.5138, 500.0399
788.9959, 500.0372
789.4780, 500.1513
789.9601, 499.9439
790.4423, 498.9925
790.9244, 498.4109
791.4065, 498.6066
791.8886, 499.1490
792.3707, 499.7275
792.8528, 500.3443
793.3350, 501.1463
793.8171, 502.6124
794.2992, 503.7128
794.7813, 503.4875
795.2634, 502.6819
795.7455, 502.4045
796.2277, 502.6674
796.7098, 502.7736
797.1919, 502.3059
797.6740, 501.3853
798.1561, 500.1586
798.6382, 498.6079
799.1204, 497.1133
799.6025, 495.5663
800.0846, 494.4388
800.5667, 494.1565
801.0488, 494.2828
801.5309, 493.9701
802.0131, 493.0979
802.4952, 492.5722
802.9773, 492.8475
803.4594, 493.0459
803.9415, 492.6103
804.4236, 491.9941
804.9058, 491.8019
805.3879, 492.0741
805.8700, 492.3427
806.3521, 492.1754
806.8342, 492.0126
807.3163, 492.9679
807.7985, 494.5934
808.2806, 494.7753
808.7627, 493.1163
809.2448, 491.1200
809.7269, 489.7468
810.2090, 488.9816
810.6912, 488.8135
811.1733, 489.5348
811.6554, 490.1624
812.1375, 490.8543
812.6196, 491.2545
813.1017, 491.3546
813.5839, 491.0244
814.0660, 489.8956
814.5481, 487.8860
815.0302, 486.1613
815.5123, 485.0731
815.9944, 484.5957
816.4766, 484.9706
816.9587, 485.8528
817.4408, 486.7404
817.9229, 487.4669
818.4050, 487.9120
818.8871, 487.9235
819.3693, 487.6794
819.8514, 487.7429
820.3335, 488.1416
820.8156, 488.0664
821.2977, 487.1660
821.7798, 486.4865
822.2620, 486.8109
822.7441, 487.8295
823.2262, 488.6764
823.7083, 489.5394
824.1904, 489.7937
824.6725, 489.3110
825.1547, 488.3411
825.6368, 486.6383
826.1189, 484.7003
826.6010, 483.1535
827.0831, 482.1027
827.5652, 481.1909
828.0474, 479.5108
828.5295, 478.3745
829.0116, 480.2531
829.4937, 483.8434
829.9758, 485.7686
830.4579, 485.3364
830.9401, 483.7114
831.4222, 481.6280
831.9043, 479.4564
832.3864, 478.4114
832.8685, 478.7636
833.3506, 478.9211
833.8328, 478.7251
834.3149, 478.4003
834.7971, 478.0417
835.2792, 477.6384
835.7613, 477.0495
836.2434, 476.1153
836.7255, 475.8984
837.2076, 477.4178
837.6898, 478.7347
838.1719, 478.7800
838.6540, 478.1683
839.1361, 477.5288
839.6182, 477.0546
840.1003, 476.8761
840.5825, 477.1524
841.0646, 477.6367
841.5467, 478.0265
842.0288, 478.3440
842.5109, 478.7598
842.9930, 479.2707
843.4752, 479.3299
843.9573, 478.5464
844.4394, 477.3378
844.9215, 476.6269
845.4036, 476.5389
845.8857, 476.2895
846.3679, 475.7807
846.8500, 475.2827
847.3321, 475.0707
847.8142, 474.7877
848.2963, 473.8518
848.7784, 472.3217
849.2606, 471.3670
849.7427, 471.6734
850.2248, 472.0155
850.7069, 471.9799
851.1890, 471.7007
851.6711, 471.1031
852.1533, 470.3961
852.6354, 470.2130
853.1175, 470.9443
853.5996, 471.6765
854.0817, 471.1055
854.5638, 469.7791
855.0460, 469.1327
855.5281, 469.2119
856.0102, 469.6603
856.4923, 470.3835
856.9744, 470.9578
857.4565, 470.7497
857.9387, 469.8041
858.4208, 469.5114
858.9029, 470.2595
859.3850, 470.7076
859.8671, 470.3911
860.3492, 469.9235
860.8314, 470.0067
861.3135, 470.2823
861.7956, 469.6141
862.2777, 467.0738
862.7598, 465.5257
863.2419, 466.6060
863.7241, 468.0408
864.2062, 468.2630
864.6883, 467.7697
865.1704, 467.6985
865.6525, 468.2764
866.1346, 468.5359
866.6168, 467.3306
867.0989, 465.6625
867.5810, 465.0640
868.0631, 465.3633
868.5452, 466.3241
869.0273, 467.8144
869.5095, 468.4904
869.9916, 467.2708
870.4737, 464.8915
870.9558, 463.1768
871.4379, 462.1272
871.9200, 461.7791
872.4022, 462.4957
872.8843, 463.0981
873.3664, 462.9781
873.8485, 462.5357
874.3306, 462.2180
874.8127, 461.9932
875.2949, 462.3734
875.7770, 464.3690
876.2591, 465.7051
876.7412, 465.2806
877.2233, 464.2815
877.7054, 463.9027
878.1876, 463.8800
878.6697, 463.0175
879.1518, 460.6301
879.6339, 458.3366
880.1160, 457.4995
880.5981, 457.4968
881.0803, 457.5240
881.5624, 457.5802
882.0445, 458.0533
882.5266, 459.0213
883.0087, 459.6778
883.4908, 459.0101
883.9730, 457.4774
884.4551, 456.9624
884.9372, 457.5162
885.4193, 458.2825
885.9014, 459.2245
886.3835, 459.9510
886.8657, 460.2272
887.3478, 460.0582
887.8299, 459.4225
888.3120, 458.0893
888.7941, 456.9141
889.2762, 455.8126
889.7584, 454.9703
890.2405, 454.7130
890.7226, 454.5628
891.2047, 453.8659
891.6868, 452.7018
892.1689, 452.0054
892.6511, 452.4129
893.1332, 452.9097
893.6153, 453.0317
894.0974, 452.9514
894.5795, 452.7137
895.0616, 452.4538
895.5438, 452.5486
896.0259, 453.1525
896.5080, 453.6718
896.9901, 453.4711
897.4722, 452.7127
897.9543, 451.5647
898.4365, 450.1529
898.9186, 449.0780
899.4007, 448.5111
899.8828, 448.5029
900.3649, 449.1832
900.8470, 450.3109
901.3292, 451.0754
901.8113, 451.4987
902.2934, 451.4078
902.7755, 450.7006
903.2576, 449.6547
903.7397, 448.1725
904.2219, 446.6156
904.7040, 445.4790
905.1861, 444.7341
905.6682, 444.7523
906.1503, 446.4608
906.6324, 447.7301
907.1146, 447.6591
907.5967, 447.2901
908.0788, 447.5315
908.5609, 448.2111
909.0430, 448.6972
909.5251, 448.8715
910.0073, 448.5226
910.4894, 446.9942
910.9715, 445.3198
911.4536, 444.5986
911.9357, 444.5287
912.4178, 444.3938
912.9000, 444.0044
913.3821, 443.5977
913.8642, 443.3624
914.3463, 443.2337
914.8284, 443.1106
915.3105, 442.9902
915.7927, 442.8801
916.2748, 442.7797
916.7569, 442.5215
917.2390, 441.9616
917.7211, 441.4862
918.2032, 441.8444
918.6854, 443.0888
919.1675, 443.6984
919.6496, 443.4543
920.1317, 443.2463
920.6138, 443.2912
921.0959, 443.4697
921.5781, 443.8583
922.0602, 444.3111
922.5423, 444.0983
923.0244, 442.9854
923.5065, 441.6724
923.9886, 439.2798
924.4708, 437.7181
924.9529, 438.5409
925.4350, 440.2632
925.9171, 441.0750
926.3992, 440.7847
926.8813, 440.2380
927.3635, 439.5615
927.8456, 438.9616
928.3277, 438.2956
928.8098, 437.9566
929.2919, 438.8923
929.7740, 440.5107
930.2562, 441.1119
930.7383, 440.0010
931.2204, 438.2960
931.7025, 436.4905
932.1846, 435.1551
932.6667, 435.7400
933.1489, 437.7850
933.6310, 439.6321
934.1132, 440.8831
934.5953, 441.9000
935.0774, 443.0426
935.5595, 443.7688
936.0416, 442.4197
936.5237, 438.9677
937.0059, 436.6086
937.4880, 435.5757
937.9701, 435.1673
938.4522, 435.2716
938.9343, 435.4931
939.4164, 435.3102
939.8986, 434.7684
940.3807, 434.6586
940.8628, 435.1923
941.3449, 435.7540
941.8270, 436.3593
942.3091, 436.9028
942.7913, 437.6356
943.2734, 438.1441
943.7555, 437.5722
944.2376, 435.7028
944.7197, 434.2913
945.2018, 434.2641
945.6840, 433.9384
946.1661, 432.0668
946.6482, 430.1158
947.1303, 429.3912
947.6124, 429.7985
948.0945, 430.8235
948.5767, 432.5430
949.0588, 433.5702
949.5409, 432.1827
950.0230, 430.4479
950.5051, 430.7692
950.9872, 432.1830
951.4694, 432.6229
951.9515, 431.7837
952.4336, 430.8429
952.9157, 430.5706
953.3978, 430.7227
953.8799, 431.3282
954.3621, 431.9995
954.8442, 431.3225
955.3263, 429.4707
955.8084, 428.4005
956.2905, 428.8903
956.7726, 429.6769
957.2548, 429.2939
957.7369, 428.0288
958.2190, 426.9773
958.7011, 426.1088
959.1832, 426.3029
959.6653, 427.9666
960.1475, 429.2272
960.6296, 428.8434
961.1117, 427.7257
961.5938, 427.6679
962.0759, 428.8987
962.5580, 428.8312
963.0402, 426.4632
963.5223, 424.9283
964.0044, 425.4066
964.4865, 426.2946
964.9686, 426.4925
965.4507, 426.1310
965.9329, 425.5854
966.4150, 424.6187
966.8971, 424.1091
967.3792, 424.4200
967.8613, 424.8260
968.3434, 425.0645
968.8256, 425.2715
969.3077, 425.5804
969.7898, 425.9956
970.2719, 426.4960
970.7540, 427.2484
971.2361, 427.7126
971.7183, 427.5351
972.2004, 427.1143
972.6825, 426.9556
973.1646, 426.6878
973.6467, 425.3806
974.1288, 423.0794
974.6110, 421.3232
975.0931, 421.2035
975.5752, 421.6660
976.0573, 422.0200
976.5394, 422.1613
977.0215, 421.8510
977.5037, 421.1836
977.9858, 420.4111
978.4679, 419.6467
978.9500, 419.0977
979.4321, 418.9558
979.9142, 419.1745
980.3964, 419.7997
980.8785, 420.7064
981.3606, 421.4416
981.8427, 421.9466
982.3248, 422.4133
982.8069, 422.9557
983.2891, 423.3507
983.7712, 423.2463
984.2533, 422.6939
984.7354, 422.0312
985.2175, 421.2538
985.6996, 420.5475
986.1818, 419.9615
986.6639, 419.3612
987.1460, 418.6380
987.6281, 417.8723
988.1102, 417.2218
988.5923, 416.6568
989.0745, 416.4027
989.5566, 416.4438
990.0387, 416.8897
990.5208, 418.0180
991.0029, 419.1374
991.4850, 419.7174
991.9672, 419.7699
992.4493, 419.2700
992.9314, 417.5959
993.4135, 416.8817
993.8956, 418.0838
994.3777, 418.9615
994.8599, 418.2314
995.3420, 417.3217
995.8241, 417.7802
996.3062, 419.3369
996.7883, 420.3256
997.2704, 420.4348
997.7526, 420.2938
998.2347, 419.7180
998.7168, 419.2127
999.1989, 418.8629
999.6810, 418.8248
1000.163, 419.5651
1000.645, 420.9347
1001.127, 421.6176
1001.609, 420.8888
1002.092, 419.9512
1002.574, 419.0090
1003.056, 418.3062
1003.538, 418.2085
1004.020, 418.4223
1004.502, 418.4342
1004.984, 418.1678
1005.466, 417.9891
1005.949, 418.3172
1006.431, 418.4753
1006.913, 417.6482
1007.395, 416.6114
1007.877, 416.5008
1008.359, 416.9343
1008.841, 416.6531
1009.323, 415.3572
1009.805, 414.2446
1010.288, 414.4532
1010.770, 415.0826
1011.252, 414.8915
1011.734, 414.4052
1012.216, 414.8618
1012.698, 416.0156
1013.180, 416.3457
1013.662, 415.2723
1014.145, 414.1281
1014.627, 414.4064
1015.109, 415.4206
1015.591, 415.8978
1016.073, 415.9214
1016.555, 415.5476
1017.037, 414.9133
1017.519, 414.8761
1018.001, 415.8792
1018.484, 417.0468
1018.966, 417.2592
1019.448, 416.6863
1019.930, 415.7830
1020.412, 414.6059
1020.894, 413.5092
1021.376, 412.5680
1021.858, 412.5080
1022.341, 413.8611
1022.823, 415.5406
1023.305, 415.8130
1023.787, 414.7961
1024.269, 413.4879
1024.751, 411.8423
1025.233, 410.8435
1025.715, 410.7604
1026.198, 410.7841
1026.680, 410.3558
1027.162, 409.8805
1027.644, 410.2330
1028.126, 411.4482
1028.608, 411.9412
1029.090, 411.6187
1029.572, 410.8985
1030.054, 409.5766
1030.536, 408.7568
1031.019, 409.2781
1031.501, 410.6890
1031.983, 412.1381
1032.465, 413.7148
1032.947, 414.5522
1033.429, 414.5933
1033.911, 413.9619
1034.393, 412.2125
1034.876, 410.6263
1035.358, 410.2061
1035.840, 410.5222
1036.322, 410.4664
1036.804, 409.7315
1037.286, 410.1790
1037.768, 412.9666
1038.250, 414.8236
1038.733, 414.4579
1039.215, 413.6840
1039.697, 413.8732
1040.179, 414.5962
1040.661, 414.7405
1041.143, 414.1269
1041.625, 413.6078
1042.107, 413.1461
1042.589, 412.8343
1043.072, 412.7720
1043.554, 412.7900
1044.036, 412.6199
1044.518, 412.4741
1045.000, 413.0276
1045.482, 414.7157
1045.964, 415.4193
1046.446, 414.6134
1046.928, 413.3271
1047.411, 410.9774
1047.893, 409.0266
1048.375, 408.8938
1048.857, 409.9045
1049.339, 410.3608
1049.821, 409.9486
1050.303, 409.7843
1050.785, 410.5052
1051.268, 410.8763
1051.750, 410.3900
1052.232, 409.5067
1052.714, 408.2756
1053.196, 407.0161
1053.678, 406.4254
1054.160, 406.6997
1054.642, 406.9641
1055.125, 406.6891
1055.607, 406.7931
1056.089, 408.2609
1056.571, 409.6590
1057.053, 409.4454
1057.535, 408.3492
1058.017, 408.1223
1058.499, 409.1581
1058.981, 410.1287
1059.464, 410.7834
1059.946, 411.1017
1060.428, 410.8331
1060.910, 410.4458
1061.392, 410.2386
1061.874, 410.2489
1062.356, 410.5886
1062.838, 411.3026
1063.320, 411.6577
1063.803, 411.5652
1064.285, 410.8388
1064.767, 408.3605
1065.249, 406.1494
1065.731, 406.4761
1066.213, 408.2000
1066.695, 408.8119
1067.177, 407.8351
1067.660, 407.0977
1068.142, 407.5449
1068.624, 408.1040
1069.106, 408.2448
1069.588, 408.3172
1070.070, 408.7650
1070.552, 409.3057
1071.034, 409.3652
1071.516, 408.8579
1071.999, 408.2808
1072.481, 407.6413
1072.963, 407.2350
1073.445, 407.6937
1073.927, 407.9644
1074.409, 406.7945
1074.891, 405.0009
1075.373, 404.0666
1075.855, 404.1559
1076.338, 404.1200
1076.820, 403.1789
1077.302, 402.5482
1077.784, 403.3664
1078.266, 404.1773
1078.748, 403.6783
1079.230, 402.4965
1079.712, 401.5721
1080.195, 401.0674
1080.677, 400.8279
1081.159, 400.8347
1081.641, 401.0186
1082.123, 401.4385
1082.605, 401.9278
1083.087, 402.3027
1083.569, 402.7047
1084.052, 403.5787
1084.534, 404.7318
1085.016, 405.0575
1085.498, 403.7598
1085.980, 402.8555
1086.462, 404.0615
1086.944, 405.0255
1087.426, 403.6879
1087.908, 401.6073
1088.391, 400.7192
1088.873, 400.9234
1089.355, 401.0347
1089.837, 400.6547
1090.319, 400.4521
1090.801, 401.2428
1091.283, 401.6410
1091.765, 400.3733
1092.248, 398.7313
1092.730, 397.8942
1093.212, 397.8679
1093.694, 398.3742
1094.176, 399.4313
1094.658, 400.3353
1095.140, 401.5640
1095.622, 401.6495
1096.104, 398.8759
1096.587, 395.6118
1097.069, 393.8397
1097.551, 393.1982
1098.033, 392.5720
1098.515, 391.7501
1098.997, 391.4610
1099.479, 392.9672
1099.961, 393.5912
1100.443, 391.3781
1100.926, 389.0378
1101.408, 388.4922
1101.890, 389.1246
1102.372, 389.8888
1102.854, 390.6532
1103.336, 391.5269
1103.818, 393.1403
1104.300, 393.9620
1104.783, 392.9300
1105.265, 391.8472
1105.747, 392.0607
1106.229, 392.5323
1106.711, 391.6180
1107.193, 389.5249
1107.675, 388.4099
1108.157, 388.9640
1108.640, 389.6732
1109.122, 390.2409
1109.604, 391.0618
1110.086, 392.8849
1110.568, 394.5508
1111.050, 394.8864
1111.532, 394.1083
1112.014, 393.1311
1112.496, 391.8933
1112.979, 390.7431
1113.461, 389.9812
1113.943, 388.9243
1114.425, 387.2371
1114.907, 385.3806
1115.389, 383.3076
1115.871, 381.4254
1116.353, 380.7513
1116.835, 381.5255
1117.318, 382.0824
1117.800, 382.2362
1118.282, 382.5261
1118.764, 383.1502
1119.246, 383.7514
1119.728, 384.1582
1120.210, 384.4159
1120.692, 384.6775
1121.175, 384.9294
1121.657, 384.2947
1122.139, 381.9709
1122.621, 381.0815
1123.103, 382.4965
1123.585, 383.8478
1124.067, 384.1185
1124.549, 383.9552
1125.031, 384.1034
1125.514, 384.4092
1125.996, 384.1250
1126.478, 383.1470
1126.960, 382.0368
1127.442, 380.6781
1127.924, 379.7655
1128.406, 379.5001
1128.888, 379.8180
1129.370, 380.7921
1129.853, 382.0405
1130.335, 382.7291
1130.817, 382.8601
1131.299, 382.2815
1131.781, 380.9412
1132.263, 379.9688
1132.745, 379.5896
1133.227, 379.6764
1133.710, 380.2186
1134.192, 380.7227
1134.674, 380.4072
1135.156, 379.4946
1135.638, 378.7928
1136.120, 378.3224
1136.602, 378.2763
1137.084, 378.6454
1137.567, 379.0869
1138.049, 379.4665
1138.531, 379.9550
1139.013, 380.7239
1139.495, 381.6796
1139.977, 382.9047
1140.459, 384.0914
1140.941, 384.1658
1141.423, 383.3712
1141.906, 382.9731
1142.388, 383.1732
1142.870, 382.8958
1143.352, 381.3849
1143.834, 379.6692
1144.316, 378.9759
1144.798, 378.8409
1145.280, 378.5459
1145.762, 378.2645
1146.245, 378.3174
1146.727, 378.7781
1147.209, 379.7578
1147.691, 381.2984
1148.173, 382.8273
1148.655, 384.5718
1149.137, 385.4011
1149.619, 383.6779
1150.102, 381.0149
1150.584, 378.9090
1151.066, 377.5121
1151.548, 376.7394
1152.030, 376.5432
1152.512, 376.8144
1152.994, 377.7132
1153.476, 378.6363
1153.958, 379.2564
1154.441, 379.8297
1154.923, 380.6707
1155.405, 381.4626
1155.887, 381.9412
1156.369, 382.0148
1156.851, 381.4319
1157.333, 379.9017
1157.815, 378.6758
1158.297, 378.4698
1158.780, 378.0077
1159.262, 376.3609
1159.744, 374.8453
1160.226, 374.6004
1160.708, 375.0676
1161.190, 375.2075
1161.672, 374.9886
1162.154, 374.6180
1162.637, 373.7680
1163.119, 373.3934
1163.601, 373.7591
1164.083, 374.2776
1164.565, 374.8550
1165.047, 375.2650
1165.529, 375.2079
1166.011, 374.8153
1166.494, 374.6146
1166.976, 374.6183
1167.458, 374.7751
1167.940, 375.1344
1168.422, 375.3579
1168.904, 375.3099
1169.386, 375.4366
1169.868, 376.0685
1170.350, 376.9037
1170.833, 377.4532
1171.315, 377.7503
1171.797, 378.0729
1172.279, 378.3699
1172.761, 377.7675
1173.243, 376.2968
1173.725, 375.8581
1174.207, 377.1454
1174.689, 378.3356
1175.172, 377.6723
1175.654, 376.2370
1176.136, 375.8676
1176.618, 376.1544
1177.100, 376.1373
1177.582, 375.9553
1178.064, 376.1690
1178.546, 376.8339
1179.029, 377.6906
1179.511, 378.6464
1179.993, 379.2290
1180.475, 378.6801
1180.957, 377.9419
1181.439, 377.8852
1181.921, 378.2376
1182.403, 379.0366
1182.885, 379.8049
1183.368, 379.5553
1183.850, 378.1571
1184.332, 376.6411
1184.814, 375.3005
1185.296, 374.1544
1185.778, 373.0648
1186.260, 372.3443
1186.742, 372.3238
1187.225, 372.6624
1187.707, 373.1962
1188.189, 373.7533
1188.671, 373.8232
1189.153, 373.2090
1189.635, 372.7008
1190.117, 371.9406
1190.599, 371.9435
1191.082, 373.6703
1191.564, 375.0268
1192.046, 374.6058
1192.528, 373.5443
1193.010, 373.4386
1193.492, 374.1403
1193.974, 374.2787
1194.456, 373.5946
1194.938, 373.9657
1195.421, 375.8480
1195.903, 376.3720
1196.385, 374.4503
1196.867, 372.6577
1197.349, 372.9561
1197.831, 374.3450
1198.313, 375.1204
1198.795, 375.3580
1199.277, 375.3235
1199.760, 375.0728
1200.242, 375.0077
1200.724, 375.0912
1201.206, 374.7262
1201.688, 373.7202
1202.170, 372.6043
1202.652, 371.7393
1203.134, 371.1830
1203.617, 371.2169
1204.099, 371.4422
1204.581, 371.2269
1205.063, 370.7964
1205.545, 370.5721
1206.027, 370.6226
1206.509, 370.9281
1206.991, 371.5147
1207.474, 371.9320
1207.956, 371.7679
1208.438, 371.5988
1208.920, 371.8198
1209.402, 372.0559
1209.884, 371.9154
1210.366, 371.6410
1210.848, 371.7462
1211.330, 372.1823
1211.813, 372.1232
1212.295, 371.0449
1212.777, 370.3615
1213.259, 370.3120
1213.741, 370.3439
1214.223, 370.5430
1214.705, 370.3897
1215.187, 369.2783
1215.669, 367.9188
1216.152, 367.7403
1216.634, 368.6319
1217.116, 368.5581
1217.598, 367.3945
1218.080, 366.8424
1218.562, 367.0792
1219.044, 367.7623
1219.526, 368.7896
1220.009, 369.7349
1220.491, 370.2689
1220.973, 370.4536
1221.455, 370.3427
1221.937, 369.9877
1222.419, 369.2845
1222.901, 368.5153
1223.383, 368.4316
1223.865, 369.0488
1224.348, 370.1839
1224.830, 371.6885
1225.312, 372.6857
1225.794, 372.3847
1226.276, 371.7437
1226.758, 371.1142
1227.240, 370.8549
1227.722, 371.5785
1228.204, 372.6694
1228.687, 373.6670
1229.169, 374.2483
1229.651, 373.5835
1230.133, 371.2655
1230.615, 369.2325
1231.097, 367.9014
1231.579, 366.7822
1232.061, 365.6130
1232.544, 364.8678
1233.026, 364.9599
1233.508, 365.3613
1233.990, 365.4893
1234.472, 365.4245
1234.954, 365.5814
1235.436, 366.1014
1235.918, 365.5446
1236.401, 363.6683
1236.883, 363.6373
1237.365, 366.1940
1237.847, 368.2884
1238.329, 368.2832
1238.811, 367.6088
1239.293, 368.0138
1239.775, 368.6798
1240.257, 367.6519
1240.740, 365.6661
1241.222, 364.1784
1241.704, 363.3277
1242.186, 363.2481
1242.668, 363.8250
1243.150, 364.5627
1243.632, 365.2556
1244.114, 365.9902
1244.596, 367.0674
1245.079, 367.8983
1245.561, 368.0524
1246.043, 367.8555
1246.525, 367.3871
1247.007, 366.8727
1247.489, 366.5563
1247.971, 366.4662
1248.453, 366.6368
1248.936, 367.2659
1249.418, 367.6846
1249.900, 368.1183
1250.382, 367.8516
1250.864, 366.4665
1251.346, 364.8737
1251.828, 363.3577
1252.310, 362.4836
1252.792, 363.2354
1253.275, 365.0126
1253.757, 365.2044
1254.239, 363.9464
1254.721, 362.8012
1255.203, 361.8675
1255.685, 361.2392
1256.167, 360.9430
1256.649, 361.1060
1257.131, 361.7993
1257.614, 362.3799
1258.096, 362.0026
1258.578, 361.4429
1259.060, 361.5384
1259.542, 362.0362
1260.024, 362.6968
1260.506, 363.4868
1260.988, 364.3789
1261.471, 365.3912
1261.953, 366.7856
1262.435, 368.9527
1262.917, 369.9507
1263.399, 368.4315
1263.881, 366.9323
1264.363, 365.8821
1264.845, 365.3395
1265.328, 365.6695
1265.810, 366.1233
1266.292, 365.8095
1266.774, 364.9247
1267.256, 364.2066
1267.738, 363.6383
1268.220, 363.5370
1268.702, 363.9257
1269.184, 364.0073
1269.667, 363.6422
1270.149, 363.1491
1270.631, 362.6722
1271.113, 362.0960
1271.595, 361.2679
1272.077, 360.3764
1272.559, 359.5509
1273.041, 358.9661
1273.523, 358.9759
1274.006, 359.3744
1274.488, 359.9811
1274.970, 360.5807
1275.452, 360.6600
1275.934, 360.0824
1276.416, 359.6786
1276.898, 359.8570
1277.380, 360.1050
1277.863, 360.2996
1278.345, 360.5179
1278.827, 361.0166
1279.309, 361.3225
1279.791, 360.9120
1280.273, 360.1362
1280.755, 359.7838
1281.237, 359.8491
1281.719, 359.7263
1282.202, 359.3405
1282.684, 360.0014
1283.166, 361.8304
1283.648, 362.8245
1284.130, 362.3811
1284.612, 362.0463
1285.094, 362.9254
1285.576, 364.0251
1286.059, 364.2692
1286.541, 363.7837
1287.023, 362.8114
1287.505, 361.4209
##END=



