##NAMES=Vesuvianite
##RRUFFID=R050489
##IDEAL CHEMISTRY=(Ca,Na)_19_(Al,Mg,Fe^3+^)_13_(SiO_4_)_10_(Si_2_O_7_)_4_(OH,F,O)_10_
##LOCALITY=Crestmore Quarry, Riverside County, California, USA
##OWNER=RRUFF
##SOURCE=California Institute of Technology
##DESCRIPTION=Green prismatic crystal
##STATUS=The identification of this mineral has been confirmed by X-ray diffraction and chemical analysis
##URL=rruff.info/R050489
##MEASURED CHEMISTRY=Ca_19.00_(Al_9.56_Mg_2.36_Fe^2+^_0.86_Ti_0.22_)_Σ=13_Si_18.00_O_68_((OH)_9.59_F_0.41_)_Σ=10_ ; B not measured
90.52570, 0.0000000E+00
91.00781, 74.94958
91.48993, 73.14668
91.97205, 74.92612
92.45416, 78.39188
92.93628, 83.92313
93.41840, 89.31393
93.90051, 95.38491
94.38263, 106.1347
94.86475, 118.3013
95.34686, 126.5055
95.82898, 131.7959
96.31110, 136.5014
96.79321, 142.7364
97.27533, 154.4051
97.75745, 176.9628
98.23956, 198.6889
98.72168, 209.5885
99.20380, 203.9102
99.68591, 179.1896
100.1680, 154.2845
100.6501, 129.9797
101.1323, 106.8851
101.6144, 84.98284
102.0965, 64.21026
102.5786, 45.32657
103.0607, 28.66493
103.5428, 13.67575
104.0250, 0.4694060
104.5071, 15.13632
104.9892, 26.90207
105.4713, 34.60831
105.9534, 37.70926
106.4355, 38.17392
106.9177, 36.65833
107.3998, 32.59732
107.8819, 22.99796
108.3640, 7.637665
108.8461, 12.59442
109.3282, 38.05634
109.8104, 68.03766
110.2925, 102.7372
110.7746, 142.8190
111.2567, 187.5938
111.7388, 234.6620
112.2209, 285.8452
112.7031, 337.2798
113.1852, 387.1989
113.6673, 436.5965
114.1494, 482.3834
114.6315, 524.1667
115.1136, 562.5357
115.5958, 596.8508
116.0779, 623.6545
116.5600, 647.3477
117.0421, 672.6415
117.5242, 700.5981
118.0063, 731.5391
118.4885, 765.2129
118.9706, 800.8704
119.4527, 843.2876
119.9348, 896.2206
120.4169, 957.3228
120.8990, 1023.684
121.3812, 1094.091
121.8633, 1168.545
122.3454, 1246.718
122.8275, 1330.662
123.3096, 1414.761
123.7917, 1495.039
124.2739, 1571.607
124.7560, 1644.872
125.2381, 1716.148
125.7202, 1784.506
126.2023, 1847.064
126.6844, 1904.018
127.1666, 1955.012
127.6487, 1999.200
128.1308, 2036.952
128.6129, 2069.097
129.0950, 2097.020
129.5771, 2120.531
130.0593, 2138.839
130.5414, 2149.663
131.0235, 2155.583
131.5056, 2158.631
131.9877, 2144.677
132.4698, 2113.690
132.9520, 2083.896
133.4341, 2055.499
133.9162, 2033.161
134.3983, 2019.019
134.8804, 2012.411
135.3625, 2009.345
135.8447, 2009.949
136.3268, 2013.975
136.8089, 2021.167
137.2910, 2031.433
137.7731, 2045.946
138.2552, 2066.562
138.7374, 2093.831
139.2195, 2120.799
139.7016, 2148.618
140.1837, 2175.642
140.6658, 2197.570
141.1479, 2214.083
141.6301, 2227.063
142.1122, 2237.206
142.5943, 2243.550
143.0764, 2250.044
143.5585, 2258.473
144.0406, 2267.056
144.5228, 2270.634
145.0049, 2268.368
145.4870, 2262.012
145.9691, 2252.483
146.4512, 2241.263
146.9333, 2224.762
147.4155, 2200.901
147.8976, 2170.633
148.3797, 2142.219
148.8618, 2115.626
149.3439, 2091.344
149.8260, 2069.648
150.3082, 2050.472
150.7903, 2033.804
151.2724, 2019.811
151.7545, 2008.433
152.2366, 1998.582
152.7188, 1990.153
153.2009, 1983.100
153.6830, 1977.246
154.1651, 1974.961
154.6472, 1971.414
155.1293, 1964.625
155.6115, 1954.104
156.0936, 1943.968
156.5757, 1934.800
157.0578, 1926.622
157.5399, 1919.279
158.0220, 1913.400
158.5042, 1908.018
158.9863, 1903.080
159.4684, 1899.019
159.9505, 1893.799
160.4326, 1886.958
160.9147, 1878.528
161.3969, 1868.496
161.8790, 1853.987
162.3611, 1839.590
162.8432, 1828.843
163.3253, 1823.928
163.8074, 1818.009
164.2896, 1807.547
164.7717, 1793.946
165.2538, 1779.975
165.7359, 1766.564
166.2180, 1753.840
166.7001, 1740.732
167.1823, 1726.684
167.6644, 1712.563
168.1465, 1699.778
168.6286, 1687.478
169.1107, 1673.330
169.5928, 1653.977
170.0750, 1632.994
170.5571, 1614.217
171.0392, 1599.294
171.5213, 1585.552
172.0034, 1570.225
172.4855, 1553.955
172.9677, 1539.335
173.4498, 1530.841
173.9319, 1524.445
174.4140, 1514.083
174.8961, 1496.176
175.3782, 1476.019
175.8604, 1459.126
176.3425, 1445.295
176.8246, 1432.799
177.3067, 1422.205
177.7888, 1411.990
178.2709, 1398.778
178.7531, 1380.090
179.2352, 1359.122
179.7173, 1341.186
180.1994, 1326.133
180.6815, 1310.490
181.1636, 1288.811
181.6458, 1263.627
182.1279, 1242.841
182.6100, 1231.632
183.0921, 1225.258
183.5742, 1213.736
184.0563, 1196.785
184.5385, 1178.611
185.0206, 1163.806
185.5027, 1151.573
185.9848, 1138.184
186.4669, 1122.863
186.9490, 1105.338
187.4312, 1083.602
187.9133, 1057.143
188.3954, 1030.409
188.8775, 1008.954
189.3596, 992.3672
189.8417, 976.7004
190.3239, 960.2783
190.8060, 943.5034
191.2881, 928.8672
191.7702, 916.8423
192.2523, 905.2681
192.7344, 891.4971
193.2166, 875.5679
193.6987, 858.7515
194.1808, 840.9468
194.6629, 822.3857
195.1450, 805.2275
195.6271, 789.4336
196.1093, 775.1426
196.5914, 762.8320
197.0735, 752.5801
197.5556, 742.9941
198.0377, 733.1377
198.5198, 723.0039
199.0020, 714.7876
199.4841, 708.8428
199.9662, 704.0767
200.4483, 699.1948
200.9304, 694.2856
201.4125, 688.5518
201.8947, 681.2827
202.3768, 672.2979
202.8589, 663.8716
203.3410, 655.8442
203.8231, 648.8999
204.3052, 644.3726
204.7874, 642.8687
205.2695, 641.5762
205.7516, 639.2578
206.2337, 635.7944
206.7158, 631.9604
207.1979, 627.3457
207.6801, 622.6846
208.1622, 619.6807
208.6443, 618.9043
209.1264, 618.2354
209.6085, 616.8169
210.0906, 614.6396
210.5728, 611.4971
211.0549, 607.0020
211.5370, 601.7324
212.0191, 596.8247
212.5012, 592.3618
212.9833, 588.8159
213.4655, 586.3726
213.9476, 585.3057
214.4297, 584.4077
214.9118, 584.3745
215.3939, 583.9795
215.8760, 579.9863
216.3581, 570.4365
216.8403, 560.9692
217.3224, 554.5200
217.8045, 552.3057
218.2866, 549.8271
218.7687, 547.2349
219.2508, 544.0977
219.7330, 538.6226
220.2151, 529.1611
220.6972, 519.8857
221.1793, 513.0576
221.6614, 510.1582
222.1435, 505.4604
222.6257, 498.7036
223.1078, 490.0957
223.5899, 480.3140
224.0720, 469.3188
224.5541, 457.2905
225.0362, 444.3433
225.5184, 430.6782
226.0005, 415.8008
226.4826, 399.0020
226.9647, 381.3252
227.4468, 365.5571
227.9289, 353.1157
228.4111, 340.7383
228.8932, 326.8252
229.3753, 310.4341
229.8574, 295.0029
230.3395, 280.6636
230.8216, 267.3911
231.3038, 255.2451
231.7859, 245.4355
232.2680, 234.9292
232.7501, 221.6484
233.2322, 201.8813
233.7143, 187.8584
234.1965, 182.0488
234.6786, 181.4219
235.1607, 177.3208
235.6428, 166.8877
236.1249, 156.9570
236.6070, 150.8984
237.0892, 151.5913
237.5713, 149.3638
238.0534, 142.4238
238.5355, 132.9531
239.0176, 126.8203
239.4997, 126.1768
239.9819, 125.7983
240.4640, 123.1777
240.9461, 116.5835
241.4282, 112.1802
241.9103, 111.6724
242.3924, 112.8623
242.8746, 110.2593
243.3567, 101.9668
243.8388, 92.87793
244.3209, 84.86133
244.8030, 78.12695
245.2851, 72.08008
245.7673, 66.44678
246.2494, 61.69775
246.7315, 58.73779
247.2136, 57.42969
247.6957, 58.20215
248.1778, 61.73877
248.6600, 69.38379
249.1421, 75.40576
249.6242, 78.86572
250.1063, 81.26807
250.5884, 85.71484
251.0705, 93.48730
251.5527, 101.0786
252.0348, 107.1270
252.5169, 111.5542
252.9990, 115.0195
253.4811, 117.8774
253.9632, 119.5767
254.4454, 119.0166
254.9275, 115.8491
255.4096, 111.0986
255.8917, 105.1602
256.3738, 98.18555
256.8560, 89.00830
257.3381, 76.37354
257.8202, 62.58643
258.3023, 51.34326
258.7844, 44.26465
259.2665, 36.37158
259.7487, 25.69434
260.2308, 11.62549
260.7129, 0.8071290
261.1950, 11.52100
261.6771, 20.71436
262.1592, 28.54590
262.6414, 34.85254
263.1235, 40.19629
263.6056, 44.79590
264.0877, 48.68213
264.5698, 51.13086
265.0519, 51.76611
265.5341, 51.48730
266.0162, 51.31104
266.4983, 51.43652
266.9804, 51.09521
267.4625, 49.94238
267.9446, 48.02979
268.4268, 45.79980
268.9089, 42.75537
269.3910, 40.49512
269.8731, 41.22900
270.3552, 46.03857
270.8373, 49.71338
271.3195, 51.28223
271.8016, 50.80566
272.2837, 48.47363
272.7658, 43.97119
273.2479, 38.18896
273.7300, 31.18359
274.2122, 22.52148
274.6943, 15.47119
275.1764, 10.89648
275.6585, 8.283691
276.1406, 5.988281
276.6227, 4.490234
277.1049, 1.812988
277.5870, 4.545898
278.0691, 15.09375
278.5512, 23.82422
279.0333, 28.83887
279.5154, 31.78027
279.9976, 38.35449
280.4797, 49.09424
280.9618, 61.12695
281.4439, 74.00586
281.9260, 87.67480
282.4081, 97.25293
282.8903, 101.0420
283.3724, 101.1904
283.8545, 102.2998
284.3366, 104.2075
284.8187, 107.8574
285.3008, 115.1377
285.7830, 125.6611
286.2651, 133.7627
286.7472, 138.5107
287.2293, 141.0942
287.7114, 143.2026
288.1935, 144.8408
288.6757, 146.7642
289.1578, 150.0347
289.6399, 154.0986
290.1220, 156.1831
290.6041, 156.0835
291.0862, 154.2070
291.5684, 150.6885
292.0505, 145.6665
292.5326, 140.2817
293.0147, 134.4033
293.4968, 128.5635
293.9789, 124.5952
294.4611, 122.8042
294.9432, 121.6055
295.4253, 119.5649
295.9074, 116.7178
296.3895, 113.0522
296.8716, 107.1685
297.3538, 100.8247
297.8359, 98.00586
298.3180, 98.82910
298.8001, 100.5991
299.2822, 101.7603
299.7643, 102.0420
300.2465, 100.5029
300.7286, 94.85352
301.2107, 88.53955
301.6928, 86.11914
302.1749, 87.50879
302.6570, 91.28613
303.1392, 99.02832
303.6213, 108.0190
304.1034, 113.0786
304.5855, 110.9292
305.0676, 106.5776
305.5497, 104.4722
306.0319, 104.4980
306.5140, 105.9717
306.9961, 110.2285
307.4782, 114.9727
307.9603, 117.0547
308.4424, 114.0137
308.9246, 111.2241
309.4067, 113.7148
309.8888, 119.9019
310.3709, 125.4614
310.8530, 127.8896
311.3351, 128.6401
311.8173, 128.8979
312.2994, 128.8779
312.7815, 128.3320
313.2636, 125.8735
313.7457, 122.9136
314.2278, 121.9980
314.7100, 126.7861
315.1921, 132.2031
315.6742, 134.8921
316.1563, 134.0796
316.6384, 133.6069
317.1205, 135.7314
317.6027, 138.9946
318.0848, 141.5122
318.5669, 143.8125
319.0490, 144.0327
319.5311, 140.0415
320.0132, 131.5107
320.4954, 125.1431
320.9775, 124.0879
321.4596, 125.3848
321.9417, 126.5103
322.4238, 127.8931
322.9059, 128.1777
323.3881, 126.5156
323.8702, 123.0908
324.3523, 120.2241
324.8344, 120.3467
325.3165, 119.8716
325.7986, 116.7236
326.2808, 104.8604
326.7629, 97.42578
327.2450, 99.03516
327.7271, 106.5991
328.2092, 108.1250
328.6913, 97.54932
329.1735, 86.36768
329.6556, 79.17383
330.1377, 78.90039
330.6198, 77.29785
331.1019, 74.59717
331.5840, 70.50928
332.0662, 64.15479
332.5483, 52.77881
333.0304, 42.60303
333.5125, 36.02490
333.9946, 33.78271
334.4767, 30.31055
334.9589, 24.74561
335.4410, 18.95410
335.9231, 15.30762
336.4052, 14.70605
336.8873, 13.75732
337.3694, 11.85547
337.8515, 9.047363
338.3336, 4.910156
338.8158, 1.136230
339.2979, 7.060547
339.7800, 11.25488
340.2621, 13.60840
340.7442, 13.91016
341.2263, 11.13721
341.7085, 6.666504
342.1906, 6.034668
342.6727, 9.871582
343.1548, 13.48340
343.6369, 13.32861
344.1190, 9.681152
344.6012, 6.487793
345.0833, 4.436523
345.5654, 2.711914
346.0475, 0.1845700
346.5296, 3.109863
347.0117, 7.639648
347.4939, 14.31738
347.9760, 22.36963
348.4581, 29.75244
348.9402, 36.40674
349.4223, 41.96631
349.9044, 45.47559
350.3866, 47.52637
350.8687, 50.17041
351.3508, 55.00781
351.8329, 60.67285
352.3150, 65.02148
352.7971, 68.10205
353.2793, 70.79297
353.7614, 73.93652
354.2435, 77.18701
354.7256, 79.87744
355.2077, 80.95850
355.6898, 82.43701
356.1720, 87.28564
356.6541, 94.53223
357.1362, 100.0278
357.6183, 99.88965
358.1004, 97.77539
358.5826, 97.19287
359.0647, 99.59766
359.5468, 101.4658
360.0289, 99.75879
360.5110, 96.23682
360.9931, 94.25635
361.4753, 97.15332
361.9574, 100.3281
362.4395, 100.9487
362.9216, 98.18652
363.4037, 96.71045
363.8858, 99.80908
364.3680, 104.2183
364.8501, 106.5205
365.3322, 103.6973
365.8143, 101.1772
366.2964, 100.5107
366.7785, 101.7412
367.2607, 102.8726
367.7428, 103.1675
368.2249, 103.8066
368.7070, 105.5508
369.1891, 110.2061
369.6712, 113.5059
370.1534, 113.9624
370.6355, 112.8682
371.1176, 114.4590
371.5997, 120.2964
372.0818, 126.4653
372.5639, 131.5078
373.0461, 135.2705
373.5282, 138.1475
374.0103, 140.2842
374.4924, 141.2637
374.9745, 139.9131
375.4566, 134.9253
375.9388, 131.7451
376.4209, 132.6758
376.9030, 137.4009
377.3851, 140.0728
377.8672, 140.3271
378.3493, 140.1382
378.8315, 142.1704
379.3136, 146.7153
379.7957, 148.9058
380.2778, 146.7515
380.7599, 142.8687
381.2420, 143.6421
381.7242, 148.9844
382.2063, 155.9976
382.6884, 163.4614
383.1705, 171.1533
383.6526, 177.7241
384.1347, 182.5010
384.6169, 187.1138
385.0990, 193.7461
385.5811, 201.8975
386.0632, 209.8208
386.5453, 215.6562
387.0274, 221.5532
387.5096, 230.6865
387.9917, 242.5239
388.4738, 254.0039
388.9559, 261.5254
389.4380, 267.6021
389.9201, 275.5645
390.4023, 287.4863
390.8844, 300.1030
391.3665, 311.6772
391.8486, 322.6470
392.3307, 333.1475
392.8128, 341.1680
393.2950, 349.6079
393.7771, 361.1182
394.2592, 377.7554
394.7413, 393.0815
395.2234, 403.2222
395.7055, 410.8394
396.1877, 420.0381
396.6698, 434.9922
397.1519, 448.1558
397.6340, 456.7900
398.1161, 460.3730
398.5982, 464.8887
399.0804, 471.9102
399.5625, 479.8721
400.0446, 487.3896
400.5267, 495.4360
401.0088, 501.2627
401.4909, 503.4023
401.9731, 503.6284
402.4552, 508.5903
402.9373, 522.2495
403.4194, 534.0767
403.9015, 537.8979
404.3836, 530.3799
404.8658, 528.9600
405.3479, 536.1821
405.8300, 545.9595
406.3121, 548.2529
406.7942, 541.6440
407.2763, 536.4810
407.7585, 536.9502
408.2406, 541.5269
408.7227, 542.3228
409.2048, 539.1978
409.6869, 533.3447
410.1690, 524.8589
410.6512, 514.2378
411.1333, 503.6250
411.6154, 493.3335
412.0975, 483.4316
412.5796, 474.4937
413.0617, 466.1831
413.5439, 456.6714
414.0260, 444.8989
414.5081, 431.2671
414.9902, 416.1323
415.4723, 399.3838
415.9544, 382.4072
416.4366, 367.0469
416.9187, 352.2026
417.4008, 336.2803
417.8829, 316.8159
418.3650, 297.5454
418.8471, 280.0518
419.3293, 264.4585
419.8114, 250.3862
420.2935, 238.2114
420.7756, 227.2368
421.2577, 217.6655
421.7398, 211.2852
422.2220, 202.6318
422.7041, 188.3838
423.1862, 171.3857
423.6683, 156.6982
424.1504, 145.2568
424.6325, 135.6699
425.1147, 128.5293
425.5968, 124.2715
426.0789, 117.5615
426.5610, 106.7397
427.0431, 94.97998
427.5252, 84.60400
428.0074, 74.73145
428.4895, 68.55615
428.9716, 68.07471
429.4537, 70.97119
429.9358, 69.89453
430.4179, 64.13135
430.9001, 56.78369
431.3822, 48.94482
431.8643, 40.58691
432.3464, 32.93018
432.8285, 25.80225
433.3106, 19.97119
433.7928, 16.56299
434.2749, 15.44434
434.7570, 15.75098
435.2391, 18.62402
435.7212, 21.67920
436.2033, 19.23633
436.6855, 11.84131
437.1676, 4.458008
437.6497, 1.5625000E-02
438.1318, 1.953613
438.6139, 1.264160
439.0960, 2.904785
439.5782, 6.642578
440.0603, 5.502930
440.5424, 1.717285
441.0245, 0.5068360
441.5066, 2.405273
441.9887, 5.880371
442.4709, 7.697754
442.9530, 7.722656
443.4351, 5.887695
443.9172, 1.431152
444.3993, 8.588379
444.8814, 11.28125
445.3636, 4.254395
445.8457, 0.9726560
446.3278, 1.596191
446.8099, 0.7016600
447.2920, 1.642090
447.7741, 1.198242
448.2563, 2.858398
448.7384, 1.054199
449.2205, 5.110352
449.7026, 6.991211
450.1847, 2.402832
450.6668, 3.886230
451.1490, 7.582031
451.6311, 8.327637
452.1132, 7.927246
452.5953, 6.040527
453.0774, 3.676758
453.5595, 3.670410
454.0417, 6.203125
454.5238, 9.273926
455.0059, 12.40869
455.4880, 15.26172
455.9701, 15.21094
456.4522, 11.50293
456.9344, 9.126953
457.4165, 15.90820
457.8986, 28.59277
458.3807, 37.68018
458.8628, 38.00684
459.3449, 36.03369
459.8271, 39.75537
460.3092, 47.94434
460.7913, 55.21973
461.2734, 56.92920
461.7555, 57.43994
462.2376, 60.43701
462.7198, 66.61816
463.2019, 74.30273
463.6840, 85.49316
464.1661, 96.75098
464.6482, 103.8989
465.1303, 99.98291
465.6125, 97.52881
466.0946, 101.4546
466.5767, 110.9580
467.0588, 117.2515
467.5409, 117.2231
468.0230, 116.0825
468.5052, 115.9409
468.9873, 116.7358
469.4694, 119.0347
469.9515, 124.1553
470.4336, 129.7383
470.9157, 131.8828
471.3979, 129.1006
471.8800, 128.5107
472.3621, 133.0771
472.8442, 141.2578
473.3263, 144.9233
473.8084, 143.3398
474.2906, 141.2349
474.7727, 143.2144
475.2548, 148.1255
475.7369, 149.7705
476.2190, 146.7344
476.7011, 143.3213
477.1833, 145.8755
477.6654, 152.3467
478.1475, 157.1445
478.6296, 156.5469
479.1117, 154.1782
479.5938, 154.2598
480.0760, 156.2803
480.5581, 156.8198
481.0402, 152.3188
481.5223, 146.5215
482.0044, 142.6475
482.4865, 142.1636
482.9687, 141.3896
483.4508, 138.4692
483.9329, 134.6914
484.4150, 131.9126
484.8971, 131.1948
485.3792, 130.6729
485.8614, 130.0708
486.3435, 129.3325
486.8256, 128.1089
487.3077, 125.6313
487.7898, 123.5908
488.2719, 123.0854
488.7541, 124.8945
489.2362, 125.5981
489.7183, 124.8667
490.2004, 123.3994
490.6825, 122.4116
491.1646, 122.0054
491.6468, 120.8267
492.1289, 118.0508
492.6110, 114.5098
493.0931, 112.4727
493.5752, 112.0322
494.0573, 112.6553
494.5395, 114.8906
495.0216, 117.3452
495.5037, 117.3745
495.9858, 114.5645
496.4679, 111.1719
496.9500, 108.4116
497.4322, 106.2222
497.9143, 104.7715
498.3964, 104.2534
498.8785, 104.9385
499.3606, 108.6494
499.8427, 114.0264
500.3249, 115.5801
500.8070, 106.3936
501.2891, 97.27051
501.7712, 94.51807
502.2533, 102.0747
502.7354, 105.8730
503.2176, 102.5923
503.6997, 96.71924
504.1818, 92.66895
504.6639, 90.49316
505.1460, 89.98633
505.6281, 92.54834
506.1103, 96.53271
506.5924, 94.32031
507.0745, 83.42871
507.5566, 74.22607
508.0387, 73.89307
508.5208, 81.75439
509.0030, 85.24023
509.4851, 84.05371
509.9672, 79.82764
510.4493, 73.12793
510.9314, 64.70117
511.4135, 56.85156
511.8957, 49.86084
512.3778, 44.68896
512.8599, 44.89551
513.3420, 48.35986
513.8242, 48.67041
514.3063, 37.77539
514.7884, 25.84619
515.2705, 22.84033
515.7526, 29.50732
516.2347, 32.62012
516.7169, 21.66846
517.1990, 7.969238
517.6811, 0.2436520
518.1632, 5.507813
518.6453, 9.001465
519.1274, 7.947754
519.6096, 4.281250
520.0917, 1.549316
520.5738, 0.1054690
521.0559, 1.110352
521.5380, 2.681152
522.0201, 4.488770
522.5023, 4.305176
522.9844, 1.516113
523.4665, 1.681641
523.9486, 3.844727
524.4307, 5.041504
524.9128, 5.581543
525.3950, 5.282715
525.8771, 5.056152
526.3592, 6.247559
526.8413, 8.526367
527.3234, 10.93359
527.8055, 14.01807
528.2877, 16.05518
528.7698, 14.42773
529.2519, 9.764648
529.7340, 4.805176
530.2161, 0.8002930
530.6982, 4.804688
531.1804, 4.790039
531.6625, 0.3266600
532.1446, 4.809570
532.6267, 6.999023
533.1088, 7.688477
533.5909, 7.573730
534.0731, 5.227539
534.5552, 4.190918
535.0373, 5.641602
535.5194, 8.482910
536.0015, 9.799805
536.4836, 8.466797
536.9658, 7.770996
537.4479, 8.590332
537.9300, 10.86816
538.4121, 15.49219
538.8942, 23.04834
539.3763, 30.00781
539.8585, 32.78174
540.3406, 32.03320
540.8227, 31.83447
541.3048, 32.76904
541.7869, 33.98096
542.2690, 34.45801
542.7512, 34.37939
543.2333, 34.22070
543.7154, 34.45850
544.1975, 34.48975
544.6796, 34.33496
545.1617, 33.75098
545.6439, 31.57080
546.1260, 25.36328
546.6081, 18.89648
547.0902, 14.44824
547.5723, 12.72412
548.0544, 11.36572
548.5366, 11.04297
549.0187, 10.40625
549.5008, 8.244629
549.9829, 3.708008
550.4650, 0.8696290
550.9471, 5.885254
551.4293, 10.46631
551.9114, 12.13623
552.3935, 10.12939
552.8756, 8.853516
553.3577, 10.68506
553.8398, 14.58301
554.3220, 15.09033
554.8041, 12.07324
555.2862, 9.423340
555.7683, 11.86133
556.2504, 16.52295
556.7325, 17.06152
557.2147, 12.02637
557.6968, 6.343262
558.1789, 5.034180
558.6610, 5.541992
559.1431, 4.101563
559.6252, 4.580078
560.1074, 11.34326
560.5895, 11.00830
561.0716, 5.531250
561.5537, 1.551270
562.0358, 0.4614260
562.5179, 2.2461001E-02
563.0001, 4.257813
563.4822, 12.86670
563.9643, 17.88379
564.4464, 17.14355
564.9285, 15.92920
565.4106, 19.07227
565.8928, 27.83252
566.3749, 32.23682
566.8570, 30.35254
567.3391, 26.66113
567.8212, 28.26172
568.3033, 34.56982
568.7855, 41.15234
569.2676, 46.91602
569.7497, 51.75977
570.2318, 54.64795
570.7139, 56.16602
571.1960, 59.20801
571.6782, 68.08838
572.1603, 77.35352
572.6424, 80.95117
573.1245, 77.93457
573.6066, 78.18896
574.0887, 89.70850
574.5709, 103.4482
575.0530, 112.4331
575.5351, 111.7241
576.0172, 112.3257
576.4993, 114.4399
576.9814, 118.0361
577.4636, 123.2988
577.9457, 131.0488
578.4278, 138.1133
578.9099, 142.8579
579.3920, 146.4492
579.8741, 154.4229
580.3563, 167.1909
580.8384, 179.4204
581.3205, 187.4473
581.8026, 192.3740
582.2847, 196.7559
582.7668, 200.6519
583.2490, 205.1289
583.7311, 212.5649
584.2131, 220.5283
584.6953, 225.4531
585.1774, 224.7183
585.6595, 225.0342
586.1416, 230.0771
586.6237, 238.3374
587.1058, 247.5991
587.5880, 261.7290
588.0701, 272.0098
588.5522, 274.8979
589.0343, 272.0181
589.5164, 269.5908
589.9985, 265.9463
590.4807, 265.1704
590.9628, 270.3052
591.4449, 281.5229
591.9270, 286.9463
592.4091, 285.4175
592.8912, 282.8374
593.3734, 285.2153
593.8555, 291.3218
594.3376, 295.1963
594.8197, 295.6621
595.3018, 295.2407
595.7839, 297.2510
596.2661, 300.3877
596.7482, 302.0493
597.2303, 299.3750
597.7124, 297.0493
598.1945, 298.3384
598.6766, 302.3501
599.1588, 306.3521
599.6409, 308.9541
600.1230, 312.0273
600.6051, 317.1001
601.0872, 324.4077
601.5693, 328.6157
602.0515, 327.4458
602.5336, 326.1006
603.0157, 327.7534
603.4978, 332.7544
603.9799, 338.4629
604.4620, 345.0630
604.9442, 351.5020
605.4263, 356.8291
605.9084, 361.1548
606.3905, 363.4780
606.8726, 362.2026
607.3547, 360.5571
607.8369, 364.3296
608.3190, 371.7095
608.8011, 377.6982
609.2832, 378.2578
609.7653, 377.4443
610.2474, 378.0972
610.7296, 380.1211
611.2117, 381.9004
611.6938, 380.1558
612.1759, 380.4111
612.6580, 386.8760
613.1401, 402.4395
613.6223, 410.7051
614.1044, 408.0381
614.5865, 402.8071
615.0686, 402.4932
615.5507, 407.7075
616.0328, 412.6719
616.5150, 416.6396
616.9971, 420.7607
617.4792, 426.8813
617.9613, 434.6318
618.4434, 442.8350
618.9255, 451.0874
619.4077, 459.7524
619.8898, 468.8926
620.3719, 478.8472
620.8540, 490.5723
621.3361, 505.3169
621.8182, 521.1328
622.3004, 537.0630
622.7825, 552.9814
623.2646, 569.1211
623.7467, 582.8457
624.2288, 598.9023
624.7109, 620.3857
625.1931, 650.2681
625.6752, 674.8472
626.1573, 692.2461
626.6394, 707.4917
627.1215, 725.8730
627.6036, 747.3828
628.0858, 768.6641
628.5679, 789.4209
629.0500, 809.1572
629.5321, 826.4966
630.0142, 842.0557
630.4963, 857.2407
630.9785, 873.6406
631.4606, 889.2104
631.9427, 901.9136
632.4248, 912.3550
632.9069, 922.3521
633.3890, 935.2891
633.8712, 945.5439
634.3533, 949.8760
634.8354, 947.7319
635.3175, 945.8447
635.7996, 945.3945
636.2817, 944.0850
636.7639, 940.7324
637.2460, 935.2720
637.7281, 927.7554
638.2102, 918.3130
638.6923, 905.9463
639.1744, 888.8599
639.6566, 867.6265
640.1387, 844.9009
640.6208, 821.7217
641.1029, 796.9580
641.5850, 767.7651
642.0671, 736.4868
642.5493, 707.0991
643.0314, 687.3379
643.5135, 664.6069
643.9956, 629.4399
644.4777, 585.8735
644.9598, 545.9585
645.4420, 515.0439
645.9241, 485.7764
646.4062, 456.3730
646.8883, 427.0327
647.3704, 397.9307
647.8525, 368.7979
648.3347, 340.9370
648.8168, 316.4761
649.2989, 294.9365
649.7810, 270.7554
650.2631, 243.4556
650.7452, 217.5728
651.2274, 198.7612
651.7095, 184.6675
652.1916, 170.1558
652.6737, 154.2202
653.1558, 138.6577
653.6379, 124.8013
654.1201, 111.9844
654.6022, 99.23389
655.0843, 84.41602
655.5664, 71.69434
656.0485, 64.04492
656.5306, 59.09326
657.0128, 50.73242
657.4949, 34.86475
657.9770, 23.53320
658.4591, 21.39014
658.9412, 26.40283
659.4233, 28.87402
659.9055, 28.29541
660.3876, 25.60156
660.8697, 20.88574
661.3518, 14.71631
661.8339, 7.820801
662.3160, 0.3364260
662.7982, 6.380371
663.2803, 12.78027
663.7624, 16.89062
664.2445, 15.42480
664.7266, 6.803223
665.2087, 0.6572270
665.6909, 3.863281
666.1730, 9.049316
666.6551, 9.828125
667.1372, 3.131348
667.6193, 2.578125
668.1014, 6.347168
668.5836, 9.578613
669.0657, 14.83936
669.5478, 22.47168
670.0299, 27.66211
670.5120, 28.78955
670.9941, 28.17236
671.4763, 30.02539
671.9584, 33.80811
672.4405, 37.24170
672.9226, 38.25000
673.4047, 39.41357
673.8868, 44.70850
674.3690, 52.42627
674.8511, 56.65479
675.3332, 49.15869
675.8153, 43.22852
676.2974, 45.35107
676.7795, 56.08252
677.2617, 65.93115
677.7438, 74.67871
678.2259, 82.90820
678.7080, 90.79590
679.1901, 98.33447
679.6722, 106.2490
680.1544, 114.5542
680.6365, 123.7007
681.1186, 134.8687
681.6007, 147.2026
682.0828, 158.9526
682.5649, 169.7979
683.0471, 179.7886
683.5292, 188.0122
684.0113, 195.5317
684.4934, 203.4043
684.9755, 211.8965
685.4576, 220.8306
685.9398, 229.9292
686.4219, 239.5898
686.9040, 250.4839
687.3861, 262.9370
687.8682, 276.1602
688.3503, 290.5176
688.8325, 305.3208
689.3146, 318.5176
689.7967, 330.1157
690.2788, 340.5244
690.7609, 349.9805
691.2430, 358.2422
691.7252, 364.1631
692.2073, 368.3540
692.6894, 373.3013
693.1715, 383.6753
693.6536, 392.6733
694.1357, 394.8296
694.6179, 390.0415
695.1000, 383.9941
695.5821, 377.5967
696.0642, 370.4697
696.5463, 362.5742
697.0284, 353.9922
697.5106, 344.3452
697.9927, 334.4775
698.4748, 321.6592
698.9569, 301.6128
699.4390, 275.6621
699.9211, 256.1245
700.4033, 244.6992
700.8854, 233.9448
701.3675, 215.0923
701.8496, 192.4067
702.3317, 172.4478
702.8138, 157.2817
703.2960, 144.1611
703.7781, 132.9746
704.2602, 122.5303
704.7423, 111.3633
705.2244, 96.25342
705.7065, 84.04883
706.1887, 75.08887
706.6708, 69.15576
707.1529, 66.82178
707.6350, 69.15820
708.1171, 67.68311
708.5992, 58.72168
709.0814, 46.39111
709.5635, 39.38184
710.0456, 36.77148
710.5277, 34.28906
711.0098, 28.64941
711.4919, 23.21484
711.9741, 21.90283
712.4562, 23.67090
712.9383, 24.14062
713.4204, 20.50830
713.9025, 16.48389
714.3846, 14.52295
714.8668, 14.48926
715.3489, 10.57275
715.8310, 0.4013670
716.3131, 9.299316
716.7952, 10.33398
717.2773, 4.115234
717.7595, 0.1997070
718.2416, 1.281738
718.7237, 1.941895
719.2058, 3.472168
719.6879, 4.862793
720.1700, 4.333496
720.6522, 1.570313
721.1343, 2.105469
721.6164, 7.461426
722.0985, 12.10010
722.5806, 13.78906
723.0627, 10.81152
723.5449, 9.183594
724.0270, 10.53857
724.5091, 12.02441
724.9912, 10.58838
725.4733, 5.769043
725.9554, 1.854004
726.4376, 0.5693360
726.9197, 2.740723
727.4018, 6.011230
727.8839, 10.39697
728.3660, 16.11279
728.8481, 23.91650
729.3303, 30.79150
729.8124, 33.68994
730.2945, 34.42578
730.7766, 35.48389
731.2587, 37.18213
731.7408, 39.31592
732.2230, 41.82227
732.7051, 44.83887
733.1872, 48.67090
733.6693, 53.39844
734.1514, 58.74609
734.6335, 65.14014
735.1157, 71.69482
735.5978, 76.11914
736.0799, 78.56250
736.5620, 79.99902
737.0441, 78.91650
737.5262, 78.71240
738.0084, 84.85400
738.4905, 95.52393
738.9726, 104.4775
739.4547, 106.4165
739.9368, 108.5239
740.4189, 115.5312
740.9011, 126.8779
741.3832, 131.9092
741.8653, 125.9863
742.3474, 122.1997
742.8295, 127.6519
743.3116, 140.4727
743.7938, 144.2598
744.2759, 138.6904
744.7580, 133.4404
745.2401, 136.9443
745.7222, 144.3174
746.2043, 148.2173
746.6865, 148.4951
747.1686, 147.8164
747.6507, 148.0996
748.1328, 147.8218
748.6149, 145.5850
749.0970, 140.6689
749.5792, 137.4663
750.0613, 137.0791
750.5434, 137.3066
751.0255, 136.1680
751.5076, 133.2344
751.9897, 134.9482
752.4719, 142.2939
752.9540, 148.8735
753.4361, 147.5962
753.9182, 141.7202
754.4003, 137.0127
754.8824, 133.4614
755.3646, 131.8379
755.8467, 137.4722
756.3288, 142.8369
756.8109, 139.7827
757.2930, 119.7168
757.7751, 106.5625
758.2573, 105.5801
758.7394, 108.2729
759.2215, 105.9268
759.7036, 97.32568
760.1857, 92.31787
760.6678, 92.29932
761.1500, 93.21094
761.6321, 88.89258
762.1142, 81.76562
762.5963, 77.80664
763.0784, 79.36328
763.5605, 81.89844
764.0427, 84.50684
764.5248, 85.20752
765.0069, 81.46680
765.4890, 65.40771
765.9711, 54.65283
766.4532, 53.27979
766.9354, 56.07910
767.4175, 55.26025
767.8996, 50.20898
768.3817, 45.79785
768.8638, 42.70850
769.3459, 40.57471
769.8281, 39.08301
770.3102, 38.13477
770.7923, 37.59424
771.2744, 38.28027
771.7565, 38.20459
772.2386, 34.19531
772.7208, 28.75830
773.2029, 26.16211
773.6850, 30.86328
774.1671, 33.51660
774.6492, 32.69336
775.1313, 30.21680
775.6135, 28.79736
776.0956, 28.29785
776.5777, 28.18652
777.0598, 28.64893
777.5419, 28.97559
778.0240, 27.30469
778.5062, 24.23438
778.9883, 21.89355
779.4704, 21.56104
779.9525, 21.82764
780.4346, 22.77002
780.9167, 24.08496
781.3989, 24.33496
781.8810, 22.27930
782.3631, 19.91846
782.8452, 17.78711
783.3273, 15.99121
783.8094, 14.13818
784.2916, 12.15088
784.7737, 9.996094
785.2558, 7.072754
785.7379, 4.717773
786.2200, 6.684570
786.7021, 11.62109
787.1843, 14.67920
787.6664, 10.96436
788.1485, 7.313965
788.6306, 7.787109
789.1127, 11.56055
789.5948, 15.20410
790.0770, 17.82373
790.5591, 21.12012
791.0412, 25.62793
791.5233, 30.94238
792.0054, 35.59619
792.4875, 39.43164
792.9697, 44.18994
793.4518, 51.56934
793.9339, 59.31201
794.4160, 63.86865
794.8981, 65.59961
795.3802, 65.79004
795.8624, 63.31494
796.3445, 61.14697
796.8266, 60.67725
797.3087, 61.79053
797.7908, 63.68115
798.2729, 67.64502
798.7551, 70.10107
799.2372, 70.30566
799.7193, 68.32324
800.2014, 62.91113
800.6835, 54.50146
801.1656, 48.30322
801.6478, 48.76465
802.1299, 51.52393
802.6120, 52.24121
803.0941, 51.00049
803.5762, 48.13525
804.0583, 41.44482
804.5405, 35.41748
805.0226, 31.82715
805.5047, 30.20557
805.9868, 29.27295
806.4689, 29.35107
806.9510, 28.67383
807.4332, 25.90039
807.9153, 22.44336
808.3974, 23.69531
808.8795, 28.64795
809.3616, 31.43945
809.8438, 29.20264
810.3259, 23.45752
810.8080, 12.40234
811.2901, 1.453613
811.7722, 10.41162
812.2543, 8.479980
812.7365, 5.795410
813.2186, 5.131836
813.7007, 5.578125
814.1828, 3.105957
814.6649, 2.928223
815.1470, 6.404297
815.6292, 4.082031
816.1113, 1.313477
816.5934, 5.948242
817.0755, 9.516602
817.5576, 10.83301
818.0397, 6.780762
818.5219, 2.943848
819.0040, 2.150391
819.4861, 3.815918
819.9682, 6.107910
820.4503, 9.437988
820.9324, 12.19287
821.4146, 14.19824
821.8967, 15.16064
822.3788, 13.44043
822.8609, 9.303223
823.3430, 6.895508
823.8251, 8.220215
824.3073, 11.37695
824.7894, 15.23828
825.2715, 19.08936
825.7536, 21.44824
826.2357, 21.53223
826.7178, 20.37256
827.2000, 16.97949
827.6821, 12.89307
828.1642, 11.36768
828.6463, 13.35547
829.1284, 14.47607
829.6105, 14.16357
830.0927, 11.97461
830.5748, 5.532715
831.0569, 3.873047
831.5390, 11.90039
832.0211, 17.10840
832.5032, 20.33057
832.9854, 21.15479
833.4675, 20.65332
833.9496, 20.37207
834.4317, 16.49951
834.9138, 19.20996
835.3959, 32.60400
835.8781, 49.42383
836.3602, 57.87061
836.8423, 57.83936
837.3244, 60.28564
837.8065, 67.82129
838.2886, 76.47412
838.7708, 80.61572
839.2529, 82.94873
839.7350, 88.23438
840.2171, 99.64990
840.6992, 110.2388
841.1813, 116.9062
841.6635, 122.0923
842.1456, 128.1841
842.6277, 134.4971
843.1098, 144.6079
843.5919, 160.4917
844.0740, 175.7822
844.5562, 180.2837
845.0383, 177.8228
845.5204, 179.5103
846.0025, 187.2842
846.4846, 198.2969
846.9667, 213.9321
847.4489, 229.9253
847.9310, 241.5449
848.4131, 245.4546
848.8952, 252.7852
849.3773, 265.9307
849.8594, 279.6113
850.3416, 289.1284
850.8237, 294.6270
851.3058, 303.1367
851.7879, 315.1274
852.2700, 327.5352
852.7521, 338.0234
853.2343, 347.6836
853.7164, 358.3330
854.1985, 370.1333
854.6806, 380.1025
855.1627, 387.0024
855.6448, 391.9116
856.1270, 394.8711
856.6091, 395.7954
857.0912, 398.8022
857.5733, 404.3267
858.0554, 408.9102
858.5375, 409.4243
859.0197, 407.6362
859.5018, 407.9614
859.9839, 409.9346
860.4660, 410.7085
860.9481, 409.3511
861.4302, 405.7793
861.9124, 399.6807
862.3945, 391.1216
862.8766, 381.2827
863.3587, 370.1392
863.8408, 358.0708
864.3229, 344.1216
864.8051, 330.2788
865.2872, 324.5068
865.7693, 325.3799
866.2514, 324.6323
866.7335, 318.0210
867.2156, 308.4106
867.6978, 295.2427
868.1799, 280.9858
868.6620, 271.1367
869.1441, 270.8335
869.6262, 269.4180
870.1083, 266.1743
870.5905, 261.6318
871.0726, 256.3843
871.5547, 250.3740
872.0368, 245.1074
872.5189, 241.3784
873.0010, 237.5640
873.4832, 230.1265
873.9653, 221.8599
874.4474, 217.8696
874.9295, 223.4854
875.4116, 226.8237
875.8937, 222.2773
876.3759, 216.4507
876.8580, 215.8281
877.3401, 221.5322
877.8222, 224.8994
878.3043, 225.0571
878.7864, 223.6479
879.2686, 222.7495
879.7507, 221.5186
880.2328, 217.7852
880.7149, 210.9819
881.1970, 205.7412
881.6791, 206.7612
882.1613, 208.0830
882.6434, 204.6709
883.1255, 195.3379
883.6076, 191.5435
884.0897, 195.2686
884.5718, 198.9531
885.0540, 197.4731
885.5361, 192.0527
886.0182, 185.2402
886.5003, 177.2373
886.9824, 170.9536
887.4645, 168.9492
887.9467, 168.5527
888.4288, 168.7793
888.9109, 169.1763
889.3930, 168.4160
889.8751, 166.8037
890.3572, 162.8071
890.8394, 154.5986
891.3215, 144.7075
891.8036, 141.5781
892.2857, 143.9683
892.7678, 144.9907
893.2499, 141.4473
893.7321, 135.7490
894.2142, 127.2715
894.6963, 118.4160
895.1784, 113.8818
895.6605, 119.1934
896.1426, 122.2368
896.6248, 121.8755
897.1069, 119.1118
897.5890, 114.3413
898.0711, 107.9536
898.5532, 104.1538
899.0353, 103.7749
899.5175, 105.3750
899.9996, 108.1973
900.4817, 111.8882
900.9638, 116.2490
901.4459, 122.1064
901.9280, 125.9541
902.4102, 125.5503
902.8923, 125.2925
903.3744, 128.9414
903.8565, 136.6270
904.3386, 140.3765
904.8207, 139.9531
905.3029, 140.2754
905.7850, 146.3066
906.2671, 154.3882
906.7492, 160.7925
907.2313, 165.3516
907.7134, 169.5200
908.1956, 171.0942
908.6777, 175.6504
909.1598, 187.0776
909.6419, 202.9316
910.1240, 209.5762
910.6061, 206.8574
911.0883, 205.4546
911.5704, 209.3882
912.0525, 217.7246
912.5346, 232.8037
913.0167, 251.0518
913.4988, 264.7168
913.9810, 265.3057
914.4631, 268.3589
914.9452, 277.5435
915.4273, 290.4233
915.9094, 303.9868
916.3915, 318.1562
916.8737, 332.4751
917.3558, 346.7627
917.8379, 361.5874
918.3200, 379.3999
918.8021, 397.4102
919.2842, 410.6235
919.7664, 416.4126
920.2485, 424.6875
920.7306, 441.1265
921.2127, 458.7075
921.6948, 472.9722
922.1769, 483.6860
922.6591, 494.6196
923.1412, 505.6973
923.6233, 517.7812
924.1054, 533.9482
924.5875, 550.2041
925.0696, 559.9316
925.5518, 564.2104
926.0339, 569.6440
926.5160, 584.2646
926.9981, 593.9927
927.4802, 590.8711
927.9623, 580.4565
928.4445, 581.4995
928.9266, 595.2588
929.4087, 605.1919
929.8908, 606.0435
930.3729, 601.7314
930.8550, 594.8447
931.3372, 587.2969
931.8193, 582.8140
932.3014, 584.9238
932.7835, 586.3970
933.2656, 585.5083
933.7477, 583.5137
934.2299, 582.0283
934.7120, 581.5244
935.1941, 575.4482
935.6762, 562.7837
936.1583, 549.8047
936.6404, 542.3276
937.1226, 537.9863
937.6047, 535.5718
938.0868, 535.2036
938.5689, 531.4414
939.0510, 518.8330
939.5331, 505.0757
940.0153, 492.9360
940.4974, 482.4224
940.9795, 471.7056
941.4616, 460.4941
941.9437, 451.7148
942.4258, 448.7681
942.9080, 446.5938
943.3901, 439.0635
943.8722, 427.9644
944.3543, 417.0010
944.8364, 407.4009
945.3185, 398.1060
945.8007, 388.3252
946.2828, 379.6333
946.7649, 375.1816
947.2470, 374.8062
947.7291, 370.4761
948.2112, 360.7612
948.6934, 349.9429
949.1755, 341.1792
949.6576, 333.8657
950.1397, 327.3066
950.6218, 321.4482
951.1039, 315.4717
951.5861, 307.3071
952.0682, 301.7798
952.5503, 302.7134
953.0324, 308.6396
953.5145, 309.3291
953.9966, 305.0327
954.4788, 298.7998
954.9609, 290.5796
955.4430, 282.7407
955.9251, 276.7188
956.4072, 272.6147
956.8893, 270.8447
957.3715, 274.5718
957.8536, 275.1411
958.3357, 270.9565
958.8178, 263.9053
959.2999, 254.2710
959.7820, 243.7681
960.2642, 242.1621
960.7463, 252.8501
961.2284, 262.7451
961.7105, 260.2969
962.1926, 254.1514
962.6747, 253.0034
963.1569, 260.0073
963.6390, 258.1050
964.1211, 243.8491
964.6032, 229.9746
965.0853, 226.1436
965.5674, 228.4116
966.0496, 225.7100
966.5317, 218.7876
967.0138, 210.8525
967.4959, 199.2861
967.9780, 191.8755
968.4601, 198.3003
968.9423, 210.6528
969.4244, 209.7480
969.9065, 191.2969
970.3886, 178.3462
970.8707, 175.7041
971.3528, 176.7891
971.8350, 172.5088
972.3171, 165.5640
972.7992, 160.8813
973.2813, 159.7290
973.7634, 158.8848
974.2455, 157.1255
974.7277, 155.2480
975.2098, 153.7358
975.6919, 152.5752
976.1740, 151.3740
976.6561, 150.0869
977.1382, 149.3408
977.6204, 150.5049
978.1025, 151.6680
978.5846, 150.4390
979.0667, 147.2861
979.5488, 143.5762
980.0309, 140.7642
980.5131, 135.8071
980.9952, 127.0527
981.4773, 117.1309
981.9594, 110.9868
982.4415, 108.0518
982.9236, 103.6421
983.4058, 97.00977
983.8879, 88.68359
984.3700, 78.18555
984.8521, 66.83838
985.3342, 55.59814
985.8163, 44.37061
986.2985, 34.80713
986.7806, 26.74414
987.2627, 20.97803
987.7448, 19.37695
988.2269, 19.84912
988.7090, 15.23682
989.1912, 6.665527
989.6733, 1.474609
990.1554, 6.185547
990.6375, 10.66504
991.1196, 16.79395
991.6017, 23.29004
992.0839, 28.15479
992.5660, 31.59668
993.0481, 32.48145
993.5302, 30.62646
994.0123, 26.70215
994.4944, 18.73340
994.9766, 10.32764
995.4587, 9.090820
995.9408, 16.72607
996.4229, 21.33740
996.9050, 15.27637
997.3871, 9.432129
997.8693, 8.812500
998.3514, 12.41943
998.8335, 14.20117
999.3156, 14.24658
999.7977, 13.15723
1000.280, 10.31738
1000.762, 7.317383
1001.244, 5.390625
1001.726, 4.057129
1002.208, 2.809570
1002.690, 1.414551
1003.173, 0.1855470
1003.655, 1.056152
1004.137, 2.906738
1004.619, 6.289063
1005.101, 10.49219
1005.583, 13.50293
1006.065, 15.27930
1006.547, 16.62744
1007.029, 15.79541
1007.512, 16.60498
1007.994, 23.59082
1008.476, 34.56494
1008.958, 38.49414
1009.440, 33.54785
1009.922, 31.44092
1010.404, 36.55566
1010.886, 44.25732
1011.369, 50.23242
1011.851, 53.71875
1012.333, 53.01318
1012.815, 45.42432
1013.297, 39.52637
1013.779, 36.57275
1014.261, 36.31348
1014.743, 39.19092
1015.225, 45.16406
1015.708, 52.16504
1016.190, 60.12012
1016.672, 65.94775
1017.154, 65.70508
1017.636, 64.21045
1018.118, 63.12695
1018.600, 63.54688
1019.082, 69.26318
1019.565, 84.32812
1020.047, 92.80713
1020.529, 90.09424
1021.011, 84.76025
1021.493, 90.62061
1021.975, 102.2090
1022.457, 107.1152
1022.939, 102.3564
1023.421, 98.77148
1023.904, 103.4897
1024.386, 108.2310
1024.868, 108.4272
1025.350, 104.6904
1025.832, 102.3477
1026.314, 101.4722
1026.796, 102.0854
1027.278, 104.9614
1027.760, 108.5425
1028.243, 112.3906
1028.725, 115.6572
1029.207, 116.8188
1029.689, 114.4258
1030.171, 111.9502
1030.653, 109.0439
1031.135, 106.6719
1031.617, 106.1494
1032.100, 106.7554
1032.582, 105.9302
1033.064, 103.8516
1033.546, 103.2192
1034.028, 102.5703
1034.510, 105.7490
1034.992, 119.1533
1035.474, 137.5103
1035.957, 143.9946
1036.439, 138.0020
1036.921, 131.9209
1037.403, 128.5659
1037.885, 126.3589
1038.367, 124.3140
1038.849, 122.0498
1039.331, 118.8774
1039.813, 114.0371
1040.296, 110.8042
1040.778, 109.3354
1041.260, 109.2944
1041.742, 111.4956
1042.224, 114.6562
1042.706, 113.7593
1043.188, 109.7520
1043.670, 106.3545
1044.152, 106.5781
1044.635, 106.2617
1045.117, 102.9531
1045.599, 98.48389
1046.081, 95.99658
1046.563, 96.31201
1047.045, 90.34961
1047.527, 76.95020
1048.009, 64.06250
1048.492, 60.33008
1048.974, 59.98486
1049.456, 57.87109
1049.938, 53.72998
1050.420, 47.66602
1050.902, 39.28662
1051.384, 30.30273
1051.866, 19.92627
1052.349, 11.43994
1052.831, 13.27246
1053.313, 21.31299
1053.795, 24.47656
1054.277, 19.31885
1054.759, 13.70508
1055.241, 8.997070
1055.723, 6.449707
1056.205, 7.256836
1056.688, 11.34033
1057.170, 14.16113
1057.652, 15.76807
1058.134, 15.04980
1058.616, 9.551758
1059.098, 3.482422
1059.580, 1.679199
1060.062, 1.943848
1060.544, 0.1435550
1061.027, 9.302734
1061.509, 11.57324
1061.991, 4.499512
1062.473, 4.043945
1062.955, 5.104492
1063.437, 2.263184
1063.919, 4.662109
1064.401, 11.80615
1064.884, 15.50195
1065.366, 7.687500
1065.848, 1.150391
1066.330, 0.3598630
1066.812, 3.003906
1067.294, 4.220215
1067.776, 4.177246
1068.258, 4.466797
1068.740, 5.480957
1069.223, 6.728516
1069.705, 8.206543
1070.187, 9.436523
1070.669, 9.920410
1071.151, 9.619141
1071.633, 9.343750
1072.115, 9.254395
1072.597, 8.117188
1073.079, 4.405273
1073.562, 0.6069340
1074.044, 0.5449220
1074.526, 3.157715
1075.008, 6.552246
1075.490, 11.20508
1075.972, 14.72949
1076.454, 16.58154
1076.936, 17.98584
1077.419, 20.61572
1077.901, 23.71143
1078.383, 22.86035
1078.865, 18.61572
1079.347, 15.18213
1079.829, 14.81934
1080.311, 15.76416
1080.793, 18.13867
1081.275, 20.82812
1081.758, 21.75830
1082.240, 20.70898
1082.722, 21.60938
1083.204, 25.19092
1083.686, 27.92285
1084.168, 25.96289
1084.650, 22.32666
1085.132, 20.37256
1085.615, 20.16113
1086.097, 16.87158
1086.579, 9.342285
1087.061, 2.541992
1087.543, 2.017090
1088.025, 4.860352
1088.507, 6.569336
1088.989, 7.077148
1089.471, 5.906250
1089.953, 2.020996
1090.436, 6.7870997E-02
1090.918, 4.213867
1091.400, 6.166992
1091.882, 0.1206050
1092.364, 11.24609
1092.846, 15.19824
1093.328, 13.01514
1093.810, 11.21436
1094.293, 12.26953
1094.775, 14.92188
1095.257, 19.78369
1095.739, 25.12451
1096.221, 29.28174
1096.703, 32.28076
1097.185, 32.60107
1097.667, 30.05811
1098.150, 30.09668
1098.632, 39.65869
1099.114, 50.96045
1099.596, 57.20361
1100.078, 59.59619
1100.560, 62.93652
1101.042, 68.35352
1101.524, 71.79688
1102.006, 72.36377
1102.489, 72.11377
1102.971, 74.66211
1103.453, 77.37891
1103.935, 75.47119
1104.417, 68.70703
1104.899, 62.91748
1105.381, 58.93408
1105.863, 57.53809
1106.345, 60.52930
1106.828, 64.47168
1107.310, 59.90820
1107.792, 50.07568
1108.274, 45.39990
1108.756, 49.35205
1109.238, 53.45898
1109.720, 53.25342
1110.202, 52.05518
1110.685, 51.65820
1111.167, 52.25342
1111.649, 55.63525
1112.131, 61.21631
1112.613, 63.70215
1113.095, 58.50342
1113.577, 53.46191
1114.059, 56.24658
1114.542, 61.31641
1115.024, 61.50977
1115.506, 55.09326
1115.988, 51.78027
1116.470, 51.67676
1116.952, 52.20020
1117.434, 50.89355
1117.916, 50.28564
1118.398, 55.19531
1118.880, 62.07373
1119.363, 63.42432
1119.845, 55.19922
1120.327, 49.96631
1120.809, 48.39795
1121.291, 48.39404
1121.773, 48.69336
1122.255, 49.27637
1122.737, 50.78076
1123.220, 52.50439
1123.702, 51.09863
1124.184, 42.29053
1124.666, 35.09375
1125.148, 31.11475
1125.630, 29.08252
1126.112, 25.57178
1126.594, 22.53760
1127.077, 28.38086
1127.559, 44.79590
1128.041, 56.22461
1128.523, 50.00879
1129.005, 42.74365
1129.487, 41.97412
1129.969, 45.53223
1130.451, 46.93359
1130.933, 46.25391
1131.416, 44.32617
1131.898, 40.89453
1132.380, 38.85938
1132.862, 41.15186
1133.344, 44.60254
1133.826, 46.16406
1134.308, 45.98486
1134.790, 49.08008
1135.272, 55.54688
1135.755, 60.50928
1136.237, 62.02588
1136.719, 61.24658
1137.201, 58.10938
1137.683, 54.04053
1138.165, 50.81006
1138.647, 48.35693
1139.129, 48.65820
1139.612, 52.70361
1140.094, 54.12207
1140.576, 45.46582
1141.058, 34.89209
1141.540, 34.19434
1142.022, 39.21045
1142.504, 41.01660
1142.986, 35.29834
1143.469, 31.24854
1143.951, 29.04688
1144.433, 28.32617
1144.915, 29.94434
1145.397, 32.16162
1145.879, 30.86768
1146.361, 27.32422
1146.843, 26.69043
1147.325, 36.80078
1147.807, 40.76855
1148.290, 34.05029
1148.772, 24.44141
1149.254, 22.36523
1149.736, 25.85400
1150.218, 29.35742
1150.700, 32.02539
1151.182, 31.80078
1151.664, 23.02197
1152.147, 17.51123
1152.629, 19.79883
1153.111, 25.57520
1153.593, 26.64697
1154.075, 24.10254
1154.557, 22.73877
1155.039, 23.36133
1155.521, 23.36475
1156.004, 19.58789
1156.486, 17.02979
1156.968, 19.14990
1157.450, 23.57080
1157.932, 22.18066
1158.414, 15.82812
1158.896, 9.947266
1159.378, 5.509277
1159.860, 3.804199
1160.343, 8.554688
1160.825, 13.89062
1161.307, 15.47119
1161.789, 13.85645
1162.271, 13.15723
1162.753, 13.36328
1163.235, 14.50977
1163.717, 16.94287
1164.199, 19.34521
1164.682, 20.73291
1165.164, 21.29639
1165.646, 20.87744
1166.128, 19.32617
1166.610, 19.07471
1167.092, 20.09668
1167.574, 21.76416
1168.056, 24.75342
1168.539, 26.75586
1169.021, 25.51660
1169.503, 22.15869
1169.985, 17.70068
1170.467, 11.32373
1170.949, 9.749512
1171.431, 13.72314
1171.913, 16.82764
1172.396, 13.54834
1172.878, 8.718262
1173.360, 6.034180
1173.842, 5.866699
1174.324, 9.365723
1174.806, 18.26172
1175.288, 25.75928
1175.770, 31.83691
1176.252, 35.18799
1176.734, 33.35889
1177.217, 29.11035
1177.699, 24.25000
1178.181, 19.73926
1178.663, 18.79736
1179.145, 23.96875
1179.627, 26.98682
1180.109, 26.85205
1180.591, 25.59375
1181.074, 25.43164
1181.556, 25.19482
1182.038, 22.62744
1182.520, 18.38916
1183.002, 15.85010
1183.484, 17.28369
1183.966, 16.59180
1184.448, 12.26562
1184.931, 8.495605
1185.413, 11.86328
1185.895, 17.90625
1186.377, 18.82666
1186.859, 14.77100
1187.341, 11.79590
1187.823, 11.11621
1188.305, 11.44482
1188.787, 13.27539
1189.270, 13.89697
1189.752, 6.020996
1190.234, 4.140137
1190.716, 4.363281
1191.198, 6.214844
1191.680, 14.36230
1192.162, 17.72559
1192.644, 17.55371
1193.126, 13.17627
1193.609, 7.493652
1194.091, 6.158203
1194.573, 6.663086
1195.055, 3.053223
1195.537, 5.882324
1196.019, 9.646973
1196.501, 4.114258
1196.983, 3.391113
1197.466, 11.48047
1197.948, 19.11523
1198.430, 25.18262
1198.912, 29.22607
1199.394, 29.67139
1199.876, 25.23828
1200.358, 23.63428
1200.840, 27.99316
1201.323, 31.47314
1201.805, 31.97119
1202.287, 29.76904
1202.769, 23.54980
1203.251, 15.51318
1203.733, 10.49316
1204.215, 10.07715
1204.697, 10.82910
1205.179, 12.85254
1205.661, 14.96436
1206.144, 17.41748
1206.626, 18.92041
1207.108, 14.82764
1207.590, 7.710938
1208.072, 2.780273
1208.554, 1.029785
1209.036, 3.935547
1209.518, 14.48975
1210.001, 22.53369
1210.483, 21.04248
1210.965, 15.03613
1211.447, 16.44043
1211.929, 22.26270
1212.411, 25.77979
1212.893, 23.13525
1213.375, 23.44092
1213.858, 28.90576
1214.340, 34.70215
1214.822, 38.93164
1215.304, 41.13477
1215.786, 38.75781
1216.268, 33.75098
1216.750, 30.67578
1217.232, 33.51074
1217.714, 32.01855
1218.197, 22.92725
1218.679, 15.29980
1219.161, 15.66113
1219.643, 20.83643
1220.125, 25.29443
1220.607, 28.88135
1221.089, 31.37451
1221.571, 33.16455
1222.053, 32.35547
1222.536, 27.85547
1223.018, 23.48975
1223.500, 21.86230
1223.982, 22.10254
1224.464, 23.08545
1224.946, 24.52393
1225.428, 25.72461
1225.910, 27.97998
1226.393, 26.83350
1226.875, 20.99561
1227.357, 15.58301
1227.839, 14.92529
1228.321, 16.69092
1228.803, 18.19238
1229.285, 18.83594
1229.767, 17.10010
1230.250, 8.907715
1230.732, 6.362305
1231.214, 11.00586
1231.696, 15.72168
1232.178, 13.44092
1232.660, 9.185547
1233.142, 10.84619
1233.624, 15.91357
1234.106, 18.32959
1234.589, 16.84619
1235.071, 13.68555
1235.553, 8.553223
1236.035, 3.808105
1236.517, 0.5717770
1236.999, 2.069336
1237.481, 5.076172
1237.963, 16.74902
1238.445, 23.53223
1238.928, 23.78125
1239.410, 22.61523
1239.892, 20.04834
1240.374, 16.84473
1240.856, 13.03809
1241.338, 9.364258
1241.820, 5.433594
1242.302, 2.528809
1242.785, 3.520020
1243.267, 9.681152
1243.749, 13.76318
1244.231, 15.54639
1244.713, 15.39648
1245.195, 11.72900
1245.677, 8.092773
1246.159, 7.631836
1246.641, 9.152832
1247.124, 8.899414
1247.606, 6.326172
1248.088, 11.23584
1248.570, 23.66211
1249.052, 32.84131
1249.534, 27.25732
1250.016, 20.42334
1250.498, 22.95752
1250.980, 28.97705
1251.463, 31.76074
1251.945, 31.23779
1252.427, 23.98682
1252.909, 10.76904
1253.391, 1.162598
1253.873, 3.720215
1254.355, 8.271484
1254.837, 12.85645
1255.320, 15.17188
1255.802, 11.12646
1256.284, 1.998535
1256.766, 4.794434
1257.248, 8.773438
1257.730, 9.098145
1258.212, 2.300781
1258.694, 4.352051
1259.177, 9.644043
1259.659, 13.01660
1260.141, 13.10547
1260.623, 10.81250
1261.105, 8.224121
1261.587, 5.931152
1262.069, 6.216309
1262.551, 14.57373
1263.033, 18.27686
1263.516, 14.05029
1263.998, 8.692871
1264.480, 10.76709
1264.962, 15.64209
1265.444, 12.42969
1265.926, 3.174805
1266.408, 3.750488
1266.890, 6.633789
1267.372, 5.483887
1267.855, 0.6665040
1268.337, 7.917969
1268.819, 15.21924
1269.301, 20.07910
1269.783, 15.88086
1270.265, 6.513184
1270.747, 3.627441
1271.229, 11.65137
1271.712, 15.22803
1272.194, 13.17383
1272.676, 10.43652
1273.158, 9.604980
1273.640, 10.88428
1274.122, 15.55322
1274.604, 21.92090
1275.086, 26.91455
1275.568, 30.49316
1276.051, 31.99512
1276.533, 31.39941
1277.015, 30.28613
1277.497, 28.55371
1277.979, 27.97559
1278.461, 32.28516
1278.943, 36.60303
1279.425, 34.58936
1279.907, 26.35449
1280.390, 20.00244
1280.872, 14.29004
1281.354, 12.25391
1281.836, 11.77686
1282.318, 11.83789
1282.800, 12.00977
1283.282, 12.88574
1283.764, 15.65625
1284.247, 19.59521
1284.729, 20.84717
1285.211, 18.84814
1285.693, 14.81787
1286.175, 11.82031
1286.657, 13.29688
1287.139, 21.61914
1287.621, 29.35986
1288.104, 30.19043
1288.586, 26.85547
1289.068, 24.78369
1289.550, 23.63086
1290.032, 22.58252
1290.514, 20.46240
1290.996, 21.59814
1291.478, 27.72168
1291.960, 30.04639
1292.443, 19.19189
1292.925, 5.849121
1293.407, 3.613281
1293.889, 7.591797
1294.371, 9.780273
1294.853, 8.988770
1295.335, 12.13672
1295.817, 19.34375
1296.299, 21.84180
1296.782, 10.97754
1297.264, 0.2875980
1297.746, 1.151367
1298.228, 6.542969
1298.710, 10.12744
1299.192, 12.15771
1299.674, 9.873047
1300.156, 4.165039
1300.639, 2.7832000E-02
1301.121, 0.8774410
1301.603, 2.050781
1302.085, 0.3911130
1302.567, 4.7851998E-02
1303.049, 3.003418
1303.531, 0.0000000E+00
##END=



