##NAMES=Veszelyite
##RRUFFID=R160003
##IDEAL CHEMISTRY=Cu^2+^_3_PO_4_(OH)_3_&#183;2H_2_O
##LOCALITY=Laochang ore field, Gejiu Co., Honghe Autonomous Prefecture, Yunnan Province, China
##OWNER=RRUFF
##SOURCE=Renato and Adriana Pagano
##DESCRIPTION=Blue prismatic crystals
##STATUS=The identification of this mineral has been confirmed only by single crystal X-ray diffraction.
##URL=rruff.info/R160003
8.758203e+001, 1.526785e+003
8.806415e+001, 1.523313e+003
8.854626e+001, 1.522789e+003
8.902838e+001, 1.526168e+003
8.951050e+001, 1.530769e+003
8.999261e+001, 1.536445e+003
9.047473e+001, 1.542794e+003
9.095685e+001, 1.548210e+003
9.143896e+001, 1.551215e+003
9.192108e+001, 1.551626e+003
9.240320e+001, 1.550827e+003
9.288531e+001, 1.531216e+003
9.336743e+001, 1.483725e+003
9.384955e+001, 1.416166e+003
9.433167e+001, 1.350586e+003
9.481378e+001, 1.285969e+003
9.529590e+001, 1.230160e+003
9.577802e+001, 1.181905e+003
9.626013e+001, 1.139567e+003
9.674225e+001, 1.102304e+003
9.722437e+001, 1.069310e+003
9.770648e+001, 1.038974e+003
9.818860e+001, 1.010659e+003
9.867072e+001, 9.843802e+002
9.915283e+001, 9.598607e+002
9.963495e+001, 9.369183e+002
1.001171e+002, 9.159222e+002
1.005992e+002, 8.975521e+002
1.010813e+002, 8.814831e+002
1.015634e+002, 8.680555e+002
1.020455e+002, 8.571012e+002
1.025277e+002, 8.474994e+002
1.030098e+002, 8.380259e+002
1.034919e+002, 8.281569e+002
1.039740e+002, 8.186639e+002
1.044561e+002, 8.123172e+002
1.049382e+002, 8.145088e+002
1.054204e+002, 8.136331e+002
1.059025e+002, 8.073641e+002
1.063846e+002, 7.972022e+002
1.068667e+002, 7.853230e+002
1.073488e+002, 7.724913e+002
1.078309e+002, 7.592816e+002
1.083131e+002, 7.497897e+002
1.087952e+002, 7.455169e+002
1.092773e+002, 7.428882e+002
1.097594e+002, 7.401719e+002
1.102415e+002, 7.372963e+002
1.107236e+002, 7.346823e+002
1.112058e+002, 7.327716e+002
1.116879e+002, 7.314068e+002
1.121700e+002, 7.300973e+002
1.126521e+002, 7.302798e+002
1.131342e+002, 7.301058e+002
1.136163e+002, 7.261611e+002
1.140985e+002, 7.172413e+002
1.145806e+002, 7.066115e+002
1.150627e+002, 6.959034e+002
1.155448e+002, 6.853167e+002
1.160269e+002, 6.752349e+002
1.165090e+002, 6.658829e+002
1.169912e+002, 6.572734e+002
1.174733e+002, 6.494474e+002
1.179554e+002, 6.427479e+002
1.184375e+002, 6.366362e+002
1.189196e+002, 6.308556e+002
1.194017e+002, 6.254286e+002
1.198839e+002, 6.205702e+002
1.203660e+002, 6.167877e+002
1.208481e+002, 6.151891e+002
1.213302e+002, 6.117812e+002
1.218123e+002, 6.060818e+002
1.222944e+002, 5.993334e+002
1.227766e+002, 5.919112e+002
1.232587e+002, 5.840563e+002
1.237408e+002, 5.761624e+002
1.242229e+002, 5.690325e+002
1.247050e+002, 5.628063e+002
1.251871e+002, 5.572704e+002
1.256693e+002, 5.526862e+002
1.261514e+002, 5.487155e+002
1.266335e+002, 5.452177e+002
1.271156e+002, 5.422692e+002
1.275977e+002, 5.393155e+002
1.280798e+002, 5.344749e+002
1.285620e+002, 5.266486e+002
1.290441e+002, 5.191141e+002
1.295262e+002, 5.135500e+002
1.300083e+002, 5.095112e+002
1.304904e+002, 5.050995e+002
1.309725e+002, 4.988045e+002
1.314547e+002, 4.918560e+002
1.319368e+002, 4.868240e+002
1.324189e+002, 4.846858e+002
1.329010e+002, 4.834738e+002
1.333831e+002, 4.811659e+002
1.338652e+002, 4.775362e+002
1.343474e+002, 4.740635e+002
1.348295e+002, 4.713786e+002
1.353116e+002, 4.693199e+002
1.357937e+002, 4.677965e+002
1.362758e+002, 4.667768e+002
1.367579e+002, 4.662682e+002
1.372401e+002, 4.665350e+002
1.377222e+002, 4.689102e+002
1.382043e+002, 4.698647e+002
1.386864e+002, 4.680086e+002
1.391685e+002, 4.642512e+002
1.396507e+002, 4.598150e+002
1.401328e+002, 4.553465e+002
1.406149e+002, 4.508580e+002
1.410970e+002, 4.473488e+002
1.415791e+002, 4.459160e+002
1.420612e+002, 4.444909e+002
1.425434e+002, 4.425439e+002
1.430255e+002, 4.401342e+002
1.435076e+002, 4.375749e+002
1.439897e+002, 4.351462e+002
1.444718e+002, 4.328800e+002
1.449539e+002, 4.305807e+002
1.454361e+002, 4.287679e+002
1.459182e+002, 4.265280e+002
1.464003e+002, 4.231988e+002
1.468824e+002, 4.187829e+002
1.473645e+002, 4.138715e+002
1.478466e+002, 4.090392e+002
1.483288e+002, 4.041489e+002
1.488109e+002, 3.999904e+002
1.492930e+002, 3.966045e+002
1.497751e+002, 3.939206e+002
1.502572e+002, 3.921219e+002
1.507393e+002, 3.913403e+002
1.512215e+002, 3.907998e+002
1.517036e+002, 3.891769e+002
1.521857e+002, 3.865024e+002
1.526678e+002, 3.842552e+002
1.531499e+002, 3.833007e+002
1.536320e+002, 3.831423e+002
1.541142e+002, 3.825975e+002
1.545963e+002, 3.814434e+002
1.550784e+002, 3.796924e+002
1.555605e+002, 3.772656e+002
1.560426e+002, 3.741778e+002
1.565247e+002, 3.711846e+002
1.570069e+002, 3.687852e+002
1.574890e+002, 3.669756e+002
1.579711e+002, 3.655577e+002
1.584532e+002, 3.651174e+002
1.589353e+002, 3.645954e+002
1.594174e+002, 3.630863e+002
1.598996e+002, 3.605001e+002
1.603817e+002, 3.578231e+002
1.608638e+002, 3.563622e+002
1.613459e+002, 3.566028e+002
1.618280e+002, 3.564250e+002
1.623102e+002, 3.552786e+002
1.627923e+002, 3.538097e+002
1.632744e+002, 3.525037e+002
1.637565e+002, 3.514787e+002
1.642386e+002, 3.504243e+002
1.647207e+002, 3.486638e+002
1.652029e+002, 3.454832e+002
1.656850e+002, 3.427593e+002
1.661671e+002, 3.404969e+002
1.666492e+002, 3.387532e+002
1.671313e+002, 3.376131e+002
1.676134e+002, 3.371237e+002
1.680956e+002, 3.371578e+002
1.685777e+002, 3.373547e+002
1.690598e+002, 3.381987e+002
1.695419e+002, 3.386459e+002
1.700240e+002, 3.386849e+002
1.705061e+002, 3.382713e+002
1.709883e+002, 3.371435e+002
1.714704e+002, 3.350591e+002
1.719525e+002, 3.324454e+002
1.724346e+002, 3.312186e+002
1.729167e+002, 3.328689e+002
1.733988e+002, 3.339325e+002
1.738810e+002, 3.332498e+002
1.743631e+002, 3.311688e+002
1.748452e+002, 3.283645e+002
1.753273e+002, 3.247692e+002
1.758094e+002, 3.210564e+002
1.762915e+002, 3.194235e+002
1.767737e+002, 3.213143e+002
1.772558e+002, 3.234926e+002
1.777379e+002, 3.239541e+002
1.782200e+002, 3.228154e+002
1.787021e+002, 3.214025e+002
1.791842e+002, 3.204257e+002
1.796664e+002, 3.196392e+002
1.801485e+002, 3.185446e+002
1.806306e+002, 3.168913e+002
1.811127e+002, 3.151240e+002
1.815948e+002, 3.136379e+002
1.820769e+002, 3.123994e+002
1.825591e+002, 3.116288e+002
1.830412e+002, 3.121029e+002
1.835233e+002, 3.129203e+002
1.840054e+002, 3.130570e+002
1.844875e+002, 3.119634e+002
1.849696e+002, 3.102678e+002
1.854518e+002, 3.091208e+002
1.859339e+002, 3.086913e+002
1.864160e+002, 3.084604e+002
1.868981e+002, 3.087307e+002
1.873802e+002, 3.089210e+002
1.878623e+002, 3.081282e+002
1.883445e+002, 3.056068e+002
1.888266e+002, 3.021806e+002
1.893087e+002, 3.008378e+002
1.897908e+002, 3.036722e+002
1.902729e+002, 3.056965e+002
1.907550e+002, 3.050754e+002
1.912372e+002, 3.031285e+002
1.917193e+002, 3.016684e+002
1.922014e+002, 3.018267e+002
1.926835e+002, 3.033179e+002
1.931656e+002, 3.042042e+002
1.936477e+002, 3.040526e+002
1.941299e+002, 3.036521e+002
1.946120e+002, 3.031068e+002
1.950941e+002, 3.024003e+002
1.955762e+002, 3.014063e+002
1.960583e+002, 2.999830e+002
1.965404e+002, 2.981896e+002
1.970226e+002, 2.971315e+002
1.975047e+002, 2.972421e+002
1.979868e+002, 2.975679e+002
1.984689e+002, 2.980228e+002
1.989510e+002, 2.985025e+002
1.994331e+002, 2.988910e+002
1.999153e+002, 2.991531e+002
2.003974e+002, 2.992658e+002
2.008795e+002, 2.986480e+002
2.013616e+002, 2.964293e+002
2.018437e+002, 2.944775e+002
2.023258e+002, 2.941427e+002
2.028080e+002, 2.949633e+002
2.032901e+002, 2.950598e+002
2.037722e+002, 2.928264e+002
2.042543e+002, 2.884860e+002
2.047364e+002, 2.855418e+002
2.052185e+002, 2.849438e+002
2.057007e+002, 2.848185e+002
2.061828e+002, 2.840913e+002
2.066649e+002, 2.827669e+002
2.071470e+002, 2.812905e+002
2.076291e+002, 2.798098e+002
2.081112e+002, 2.784571e+002
2.085934e+002, 2.776335e+002
2.090755e+002, 2.779933e+002
2.095576e+002, 2.784747e+002
2.100397e+002, 2.780616e+002
2.105218e+002, 2.767158e+002
2.110039e+002, 2.752508e+002
2.114861e+002, 2.740845e+002
2.119682e+002, 2.731974e+002
2.124503e+002, 2.725619e+002
2.129324e+002, 2.725188e+002
2.134145e+002, 2.724910e+002
2.138967e+002, 2.715494e+002
2.143788e+002, 2.694340e+002
2.148609e+002, 2.676201e+002
2.153430e+002, 2.675272e+002
2.158251e+002, 2.681248e+002
2.163072e+002, 2.681142e+002
2.167894e+002, 2.668163e+002
2.172715e+002, 2.649506e+002
2.177536e+002, 2.638029e+002
2.182357e+002, 2.636265e+002
2.187178e+002, 2.634749e+002
2.191999e+002, 2.630627e+002
2.196821e+002, 2.624077e+002
2.201642e+002, 2.614557e+002
2.206463e+002, 2.600911e+002
2.211284e+002, 2.585502e+002
2.216105e+002, 2.573179e+002
2.220926e+002, 2.563671e+002
2.225748e+002, 2.558402e+002
2.230569e+002, 2.559836e+002
2.235390e+002, 2.564278e+002
2.240211e+002, 2.567699e+002
2.245032e+002, 2.568196e+002
2.249853e+002, 2.566757e+002
2.254675e+002, 2.566123e+002
2.259496e+002, 2.566916e+002
2.264317e+002, 2.567607e+002
2.269138e+002, 2.568377e+002
2.273959e+002, 2.568718e+002
2.278780e+002, 2.567424e+002
2.283602e+002, 2.563696e+002
2.288423e+002, 2.559181e+002
2.293244e+002, 2.559726e+002
2.298065e+002, 2.573542e+002
2.302886e+002, 2.580842e+002
2.307707e+002, 2.574017e+002
2.312529e+002, 2.561580e+002
2.317350e+002, 2.553636e+002
2.322171e+002, 2.555097e+002
2.326992e+002, 2.562530e+002
2.331813e+002, 2.564900e+002
2.336634e+002, 2.556070e+002
2.341456e+002, 2.549064e+002
2.346277e+002, 2.544344e+002
2.351098e+002, 2.542072e+002
2.355919e+002, 2.544063e+002
2.360740e+002, 2.551234e+002
2.365561e+002, 2.559893e+002
2.370383e+002, 2.559028e+002
2.375204e+002, 2.536071e+002
2.380025e+002, 2.517881e+002
2.384846e+002, 2.508643e+002
2.389667e+002, 2.504088e+002
2.394488e+002, 2.499479e+002
2.399310e+002, 2.492838e+002
2.404131e+002, 2.484577e+002
2.408952e+002, 2.475568e+002
2.413773e+002, 2.461902e+002
2.418594e+002, 2.452866e+002
2.423415e+002, 2.452813e+002
2.428237e+002, 2.456834e+002
2.433058e+002, 2.458368e+002
2.437879e+002, 2.454831e+002
2.442700e+002, 2.448999e+002
2.447521e+002, 2.447423e+002
2.452342e+002, 2.455726e+002
2.457164e+002, 2.456840e+002
2.461985e+002, 2.442960e+002
2.466806e+002, 2.421933e+002
2.471627e+002, 2.404205e+002
2.476448e+002, 2.393098e+002
2.481269e+002, 2.386025e+002
2.486091e+002, 2.378180e+002
2.490912e+002, 2.368063e+002
2.495733e+002, 2.362015e+002
2.500554e+002, 2.366560e+002
2.505375e+002, 2.374480e+002
2.510196e+002, 2.372890e+002
2.515018e+002, 2.356868e+002
2.519839e+002, 2.338029e+002
2.524660e+002, 2.337174e+002
2.529481e+002, 2.355941e+002
2.534302e+002, 2.365577e+002
2.539123e+002, 2.347897e+002
2.543945e+002, 2.319888e+002
2.548766e+002, 2.308842e+002
2.553587e+002, 2.322434e+002
2.558408e+002, 2.345382e+002
2.563229e+002, 2.362339e+002
2.568051e+002, 2.374137e+002
2.572872e+002, 2.380607e+002
2.577693e+002, 2.377079e+002
2.582514e+002, 2.369444e+002
2.587335e+002, 2.369063e+002
2.592156e+002, 2.379681e+002
2.596978e+002, 2.389302e+002
2.601799e+002, 2.382251e+002
2.606620e+002, 2.363379e+002
2.611441e+002, 2.348342e+002
2.616262e+002, 2.343989e+002
2.621083e+002, 2.345679e+002
2.625905e+002, 2.347321e+002
2.630726e+002, 2.349587e+002
2.635547e+002, 2.347915e+002
2.640368e+002, 2.333216e+002
2.645189e+002, 2.311743e+002
2.650010e+002, 2.296578e+002
2.654832e+002, 2.296819e+002
2.659653e+002, 2.303878e+002
2.664474e+002, 2.303536e+002
2.669295e+002, 2.293842e+002
2.674116e+002, 2.284035e+002
2.678937e+002, 2.282760e+002
2.683759e+002, 2.284515e+002
2.688580e+002, 2.281198e+002
2.693401e+002, 2.268508e+002
2.698222e+002, 2.251299e+002
2.703043e+002, 2.235603e+002
2.707864e+002, 2.220917e+002
2.712686e+002, 2.209968e+002
2.717507e+002, 2.207428e+002
2.722328e+002, 2.208225e+002
2.727149e+002, 2.207575e+002
2.731970e+002, 2.204473e+002
2.736791e+002, 2.198881e+002
2.741613e+002, 2.189157e+002
2.746434e+002, 2.173694e+002
2.751255e+002, 2.161958e+002
2.756076e+002, 2.161564e+002
2.760897e+002, 2.164551e+002
2.765718e+002, 2.164196e+002
2.770540e+002, 2.158487e+002
2.775361e+002, 2.152580e+002
2.780182e+002, 2.154392e+002
2.785003e+002, 2.165754e+002
2.789824e+002, 2.172036e+002
2.794645e+002, 2.164034e+002
2.799467e+002, 2.152960e+002
2.804288e+002, 2.147324e+002
2.809109e+002, 2.148272e+002
2.813930e+002, 2.148336e+002
2.818751e+002, 2.137168e+002
2.823572e+002, 2.113286e+002
2.828394e+002, 2.096767e+002
2.833215e+002, 2.096541e+002
2.838036e+002, 2.100340e+002
2.842857e+002, 2.102316e+002
2.847678e+002, 2.101892e+002
2.852499e+002, 2.100151e+002
2.857321e+002, 2.098976e+002
2.862142e+002, 2.098484e+002
2.866963e+002, 2.093102e+002
2.871784e+002, 2.079714e+002
2.876605e+002, 2.063745e+002
2.881426e+002, 2.044001e+002
2.886248e+002, 2.023112e+002
2.891069e+002, 2.008485e+002
2.895890e+002, 2.009069e+002
2.900711e+002, 2.023134e+002
2.905532e+002, 2.028453e+002
2.910353e+002, 2.021537e+002
2.915175e+002, 2.009070e+002
2.919996e+002, 1.990258e+002
2.924817e+002, 1.968510e+002
2.929638e+002, 1.950014e+002
2.934459e+002, 1.938923e+002
2.939280e+002, 1.933844e+002
2.944102e+002, 1.929575e+002
2.948923e+002, 1.930048e+002
2.953744e+002, 1.924653e+002
2.958565e+002, 1.903141e+002
2.963386e+002, 1.876864e+002
2.968207e+002, 1.861580e+002
2.973029e+002, 1.866189e+002
2.977850e+002, 1.882420e+002
2.982671e+002, 1.890003e+002
2.987492e+002, 1.886374e+002
2.992313e+002, 1.878638e+002
2.997134e+002, 1.866151e+002
3.001956e+002, 1.852201e+002
3.006777e+002, 1.839166e+002
3.011598e+002, 1.827771e+002
3.016419e+002, 1.818961e+002
3.021240e+002, 1.814770e+002
3.026061e+002, 1.816453e+002
3.030883e+002, 1.819330e+002
3.035704e+002, 1.827413e+002
3.040525e+002, 1.833237e+002
3.045346e+002, 1.828948e+002
3.050167e+002, 1.814093e+002
3.054988e+002, 1.798331e+002
3.059810e+002, 1.795042e+002
3.064631e+002, 1.808024e+002
3.069452e+002, 1.815853e+002
3.074273e+002, 1.815345e+002
3.079094e+002, 1.810672e+002
3.083915e+002, 1.800918e+002
3.088737e+002, 1.787732e+002
3.093558e+002, 1.776019e+002
3.098379e+002, 1.771137e+002
3.103200e+002, 1.773464e+002
3.108021e+002, 1.774293e+002
3.112842e+002, 1.770556e+002
3.117664e+002, 1.768458e+002
3.122485e+002, 1.772182e+002
3.127306e+002, 1.779285e+002
3.132127e+002, 1.784297e+002
3.136948e+002, 1.782884e+002
3.141769e+002, 1.776296e+002
3.146591e+002, 1.772373e+002
3.151412e+002, 1.773961e+002
3.156233e+002, 1.774315e+002
3.161054e+002, 1.770888e+002
3.165875e+002, 1.765398e+002
3.170696e+002, 1.759931e+002
3.175518e+002, 1.755360e+002
3.180339e+002, 1.751822e+002
3.185160e+002, 1.750174e+002
3.189981e+002, 1.752489e+002
3.194802e+002, 1.752379e+002
3.199623e+002, 1.743604e+002
3.204445e+002, 1.734747e+002
3.209266e+002, 1.735149e+002
3.214087e+002, 1.747549e+002
3.218908e+002, 1.763781e+002
3.223729e+002, 1.771482e+002
3.228550e+002, 1.768730e+002
3.233372e+002, 1.764221e+002
3.238193e+002, 1.755585e+002
3.243014e+002, 1.748094e+002
3.247835e+002, 1.745627e+002
3.252656e+002, 1.748172e+002
3.257477e+002, 1.751977e+002
3.262299e+002, 1.753506e+002
3.267120e+002, 1.752607e+002
3.271941e+002, 1.750662e+002
3.276762e+002, 1.745672e+002
3.281583e+002, 1.741541e+002
3.286404e+002, 1.739283e+002
3.291226e+002, 1.739177e+002
3.296047e+002, 1.741814e+002
3.300868e+002, 1.749325e+002
3.305689e+002, 1.760313e+002
3.310510e+002, 1.764460e+002
3.315331e+002, 1.754499e+002
3.320153e+002, 1.748646e+002
3.324974e+002, 1.759401e+002
3.329795e+002, 1.776570e+002
3.334616e+002, 1.784767e+002
3.339437e+002, 1.775402e+002
3.344258e+002, 1.755541e+002
3.349080e+002, 1.739845e+002
3.353901e+002, 1.727113e+002
3.358722e+002, 1.722005e+002
3.363543e+002, 1.729632e+002
3.368365e+002, 1.742973e+002
3.373186e+002, 1.758744e+002
3.378007e+002, 1.776446e+002
3.382828e+002, 1.789579e+002
3.387649e+002, 1.786402e+002
3.392470e+002, 1.763746e+002
3.397292e+002, 1.748745e+002
3.402113e+002, 1.752406e+002
3.406934e+002, 1.761255e+002
3.411755e+002, 1.767367e+002
3.416576e+002, 1.770286e+002
3.421397e+002, 1.773314e+002
3.426219e+002, 1.781389e+002
3.431040e+002, 1.793428e+002
3.435861e+002, 1.796729e+002
3.440682e+002, 1.781781e+002
3.445503e+002, 1.770059e+002
3.450324e+002, 1.776637e+002
3.455146e+002, 1.795814e+002
3.459967e+002, 1.813284e+002
3.464788e+002, 1.819904e+002
3.469609e+002, 1.820218e+002
3.474430e+002, 1.826090e+002
3.479251e+002, 1.840235e+002
3.484073e+002, 1.852404e+002
3.488894e+002, 1.853716e+002
3.493715e+002, 1.851398e+002
3.498536e+002, 1.854846e+002
3.503357e+002, 1.868634e+002
3.508178e+002, 1.884902e+002
3.513000e+002, 1.893022e+002
3.517821e+002, 1.892467e+002
3.522642e+002, 1.895080e+002
3.527463e+002, 1.908813e+002
3.532284e+002, 1.924523e+002
3.537105e+002, 1.931119e+002
3.541927e+002, 1.926932e+002
3.546748e+002, 1.924552e+002
3.551569e+002, 1.937438e+002
3.556390e+002, 1.960830e+002
3.561211e+002, 1.972054e+002
3.566032e+002, 1.962034e+002
3.570854e+002, 1.947568e+002
3.575675e+002, 1.943601e+002
3.580496e+002, 1.948554e+002
3.585317e+002, 1.956491e+002
3.590138e+002, 1.971568e+002
3.594959e+002, 1.985990e+002
3.599781e+002, 1.983657e+002
3.604602e+002, 1.961006e+002
3.609423e+002, 1.939812e+002
3.614244e+002, 1.937286e+002
3.619065e+002, 1.947695e+002
3.623886e+002, 1.956795e+002
3.628708e+002, 1.964625e+002
3.633529e+002, 1.968696e+002
3.638350e+002, 1.962677e+002
3.643171e+002, 1.948732e+002
3.647992e+002, 1.943017e+002
3.652813e+002, 1.957033e+002
3.657635e+002, 1.979009e+002
3.662456e+002, 1.984767e+002
3.667277e+002, 1.969465e+002
3.672098e+002, 1.954451e+002
3.676919e+002, 1.950405e+002
3.681740e+002, 1.952173e+002
3.686562e+002, 1.948963e+002
3.691383e+002, 1.937269e+002
3.696204e+002, 1.924668e+002
3.701025e+002, 1.922192e+002
3.705846e+002, 1.930785e+002
3.710667e+002, 1.933824e+002
3.715489e+002, 1.923930e+002
3.720310e+002, 1.911197e+002
3.725131e+002, 1.904223e+002
3.729952e+002, 1.903555e+002
3.734773e+002, 1.907091e+002
3.739594e+002, 1.915757e+002
3.744416e+002, 1.927721e+002
3.749237e+002, 1.925857e+002
3.754058e+002, 1.899728e+002
3.758879e+002, 1.872629e+002
3.763700e+002, 1.852430e+002
3.768521e+002, 1.838100e+002
3.773343e+002, 1.827178e+002
3.778164e+002, 1.818523e+002
3.782985e+002, 1.812824e+002
3.787806e+002, 1.812256e+002
3.792627e+002, 1.824351e+002
3.797448e+002, 1.828732e+002
3.802270e+002, 1.821567e+002
3.807091e+002, 1.807432e+002
3.811912e+002, 1.787923e+002
3.816733e+002, 1.764406e+002
3.821554e+002, 1.742378e+002
3.826375e+002, 1.727940e+002
3.831197e+002, 1.722530e+002
3.836018e+002, 1.718282e+002
3.840839e+002, 1.717886e+002
3.845660e+002, 1.715879e+002
3.850481e+002, 1.708140e+002
3.855302e+002, 1.696633e+002
3.860124e+002, 1.686252e+002
3.864945e+002, 1.680145e+002
3.869766e+002, 1.677829e+002
3.874587e+002, 1.676802e+002
3.879408e+002, 1.683576e+002
3.884229e+002, 1.683344e+002
3.889051e+002, 1.665617e+002
3.893872e+002, 1.644526e+002
3.898693e+002, 1.637002e+002
3.903514e+002, 1.647882e+002
3.908335e+002, 1.664889e+002
3.913156e+002, 1.667192e+002
3.917978e+002, 1.646678e+002
3.922799e+002, 1.633656e+002
3.927620e+002, 1.631572e+002
3.932441e+002, 1.633769e+002
3.937262e+002, 1.640035e+002
3.942083e+002, 1.648196e+002
3.946905e+002, 1.652886e+002
3.951726e+002, 1.648341e+002
3.956547e+002, 1.635935e+002
3.961368e+002, 1.630257e+002
3.966189e+002, 1.636199e+002
3.971010e+002, 1.642164e+002
3.975832e+002, 1.644314e+002
3.980653e+002, 1.644425e+002
3.985474e+002, 1.644824e+002
3.990295e+002, 1.646471e+002
3.995116e+002, 1.648581e+002
3.999937e+002, 1.650542e+002
4.004759e+002, 1.652929e+002
4.009580e+002, 1.652084e+002
4.014401e+002, 1.642243e+002
4.019222e+002, 1.632426e+002
4.024043e+002, 1.630724e+002
4.028864e+002, 1.636990e+002
4.033686e+002, 1.641674e+002
4.038507e+002, 1.634921e+002
4.043328e+002, 1.620053e+002
4.048149e+002, 1.611919e+002
4.052970e+002, 1.612973e+002
4.057791e+002, 1.617947e+002
4.062613e+002, 1.627255e+002
4.067434e+002, 1.637604e+002
4.072255e+002, 1.641715e+002
4.077076e+002, 1.634703e+002
4.081897e+002, 1.623028e+002
4.086718e+002, 1.612298e+002
4.091540e+002, 1.602578e+002
4.096361e+002, 1.596623e+002
4.101182e+002, 1.596221e+002
4.106003e+002, 1.600043e+002
4.110824e+002, 1.606486e+002
4.115645e+002, 1.617395e+002
4.120467e+002, 1.623904e+002
4.125288e+002, 1.618611e+002
