##NAMES=Warwickite
##RRUFFID=R120161
##IDEAL CHEMISTRY=(Mg,Ti^4+^,Fe^3+^,Cr^3+^,Al)_2_O(BO_3_)
##LOCALITY=South Baptiste Lake roadcut, Bancroft, Ontario, Canada
##OWNER=RRUFF
##SOURCE=Michael J. Bainbridge
##DESCRIPTION=Black prismatic crystals
##STATUS=The identification of this mineral has been confirmed only by single crystal X-ray diffraction.
##URL=rruff.info/R120161
134.6201, 573.0978
135.1022, 574.5433
135.5843, 576.1898
136.0664, 578.0103
136.5485, 579.7118
137.0306, 581.2693
137.5128, 582.7883
137.9949, 584.3491
138.4770, 585.8847
138.9591, 587.8551
139.4412, 590.8254
139.9233, 594.9527
140.4055, 597.3166
140.8876, 597.3167
141.3697, 596.1427
141.8518, 595.6903
142.3339, 596.0487
142.8160, 596.9033
143.2982, 598.1973
143.7803, 600.0140
144.2624, 601.9677
144.7445, 604.0510
145.2266, 606.2814
145.7087, 608.6220
146.1909, 611.3052
146.6730, 613.8651
147.1551, 616.1380
147.6372, 617.9257
148.1193, 619.7419
148.6014, 621.6008
149.0836, 623.4969
149.5657, 625.4734
150.0478, 627.2692
150.5299, 629.3123
151.0120, 631.8086
151.4941, 635.4894
151.9763, 638.7182
152.4584, 641.3174
152.9405, 643.3753
153.4226, 645.4240
153.9047, 647.2098
154.3868, 649.1774
154.8690, 651.5681
155.3511, 655.6777
155.8332, 658.8538
156.3153, 659.9583
156.7974, 659.3183
157.2795, 659.5891
157.7617, 662.0463
158.2438, 665.2574
158.7259, 668.1889
159.2080, 670.5770
159.6901, 672.7036
160.1722, 674.5983
160.6544, 676.2761
161.1365, 677.8889
161.6186, 679.3774
162.1007, 680.8604
162.5828, 682.4825
163.0649, 684.9473
163.5471, 686.9839
164.0292, 687.7982
164.5113, 687.3574
164.9934, 686.8004
165.4755, 686.6392
165.9576, 686.6882
166.4398, 686.7214
166.9219, 686.7566
167.4040, 686.6625
167.8861, 686.2698
168.3682, 685.5500
168.8503, 684.8875
169.3325, 684.4396
169.8146, 684.2263
170.2967, 684.2809
170.7788, 685.6693
171.2609, 686.7546
171.7430, 685.6591
172.2252, 682.0596
172.7073, 678.2172
173.1894, 676.1262
173.6715, 675.1525
174.1536, 673.9435
174.6357, 671.3121
175.1179, 668.2761
175.6000, 666.1591
176.0821, 665.1964
176.5642, 664.5404
177.0463, 663.3824
177.5284, 661.8531
178.0106, 660.3753
178.4927, 659.5883
178.9748, 658.9045
179.4569, 657.1774
179.9390, 654.0920
180.4211, 650.7194
180.9033, 648.1047
181.3854, 646.2061
181.8675, 644.8673
182.3496, 644.2942
182.8317, 644.2000
183.3138, 643.8135
183.7960, 642.9807
184.2781, 642.0599
184.7602, 641.6843
185.2423, 641.7784
185.7244, 641.7626
186.2065, 641.3391
186.6887, 640.5201
187.1708, 639.2798
187.6529, 637.4993
188.1350, 635.5329
188.6171, 634.0354
189.0992, 632.9832
189.5814, 632.0593
190.0635, 631.2241
190.5456, 630.4042
191.0277, 629.0971
191.5098, 627.0801
191.9919, 624.8057
192.4741, 623.3099
192.9562, 622.6272
193.4383, 622.0878
193.9204, 621.3516
194.4025, 620.4124
194.8846, 619.1115
195.3668, 617.2916
195.8489, 615.2499
196.3310, 613.8021
196.8131, 613.0276
197.2952, 612.2351
197.7773, 610.7192
198.2595, 608.4491
198.7416, 606.9916
199.2237, 606.8975
199.7058, 607.4543
200.1879, 606.3773
200.6700, 603.2640
201.1522, 600.3100
201.6343, 599.5552
202.1164, 601.3720
202.5985, 601.4156
203.0806, 598.6268
203.5627, 594.0248
204.0449, 590.9406
204.5270, 589.6448
205.0091, 588.9623
205.4912, 588.2688
205.9733, 587.6454
206.4554, 586.4481
206.9376, 584.4039
207.4197, 581.7938
207.9018, 579.6119
208.3839, 577.9327
208.8660, 576.4937
209.3481, 575.1545
209.8303, 573.9194
210.3124, 572.7593
210.7945, 571.6551
211.2766, 570.6404
211.7587, 569.8079
212.2408, 569.1949
212.7230, 568.6911
213.2051, 568.3152
213.6872, 568.2410
214.1693, 567.5885
214.6514, 565.9348
215.1335, 563.6178
215.6157, 562.4581
216.0978, 562.9934
216.5799, 563.6428
217.0620, 563.2701
217.5441, 561.3947
218.0262, 559.8802
218.5084, 558.9998
218.9905, 558.6086
219.4726, 558.0131
219.9547, 557.0914
220.4368, 556.1695
220.9189, 555.5373
221.4011, 555.4573
221.8832, 554.9717
222.3653, 553.8784
222.8474, 552.3306
223.3295, 550.9069
223.8116, 549.5781
224.2938, 548.4747
224.7759, 547.7740
225.2580, 547.8401
225.7401, 547.3738
226.2222, 545.9334
226.7043, 543.8810
227.1865, 542.7666
227.6686, 543.0873
228.1507, 543.6268
228.6328, 543.6954
229.1149, 543.1205
229.5970, 542.4871
230.0792, 541.8864
230.5613, 541.2560
231.0434, 540.2888
231.5255, 538.6307
232.0076, 537.1912
232.4897, 536.6132
232.9719, 537.6531
233.4540, 537.8173
233.9361, 536.5471
234.4182, 534.3728
234.9003, 533.2119
235.3824, 533.7636
235.8646, 534.3278
236.3467, 533.9359
236.8288, 531.7168
237.3109, 530.5508
237.7930, 531.1630
238.2751, 532.7593
238.7573, 532.7776
239.2394, 530.0494
239.7215, 527.4026
240.2036, 526.1822
240.6857, 527.2394
241.1678, 527.7410
241.6500, 527.3359
242.1321, 526.4623
242.6142, 526.3105
243.0963, 527.4302
243.5784, 528.4612
244.0605, 528.7846
244.5427, 528.0721
245.0248, 527.5184
245.5069, 527.2152
245.9890, 527.0408
246.4711, 526.7213
246.9532, 526.1756
247.4354, 525.6303
247.9175, 525.1984
248.3996, 524.9539
248.8817, 524.5679
249.3638, 523.8440
249.8459, 523.1021
250.3281, 523.0363
250.8102, 524.2364
251.2923, 525.0870
251.7744, 524.7960
252.2565, 522.7985
252.7386, 522.1700
253.2208, 523.5809
253.7029, 525.8687
254.1850, 527.2480
254.6671, 527.4799
255.1492, 527.2318
255.6313, 526.4865
256.1135, 525.0406
256.5956, 524.5262
257.0777, 525.4637
257.5598, 526.8162
258.0419, 527.0138
258.5240, 525.2662
259.0062, 524.1618
259.4883, 524.7239
259.9704, 527.1175
260.4525, 528.3785
260.9346, 528.0914
261.4167, 527.1752
261.8989, 526.6229
262.3810, 526.4609
262.8631, 526.6619
263.3452, 527.4425
263.8273, 528.8107
264.3094, 529.2413
264.7916, 528.3044
265.2737, 527.1564
265.7558, 527.0718
266.2379, 528.5318
266.7200, 529.4905
267.2021, 529.4978
267.6843, 528.6266
268.1664, 527.4196
268.6485, 525.4886
269.1306, 524.0172
269.6127, 524.5090
270.0948, 527.7245
270.5770, 529.2894
271.0591, 527.8047
271.5412, 524.1409
272.0233, 522.7629
272.5054, 524.3992
272.9875, 526.3769
273.4697, 526.5829
273.9518, 524.6698
274.4339, 523.2889
274.9160, 522.8607
275.3981, 523.1028
275.8802, 523.2292
276.3624, 523.2681
276.8445, 523.0877
277.3266, 522.4378
277.8087, 521.2596
278.2908, 520.6100
278.7729, 520.7400
279.2551, 521.2574
279.7372, 521.2429
280.2193, 520.6340
280.7014, 519.9100
281.1835, 519.3435
281.6656, 518.9307
282.1478, 518.2940
282.6299, 517.2813
283.1120, 516.3166
283.5941, 516.1686
284.0762, 516.8668
284.5583, 517.8276
285.0405, 519.0724
285.5226, 520.4997
286.0047, 521.1282
286.4868, 520.8885
286.9689, 520.0591
287.4510, 518.6843
287.9332, 516.8110
288.4153, 515.4378
288.8974, 515.1635
289.3795, 515.7186
289.8616, 516.1251
290.3438, 516.3575
290.8259, 516.6054
291.3080, 517.3147
291.7901, 518.3358
292.2722, 518.7869
292.7543, 518.1594
293.2365, 516.8735
293.7186, 515.8385
294.2007, 515.0643
294.6828, 514.4944
295.1649, 513.8275
295.6470, 513.2839
296.1292, 513.7116
296.6113, 515.8816
297.0934, 518.5151
297.5755, 519.4216
298.0576, 518.7294
298.5397, 517.7854
299.0219, 517.7970
299.5040, 518.2637
299.9861, 517.9230
300.4682, 516.1146
300.9503, 514.2993
301.4324, 514.5699
301.9146, 516.5058
302.3967, 518.3414
302.8788, 518.8124
303.3609, 518.5538
303.8430, 518.5209
304.3251, 518.9374
304.8073, 519.2262
305.2894, 518.3666
305.7715, 516.9130
306.2536, 516.1985
306.7357, 517.6112
307.2178, 519.7383
307.7000, 521.1215
308.1821, 521.5961
308.6642, 521.7664
309.1463, 521.9199
309.6284, 522.0765
310.1105, 522.2732
310.5927, 522.6232
311.0748, 522.9412
311.5569, 523.0408
312.0390, 522.9230
312.5211, 522.8765
313.0032, 523.1917
313.4854, 523.6247
313.9675, 523.9129
314.4496, 523.9060
314.9317, 523.8055
315.4138, 523.6279
315.8959, 523.4105
316.3781, 523.3463
316.8602, 523.8685
317.3423, 524.3848
317.8244, 524.4247
318.3065, 523.4334
318.7886, 522.6049
319.2708, 522.5639
319.7529, 523.0186
320.2350, 523.1490
320.7171, 522.1586
321.1992, 521.1907
321.6813, 520.8230
322.1635, 521.3015
322.6456, 521.9655
323.1277, 522.9974
323.6098, 524.0821
324.0919, 524.6970
324.5740, 523.7880
325.0562, 523.2727
325.5383, 524.0099
326.0204, 526.5524
326.5025, 528.2277
326.9846, 528.7892
327.4667, 528.4392
327.9489, 527.3884
328.4310, 523.9824
328.9131, 521.7640
329.3952, 521.7562
329.8773, 524.0360
330.3594, 525.4257
330.8416, 525.2192
331.3237, 524.7125
331.8058, 524.8370
332.2879, 526.0667
332.7700, 527.1108
333.2521, 527.7521
333.7343, 528.1088
334.2164, 528.8442
334.6985, 530.3583
335.1806, 531.6041
335.6627, 531.8257
336.1448, 530.3658
336.6270, 529.9133
337.1091, 530.7325
337.5912, 532.4460
338.0733, 534.6729
338.5554, 537.9319
339.0375, 539.9423
339.5197, 539.1376
340.0018, 535.2755
340.4839, 533.5318
340.9660, 534.4792
341.4481, 536.3624
341.9302, 536.8200
342.4124, 535.7362
342.8945, 534.8259
343.3766, 534.5959
343.8587, 534.9414
344.3408, 535.4391
344.8229, 536.1029
345.3051, 536.7985
345.7872, 537.4922
346.2693, 538.1483
346.7514, 538.5890
347.2335, 538.8881
347.7156, 538.8114
348.1978, 537.5417
348.6799, 535.1892
349.1620, 533.0880
349.6441, 532.2274
350.1262, 532.2814
350.6083, 532.5911
351.0905, 533.1801
351.5726, 533.6510
352.0547, 533.3774
352.5368, 532.5696
353.0189, 531.8661
353.5010, 531.9171
353.9832, 532.0901
354.4653, 531.5970
354.9474, 530.3857
355.4295, 528.8406
355.9116, 526.4723
356.3937, 524.1132
356.8759, 523.0475
357.3580, 525.1891
357.8401, 527.5553
358.3222, 527.9482
358.8043, 526.6365
359.2864, 525.1940
359.7686, 524.2728
360.2507, 523.6753
360.7328, 523.2660
361.2149, 523.1287
361.6970, 522.9674
362.1791, 522.7916
362.6613, 522.5023
363.1434, 521.8765
363.6255, 520.0842
364.1076, 518.5370
364.5897, 518.1611
365.0718, 519.6640
365.5540, 520.2276
366.0361, 518.1988
366.5182, 515.3598
367.0003, 513.8489
367.4824, 515.9313
367.9645, 517.2894
368.4467, 516.6685
368.9288, 513.9672
369.4109, 511.8218
369.8930, 510.0583
370.3751, 508.9994
370.8572, 508.9698
371.3394, 511.0955
371.8215, 512.3234
372.3036, 511.9562
372.7857, 510.5476
373.2678, 510.1939
373.7499, 511.6012
374.2321, 512.7927
374.7142, 512.7117
375.1963, 510.9564
375.6784, 509.5980
376.1605, 508.6562
376.6426, 508.0906
377.1248, 508.0599
377.6069, 508.7249
378.0890, 508.9195
378.5711, 508.0494
379.0532, 506.3103
379.5353, 505.2003
380.0175, 504.7676
380.4996, 504.6859
380.9817, 504.7725
381.4638, 504.9946
381.9459, 505.0919
382.4280, 505.0590
382.9102, 504.8047
383.3923, 503.8551
383.8744, 502.3000
384.3565, 501.1720
384.8386, 501.4434
385.3207, 502.5626
385.8029, 503.4713
386.2850, 504.0902
386.7671, 504.3961
387.2492, 504.1095
387.7313, 503.4853
388.2134, 503.1105
388.6956, 503.7938
389.1777, 504.5026
389.6598, 504.1183
390.1419, 502.6933
390.6240, 501.2987
391.1061, 500.6460
391.5883, 500.3373
392.0704, 499.9742
392.5525, 499.6075
393.0346, 498.9608
393.5167, 497.3729
393.9988, 495.3357
394.4810, 494.2037
394.9631, 495.1901
395.4452, 496.6215
395.9273, 497.7220
396.4094, 498.3976
396.8915, 498.7502
397.3737, 498.8158
397.8558, 498.5544
398.3379, 497.9160
398.8200, 495.6866
399.3021, 494.3592
399.7842, 495.0728
400.2664, 497.8080
400.7485, 498.7207
401.2306, 496.2986
401.7127, 493.5060
402.1948, 492.2979
402.6769, 493.6160
403.1591, 494.4408
403.6412, 494.3863
404.1233, 493.8349
404.6054, 493.8875
405.0875, 494.9173
405.5696, 495.4456
406.0518, 494.6113
406.5339, 492.3607
407.0160, 490.9249
407.4981, 490.4890
407.9802, 490.4085
408.4623, 489.9361
408.9445, 489.0836
409.4266, 488.3396
409.9087, 487.9541
410.3908, 487.6719
410.8729, 486.6059
411.3550, 484.7948
411.8372, 483.4254
412.3193, 483.7139
412.8014, 485.0373
413.2835, 485.9787
413.7656, 486.3659
414.2477, 486.3148
414.7299, 485.5728
415.2120, 484.4515
415.6941, 483.7270
416.1762, 484.2311
416.6583, 484.9630
417.1404, 485.0250
417.6226, 484.4027
418.1047, 483.5204
418.5868, 482.0488
419.0689, 480.6913
419.5510, 480.1732
420.0331, 481.6834
420.5153, 482.7229
420.9974, 481.6781
421.4795, 479.3950
421.9616, 478.0546
422.4437, 479.8123
422.9258, 481.2654
423.4080, 480.7288
423.8901, 477.3416
424.3722, 474.7343
424.8543, 473.9181
425.3364, 473.6713
425.8185, 472.7628
426.3007, 470.1224
426.7828, 468.4064
427.2649, 468.3854
427.7470, 469.7298
428.2291, 470.2852
428.7112, 469.8841
429.1934, 468.9641
429.6755, 467.6426
430.1576, 465.8090
430.6397, 464.0893
431.1218, 462.4055
431.6039, 460.9878
432.0861, 460.4380
432.5682, 460.8409
433.0503, 460.7844
433.5324, 459.5114
434.0145, 457.4577
434.4966, 456.2819
434.9788, 456.0168
435.4609, 455.7621
435.9430, 454.2439
436.4251, 452.1177
436.9072, 451.4843
437.3893, 453.2542
437.8715, 455.2281
438.3536, 454.6385
438.8357, 452.1679
439.3178, 449.7208
439.7999, 447.9464
440.2820, 446.8333
440.7642, 446.7143
441.2463, 447.5992
441.7284, 448.1510
442.2105, 447.5524
442.6926, 446.2985
443.1747, 444.8399
443.6569, 442.6819
444.1390, 441.0612
444.6211, 440.7285
445.1032, 441.2741
445.5853, 441.5268
446.0674, 441.2614
446.5496, 440.6840
447.0317, 439.7995
447.5138, 438.4555
447.9959, 437.3363
448.4780, 436.4188
448.9601, 435.7533
449.4423, 435.4260
449.9244, 435.6970
450.4065, 435.8182
450.8886, 435.8078
451.3707, 435.5576
451.8528, 434.3445
452.3350, 431.7002
452.8171, 429.4843
453.2992, 428.9034
453.7813, 429.9777
454.2634, 430.6281
454.7455, 430.7476
455.2277, 430.6258
455.7098, 430.5766
456.1919, 430.5970
456.6740, 430.7066
457.1561, 430.9896
457.6382, 431.2957
458.1204, 431.3535
458.6025, 431.1833
459.0846, 430.9164
459.5667, 430.6293
460.0488, 430.3085
460.5309, 429.9286
461.0131, 429.4839
461.4952, 429.0161
461.9773, 428.1388
462.4594, 427.3565
462.9415, 427.4016
463.4236, 429.7363
463.9058, 431.8480
464.3879, 432.3979
464.8700, 431.5357
465.3521, 430.9716
465.8342, 431.5313
466.3163, 432.1963
466.7985, 432.3445
467.2806, 431.2731
467.7627, 430.9067
468.2448, 431.8842
468.7269, 433.3211
469.2090, 433.9739
469.6912, 433.5529
470.1733, 432.8493
470.6554, 431.8575
471.1375, 430.6608
471.6196, 430.1225
472.1017, 430.3660
472.5839, 430.9171
473.0660, 431.6671
473.5481, 432.6193
474.0302, 432.7715
474.5123, 431.8187
474.9944, 430.6823
475.4766, 430.8810
475.9587, 432.2291
476.4408, 433.5367
476.9229, 434.4982
477.4050, 435.0309
477.8871, 434.7557
478.3693, 433.7618
478.8514, 432.8256
479.3335, 432.5451
479.8156, 432.6101
480.2977, 432.5503
480.7798, 432.0982
481.2620, 432.1436
481.7441, 433.8228
482.2262, 436.1835
482.7083, 437.8232
483.1904, 437.5820
483.6725, 437.2025
484.1547, 437.3389
484.6368, 437.9621
485.1189, 438.4796
485.6010, 439.1661
486.0831, 439.4295
486.5652, 438.8404
487.0474, 436.3505
487.5295, 435.3107
488.0116, 436.4106
488.4937, 438.4600
488.9758, 439.8093
489.4579, 440.2710
489.9401, 440.5718
490.4222, 440.7313
490.9043, 440.8856
491.3864, 442.0400
491.8685, 444.4333
492.3506, 446.1871
492.8328, 445.3163
493.3149, 442.5401
493.7970, 441.3212
494.2791, 442.1115
494.7612, 443.4876
495.2433, 443.8709
495.7255, 443.5688
496.2076, 443.3777
496.6897, 443.7574
497.1718, 444.2135
497.6539, 444.1449
498.1360, 443.7050
498.6182, 443.4814
499.1003, 443.9018
499.5824, 444.5710
500.0645, 445.2137
500.5466, 445.7893
501.0287, 446.4052
501.5109, 446.9980
501.9930, 447.6846
502.4751, 448.5752
502.9572, 450.3695
503.4393, 451.5269
503.9214, 451.5798
504.4036, 450.8505
504.8857, 450.4671
505.3678, 450.5566
505.8499, 450.7726
506.3320, 451.0083
506.8141, 451.2723
507.2963, 451.3258
507.7784, 450.9585
508.2605, 450.9565
508.7426, 452.5522
509.2247, 455.5961
509.7068, 457.7838
510.1890, 458.6168
510.6711, 458.5387
511.1532, 457.9973
511.6353, 457.0816
512.1174, 456.2467
512.5995, 454.9612
513.0817, 454.2820
513.5638, 456.5105
514.0459, 461.4693
514.5280, 464.9579
515.0101, 462.8090
515.4922, 458.7161
515.9744, 456.2088
516.4565, 456.7616
516.9386, 457.4663
517.4207, 457.2997
517.9028, 456.7048
518.3849, 456.4059
518.8671, 456.5835
519.3492, 457.0119
519.8313, 457.8896
520.3134, 459.1346
520.7955, 459.5468
521.2776, 458.4856
521.7598, 457.5271
522.2419, 457.7069
522.7240, 459.3432
523.2061, 460.4224
523.6882, 460.9028
524.1703, 460.8496
524.6525, 460.1735
525.1346, 458.9179
525.6167, 457.7956
526.0988, 457.0785
526.5809, 456.5374
527.0630, 455.7008
527.5452, 454.6364
528.0273, 453.6983
528.5094, 453.2362
528.9915, 452.9365
529.4736, 452.2812
529.9557, 451.2062
530.4379, 450.5321
530.9200, 451.6196
531.4021, 452.9185
531.8842, 452.8399
532.3663, 449.7711
532.8484, 447.0518
533.3306, 445.5443
533.8127, 444.9412
534.2948, 444.6559
534.7769, 445.2600
535.2590, 445.4517
535.7411, 444.8842
536.2233, 443.5838
536.7054, 442.1322
537.1875, 440.4615
537.6696, 438.8117
538.1517, 437.2950
538.6339, 435.9234
539.1160, 434.8227
539.5981, 434.1026
540.0802, 433.3901
540.5623, 431.9268
541.0444, 429.9034
541.5266, 428.3825
542.0087, 427.8199
542.4908, 427.7737
542.9729, 427.8603
543.4550, 427.9896
543.9371, 427.8153
544.4193, 427.1127
544.9014, 426.0332
545.3835, 424.5233
545.8656, 422.5444
546.3477, 420.8750
546.8298, 420.1013
547.3120, 419.5994
547.7941, 418.8525
548.2762, 417.2544
548.7583, 416.1211
549.2404, 416.0160
549.7225, 416.2890
550.2047, 415.8415
550.6868, 414.5129
551.1689, 412.7318
551.6510, 410.4404
552.1331, 407.7639
552.6152, 405.5235
553.0974, 403.7095
553.5795, 402.4057
554.0616, 402.0233
554.5437, 402.3309
555.0258, 401.8234
555.5079, 400.3289
555.9901, 398.7035
556.4722, 397.9922
556.9543, 397.7892
557.4364, 397.2474
557.9185, 396.0736
558.4006, 394.5570
558.8828, 392.3252
559.3649, 389.9112
559.8470, 388.5005
560.3291, 389.4725
560.8112, 390.7218
561.2933, 391.5389
561.7755, 391.8731
562.2576, 391.4081
562.7397, 388.8803
563.2218, 386.5308
563.7039, 385.5233
564.1860, 386.5298
564.6682, 387.1564
565.1503, 387.3729
565.6324, 387.2679
566.1145, 386.9416
566.5966, 386.3934
567.0787, 385.6189
567.5609, 384.5002
568.0430, 383.3197
568.5251, 382.7008
569.0072, 382.6107
569.4893, 382.8027
569.9714, 383.3043
570.4536, 383.9332
570.9357, 384.5149
571.4178, 385.0266
571.8999, 385.2709
572.3820, 384.9491
572.8641, 384.3889
573.3463, 383.8275
573.8284, 383.1874
574.3105, 382.8517
574.7926, 382.9594
575.2747, 383.4192
575.7568, 384.1359
576.2390, 386.1073
576.7211, 386.9489
577.2032, 385.8092
577.6853, 383.3955
578.1674, 382.1632
578.6495, 382.3025
579.1317, 383.0947
579.6138, 384.4643
580.0959, 386.3066
580.5780, 387.8355
581.0601, 389.0856
581.5422, 389.8016
582.0244, 389.3989
582.5065, 388.3298
582.9886, 387.7507
583.4707, 387.8566
583.9528, 388.1905
584.4349, 388.1736
584.9171, 388.1605
585.3992, 388.6894
585.8813, 390.8534
586.3634, 392.6134
586.8455, 392.7094
587.3276, 391.7155
587.8098, 391.1946
588.2919, 391.6647
588.7740, 392.4311
589.2561, 393.4024
589.7382, 394.5854
590.2203, 395.4037
590.7025, 395.6164
591.1846, 395.8788
591.6667, 396.8103
592.1488, 398.5152
592.6309, 399.2758
593.1130, 398.8633
593.5952, 398.1763
594.0773, 398.2627
594.5594, 399.0049
595.0415, 399.9814
595.5236, 401.2327
596.0057, 402.4154
596.4879, 403.0722
596.9700, 403.3548
597.4521, 403.6067
597.9342, 403.4164
598.4163, 403.7475
598.8984, 405.9072
599.3806, 409.5584
599.8627, 411.5211
600.3448, 408.8792
600.8269, 406.2547
601.3090, 406.0585
601.7911, 409.2476
602.2733, 411.0453
602.7554, 410.8975
603.2375, 410.1361
603.7196, 409.9035
604.2017, 410.2124
604.6838, 410.9921
605.1660, 412.3540
605.6481, 413.9248
606.1302, 415.0370
606.6123, 415.7921
607.0944, 416.6766
607.5765, 418.1392
608.0587, 419.5575
608.5408, 420.0345
609.0229, 419.8073
609.5050, 419.7475
609.9871, 420.3205
610.4692, 421.1808
610.9514, 422.2331
611.4335, 423.4927
611.9156, 424.5012
612.3977, 424.9595
612.8798, 425.2914
613.3619, 425.7478
613.8441, 426.4465
614.3262, 426.9882
614.8083, 427.3000
615.2904, 427.5653
615.7725, 427.9031
616.2546, 428.2914
616.7368, 429.3300
617.2189, 431.4579
617.7010, 433.7627
618.1831, 434.4570
618.6652, 433.8332
619.1473, 433.0406
619.6295, 432.1551
620.1116, 431.7044
620.5937, 432.5940
621.0758, 434.5442
621.5579, 436.1931
622.0400, 436.5159
622.5222, 436.5858
623.0043, 436.9027
623.4864, 437.4644
623.9685, 438.5842
624.4506, 440.9413
624.9327, 443.3155
625.4149, 444.8915
625.8970, 445.4149
626.3791, 445.8471
626.8612, 446.2020
627.3433, 446.5010
627.8254, 446.7314
628.3076, 446.9005
628.7897, 447.2029
629.2718, 447.7514
629.7539, 448.3538
630.2360, 448.7592
630.7181, 448.9686
631.2003, 448.9735
631.6824, 448.2371
632.1645, 447.7188
632.6466, 448.5926
633.1287, 450.5849
633.6108, 451.8202
634.0930, 450.8253
634.5751, 449.6193
635.0572, 449.2467
635.5393, 449.9183
636.0214, 450.5943
636.5035, 451.6392
636.9857, 452.2377
637.4678, 451.2594
637.9499, 448.1840
638.4320, 447.6100
638.9141, 450.3495
639.3962, 454.1233
639.8784, 455.9836
640.3605, 456.2325
640.8426, 456.2306
641.3247, 456.3131
641.8068, 456.3605
642.2889, 456.2297
642.7711, 455.9674
643.2532, 455.6729
643.7353, 455.2568
644.2174, 454.9532
644.6995, 454.7086
645.1816, 454.6046
645.6638, 455.1293
646.1459, 457.3528
646.6280, 459.1945
647.1101, 459.9587
647.5922, 459.5994
648.0743, 458.6627
648.5565, 456.7871
649.0386, 455.2749
649.5207, 455.6064
650.0028, 457.4782
650.4849, 458.1695
650.9670, 457.3898
651.4492, 456.0652
651.9313, 454.6725
652.4134, 453.5340
652.8955, 453.4428
653.3776, 455.1813
653.8597, 456.6682
654.3419, 456.2093
654.8240, 454.7544
655.3061, 453.7622
655.7882, 454.2714
656.2703, 454.5500
656.7524, 453.9746
657.2346, 452.9013
657.7167, 452.4010
658.1988, 452.6979
658.6809, 453.0881
659.1630, 453.4214
659.6451, 453.6560
660.1273, 453.3136
660.6094, 452.3351
661.0915, 451.8087
661.5736, 453.0847
662.0557, 455.1351
662.5378, 455.8409
663.0200, 455.0941
663.5021, 453.9895
663.9842, 452.7690
664.4663, 451.8464
664.9484, 451.7649
665.4305, 453.0304
665.9127, 453.9002
666.3948, 453.8955
666.8769, 453.3216
667.3590, 452.3635
667.8411, 450.0066
668.3232, 449.6500
668.8054, 452.4754
669.2875, 456.3883
669.7696, 457.3615
670.2517, 455.3293
670.7338, 453.7504
671.2159, 453.7977
671.6981, 454.6479
672.1802, 455.1480
672.6623, 455.2731
673.1444, 454.9541
673.6265, 453.4596
674.1086, 452.0764
674.5908, 452.0539
675.0729, 453.1710
675.5550, 453.8528
676.0371, 452.8639
676.5192, 452.0223
677.0013, 452.3073
677.4835, 453.8818
677.9656, 454.8296
678.4477, 454.9507
678.9298, 454.8242
679.4119, 454.7805
679.8940, 454.8175
680.3762, 454.9842
680.8583, 455.2601
681.3404, 455.7848
681.8225, 457.1634
682.3046, 458.8240
682.7867, 459.4142
683.2689, 458.3021
683.7510, 457.2919
684.2331, 457.7459
684.7152, 459.0649
685.1973, 460.4794
685.6794, 462.4406
686.1616, 463.7188
686.6437, 463.5201
687.1258, 462.6569
687.6079, 462.5720
688.0900, 463.4729
688.5721, 464.6195
689.0543, 465.8912
689.5364, 467.2378
690.0185, 468.6290
690.5006, 470.0443
690.9827, 471.1772
691.4648, 471.7059
691.9470, 471.9448
692.4291, 472.3472
692.9112, 472.9052
693.3933, 473.5758
693.8754, 474.3615
694.3575, 475.2451
694.8397, 476.1866
695.3218, 477.1805
695.8039, 478.4164
696.2860, 480.0958
696.7681, 481.8744
697.2502, 483.6461
697.7324, 485.4567
698.2145, 487.0227
698.6966, 488.3490
699.1787, 489.4267
699.6608, 489.9404
700.1429, 490.1080
700.6251, 491.1494
701.1072, 493.3227
701.5893, 495.7822
702.0714, 497.7828
702.5535, 499.4946
703.0356, 501.1321
703.5178, 502.4653
703.9999, 504.1968
704.4820, 506.8849
704.9641, 510.0425
705.4462, 512.9385
705.9283, 515.1407
706.4105, 517.7332
706.8926, 521.0673
707.3747, 524.7529
707.8568, 527.8224
708.3389, 530.2460
708.8210, 532.6485
709.3032, 535.0865
709.7853, 537.8009
710.2674, 541.3717
710.7495, 545.6826
711.2316, 550.1031
711.7137, 554.7325
712.1959, 558.9762
712.6780, 561.9640
713.1601, 563.9431
713.6422, 566.6174
714.1243, 571.7892
714.6064, 576.4789
715.0886, 579.0229
715.5707, 579.3309
716.0528, 581.7128
716.5349, 586.7468
717.0170, 592.4356
717.4991, 598.0089
717.9813, 603.2932
718.4634, 606.8557
718.9455, 608.5651
719.4276, 610.3860
719.9097, 614.3994
720.3918, 619.3871
720.8740, 623.5723
721.3561, 626.5970
721.8382, 629.6661
722.3203, 633.1456
722.8024, 637.0740
723.2845, 641.5832
723.7667, 647.7349
724.2488, 652.5711
724.7309, 655.4837
725.2130, 657.7748
725.6951, 661.1249
726.1772, 665.6273
726.6594, 669.5065
727.1415, 672.3235
727.6236, 674.7416
728.1057, 677.5469
728.5878, 680.6955
729.0699, 684.1244
729.5521, 687.9863
730.0342, 691.8512
730.5163, 696.0358
730.9984, 699.9197
731.4805, 702.3932
731.9626, 701.1325
732.4448, 700.9377
732.9269, 703.1761
733.4090, 706.9188
733.8911, 709.5605
734.3732, 710.8560
734.8553, 711.9814
735.3375, 713.3635
735.8196, 714.7664
736.3017, 715.3854
736.7838, 715.3605
737.2659, 715.5468
737.7480, 716.6969
738.2302, 718.0558
738.7123, 719.2245
739.1944, 720.0741
739.6765, 720.0602
740.1586, 717.8866
740.6407, 715.8342
741.1229, 715.2146
741.6050, 715.9310
742.0871, 715.6332
742.5692, 713.8391
743.0513, 712.1854
743.5334, 712.0700
744.0156, 713.0883
744.4977, 711.3671
744.9798, 706.9069
745.4619, 702.3969
745.9440, 699.9005
746.4261, 698.6130
746.9083, 697.9677
747.3904, 697.9277
747.8725, 696.8558
748.3546, 692.8321
748.8367, 688.3580
749.3188, 685.2327
749.8010, 684.1805
750.2831, 682.3268
750.7652, 679.2465
751.2473, 675.9970
751.7294, 673.6807
752.2115, 672.2894
752.6937, 669.2935
753.1758, 664.3028
753.6579, 659.3113
754.1400, 657.1176
754.6221, 656.0813
755.1042, 653.1594
755.5864, 647.2469
756.0685, 641.7520
756.5506, 639.5278
757.0327, 638.1272
757.5148, 635.1377
757.9969, 627.6891
758.4791, 622.6385
758.9612, 620.9125
759.4433, 620.5490
759.9254, 619.5129
760.4075, 617.8089
760.8896, 614.6237
761.3718, 609.4002
761.8539, 604.0321
762.3360, 601.6152
762.8181, 600.8505
763.3002, 598.9506
763.7823, 594.4291
764.2645, 589.7560
764.7466, 586.3805
765.2287, 583.7079
765.7108, 580.7324
766.1929, 576.7049
766.6750, 573.2659
767.1572, 570.6528
767.6393, 568.6375
768.1214, 566.9724
768.6035, 565.7198
769.0856, 563.8815
769.5677, 561.1736
770.0499, 557.7878
770.5320, 553.4532
771.0141, 548.6624
771.4962, 544.6880
771.9783, 542.7551
772.4604, 541.0426
772.9426, 538.5480
773.4247, 535.5919
773.9068, 532.9636
774.3889, 531.4619
774.8710, 529.2403
775.3531, 525.7067
775.8353, 521.3786
776.3174, 517.7395
776.7995, 514.8497
777.2816, 512.0513
777.7637, 508.9923
778.2458, 506.0289
778.7280, 503.8676
779.2101, 502.3249
779.6922, 500.8459
780.1743, 499.6347
780.6564, 497.9369
781.1385, 494.9223
781.6207, 490.9596
782.1028, 487.7794
782.5849, 485.9787
783.0670, 484.1049
783.5491, 481.6494
784.0313, 478.8572
784.5134, 476.8365
784.9955, 475.5816
785.4776, 474.0942
785.9597, 471.8193
786.4418, 469.0602
786.9240, 466.1655
787.4061, 463.1924
787.8882, 460.3784
788.3703, 458.1924
788.8524, 455.9295
789.3345, 453.0328
789.8167, 449.6420
790.2988, 447.0966
790.7809, 446.0958
791.2630, 444.6367
791.7451, 441.7898
792.2272, 438.0031
792.7094, 435.0660
793.1915, 432.9756
793.6736, 431.0062
794.1557, 429.0090
794.6378, 426.7626
795.1199, 423.5759
795.6021, 419.7978
796.0842, 416.8078
796.5663, 416.6961
797.0484, 416.1084
797.5305, 412.9362
798.0126, 407.5986
798.4948, 403.7721
798.9769, 401.8913
799.4590, 400.5380
799.9411, 399.2901
800.4232, 398.0782
800.9053, 396.7392
801.3875, 395.2643
801.8696, 393.5613
802.3517, 391.5438
802.8338, 389.2624
803.3159, 386.4033
803.7980, 383.1769
804.2802, 380.8264
804.7623, 380.8802
805.2444, 380.6868
805.7265, 379.0520
806.2086, 376.2072
806.6907, 374.3404
807.1729, 373.6840
807.6550, 372.9738
808.1371, 371.6457
808.6192, 369.8026
809.1013, 367.4858
809.5834, 364.8103
810.0656, 362.4263
810.5477, 360.7977
811.0298, 359.5360
811.5119, 358.3904
811.9940, 357.3623
812.4761, 356.5387
812.9583, 356.2321
813.4404, 355.7730
813.9225, 355.0476
814.4046, 354.0187
814.8867, 352.2657
815.3688, 349.7694
815.8510, 347.2159
816.3331, 344.2873
816.8152, 341.9081
817.2973, 342.4828
817.7794, 345.2263
818.2615, 347.0152
818.7437, 345.5205
819.2258, 343.4315
819.7079, 341.8158
820.1900, 340.6798
820.6721, 339.7058
821.1542, 338.8934
821.6364, 338.2299
822.1185, 337.7477
822.6006, 337.3968
823.0827, 337.1688
823.5648, 336.9949
824.0469, 336.2773
824.5291, 333.9194
825.0112, 331.5005
825.4933, 330.7187
825.9754, 331.1537
826.4575, 331.4373
826.9396, 331.2851
827.4218, 330.7288
827.9039, 329.5026
828.3860, 327.9330
828.8681, 327.2388
829.3502, 327.5648
829.8323, 327.9104
830.3145, 328.0455
830.7966, 327.8723
831.2787, 326.8627
831.7608, 325.3361
832.2429, 324.3188
832.7250, 324.8860
833.2072, 325.4654
833.6893, 325.1036
834.1714, 324.1219
834.6535, 323.3946
835.1356, 323.2525
835.6177, 322.8348
836.0999, 321.7592
836.5820, 320.5343
837.0641, 320.6560
837.5462, 321.9526
838.0283, 322.3546
838.5104, 320.7647
838.9926, 318.8126
839.4747, 318.1094
839.9568, 318.3600
840.4389, 319.0488
840.9210, 320.9171
841.4031, 322.0809
841.8853, 321.7871
842.3674, 320.7238
842.8495, 319.7129
843.3316, 318.6799
843.8137, 318.0780
844.2958, 318.0135
844.7780, 318.3120
845.2601, 319.1845
845.7422, 320.1801
846.2243, 320.1163
846.7064, 318.2860
847.1885, 316.3363
847.6707, 314.6730
848.1528, 313.6585
848.6349, 313.8344
849.1170, 316.7349
849.5991, 317.9502
850.0812, 316.8556
850.5634, 314.9552
851.0455, 313.8967
851.5276, 313.5805
852.0097, 313.1945
852.4918, 312.6109
852.9739, 312.1331
853.4561, 312.3100
853.9382, 312.6043
854.4203, 312.3271
854.9024, 311.0951
855.3845, 310.1737
855.8666, 309.8525
856.3488, 309.8651
856.8309, 310.0580
857.3130, 310.4245
857.7951, 311.1992
858.2772, 312.5070
858.7593, 313.2733
859.2415, 311.7449
859.7236, 309.3487
860.2057, 308.7050
860.6878, 310.0275
861.1699, 311.2405
861.6520, 311.3695
862.1342, 311.0552
862.6163, 310.5938
863.0984, 310.0016
863.5805, 309.5678
864.0626, 309.4095
864.5447, 309.0849
865.0269, 308.0861
865.5090, 306.7590
865.9911, 306.6730
866.4732, 307.6102
866.9553, 308.0272
867.4374, 305.8340
867.9196, 303.7600
868.4017, 304.0677
868.8838, 306.4566
869.3659, 308.3380
869.8480, 309.7570
870.3301, 310.1297
870.8123, 308.8603
871.2944, 306.6111
871.7765, 305.8298
872.2586, 306.3839
872.7407, 306.7391
873.2228, 305.6992
873.7050, 304.7507
874.1871, 305.9808
874.6692, 308.4228
875.1513, 309.9901
875.6334, 309.2804
876.1155, 308.5391
876.5977, 308.1885
877.0798, 308.0453
877.5619, 307.7474
878.0440, 307.2753
878.5261, 307.0068
879.0082, 307.0942
879.4904, 307.1901
879.9725, 306.8009
880.4546, 306.1064
880.9367, 305.4275
881.4188, 304.9057
881.9009, 304.2855
882.3831, 302.8516
882.8652, 301.6782
883.3473, 302.0478
883.8294, 304.7314
884.3115, 305.8063
884.7936, 304.8512
885.2758, 303.3840
885.7579, 302.9943
886.2400, 303.2648
886.7221, 303.1573
887.2042, 302.5190
887.6863, 302.1443
888.1685, 302.5345
888.6506, 303.3124
889.1327, 304.4877
889.6148, 306.2513
890.0969, 306.5312
890.5790, 304.7657
891.0612, 302.9441
891.5433, 302.1569
892.0254, 302.2617
892.5075, 303.0784
892.9896, 304.4885
893.4717, 305.5430
893.9539, 305.2329
894.4360, 304.7621
894.9181, 305.3159
895.4002, 306.6085
895.8823, 306.4926
896.3644, 303.5449
896.8466, 301.8011
897.3287, 302.7502
897.8108, 305.2629
898.2929, 306.5342
898.7750, 306.6483
899.2571, 306.1042
899.7393, 304.6231
900.2214, 303.2774
900.7035, 303.3504
901.1856, 304.0890
901.6677, 304.2280
902.1498, 302.5246
902.6320, 301.5792
903.1141, 301.8174
903.5962, 302.5302
904.0783, 302.8192
904.5604, 302.7021
905.0425, 302.3138
905.5247, 301.6003
906.0068, 301.0836
906.4889, 301.1713
906.9710, 301.7792
907.4531, 303.0891
907.9352, 305.6838
908.4174, 306.7852
908.8995, 304.9180
909.3816, 302.8099
909.8637, 302.1750
910.3458, 302.9995
910.8279, 303.6173
911.3101, 304.0260
911.7922, 304.2991
912.2743, 304.5620
912.7564, 304.6649
913.2385, 304.1124
913.7206, 303.0765
914.2028, 302.8284
914.6849, 305.0361
915.1670, 306.5683
915.6491, 306.2193
916.1312, 304.5620
916.6133, 303.8850
917.0955, 304.2072
917.5776, 304.4140
918.0597, 304.0056
918.5418, 303.4232
919.0239, 303.0630
919.5060, 302.9588
919.9882, 303.1748
920.4703, 304.0320
920.9524, 304.8401
921.4345, 305.8143
921.9166, 306.4207
922.3987, 305.6334
922.8809, 303.2906
923.3630, 302.1793
923.8451, 302.7102
924.3272, 303.8600
924.8093, 304.8901
925.2914, 305.7055
925.7736, 306.0274
926.2557, 305.6924
926.7378, 305.7321
927.2199, 307.1042
927.7020, 308.3026
928.1841, 308.5351
928.6663, 307.8031
929.1484, 306.8857
929.6305, 305.7581
930.1126, 304.8627
930.5947, 304.4406
931.0768, 304.4234
931.5590, 304.7085
932.0411, 305.3199
932.5232, 306.3373
933.0053, 308.7349
933.4874, 310.3757
933.9695, 310.4970
934.4517, 309.6665
934.9338, 309.2516
935.4159, 309.2649
935.8980, 309.2735
936.3801, 309.1368
936.8622, 309.0282
937.3444, 309.3924
937.8265, 309.8398
938.3086, 309.7542
938.7907, 308.5881
939.2728, 307.6312
939.7549, 306.8514
940.2371, 306.5906
940.7192, 307.4024
941.2013, 309.3360
941.6834, 310.3526
942.1655, 310.3485
942.6476, 310.0965
943.1298, 310.0547
943.6119, 310.2248
944.0940, 310.7469
944.5761, 311.6006
945.0582, 312.1481
945.5403, 311.8113
946.0225, 311.6744
946.5046, 312.0942
946.9867, 312.9709
947.4688, 314.1767
947.9509, 315.6345
948.4330, 316.3305
948.9152, 315.2643
949.3973, 314.0349
949.8794, 314.2588
950.3615, 315.3986
950.8436, 316.5056
951.3257, 317.7714
951.8079, 318.2603
952.2900, 317.4577
952.7721, 316.4971
953.2542, 316.9568
953.7363, 318.6164
954.2184, 319.8009
954.7006, 320.3085
955.1827, 320.5464
955.6648, 320.5405
956.1469, 320.6407
956.6290, 321.4619
957.1111, 323.2618
957.5933, 323.4599
958.0754, 320.8495
958.5575, 318.9401
959.0396, 319.7867
959.5217, 322.4739
960.0038, 323.9735
960.4860, 324.4061
960.9681, 324.3992
961.4502, 323.6836
961.9323, 323.2354
962.4144, 324.0365
962.8965, 325.4508
963.3787, 325.9894
963.8608, 325.0797
964.3429, 324.7268
964.8250, 325.3305
965.3071, 326.1553
965.7892, 326.1713
966.2714, 325.6148
966.7535, 324.9738
967.2356, 324.2872
967.7177, 323.9167
968.1998, 324.4530
968.6819, 325.0722
969.1641, 325.1629
969.6462, 324.6856
970.1283, 324.2839
970.6104, 324.0182
971.0925, 323.4610
971.5746, 322.0807
972.0568, 320.3957
972.5389, 319.4248
973.0210, 318.9687
973.5031, 318.4018
973.9852, 317.4137
974.4673, 316.3239
974.9495, 315.0975
975.4316, 313.8975
975.9137, 313.1474
976.3958, 312.9009
976.8779, 312.2308
977.3600, 310.9668
977.8422, 309.3169
978.3243, 306.8127
978.8064, 304.3833
979.2885, 303.5445
979.7706, 305.0529
980.2527, 305.4949
980.7349, 303.6258
981.2170, 301.5542
981.6991, 300.4499
982.1812, 300.1538
982.6633, 299.4954
983.1454, 298.5014
983.6276, 297.5093
984.1097, 296.6710
984.5918, 295.9442
985.0739, 295.2585
985.5560, 294.6626
986.0381, 294.3225
986.5203, 294.3401
987.0024, 294.4276
987.4845, 294.6446
987.9666, 294.7394
988.4487, 294.2638
988.9308, 293.3740
989.4130, 292.4075
989.8951, 291.3661
990.3772, 290.7229
990.8593, 291.1854
991.3414, 291.8116
991.8235, 291.8731
992.3057, 291.3324
992.7878, 290.8254
993.2699, 290.2617
993.7520, 290.2793
994.2341, 292.1056
994.7162, 294.0633
995.1984, 292.5125
995.6805, 288.6621
996.1626, 285.8599
996.6447, 286.1345
997.1268, 286.6252
997.6089, 286.8551
998.0911, 286.8433
998.5732, 286.4941
999.0553, 285.8116
999.5374, 285.5726
1000.020, 285.9374
1000.502, 286.1859
1000.984, 285.1256
1001.466, 283.9732
1001.948, 284.2238
1002.430, 286.2184
1002.912, 287.0939
1003.394, 286.0624
1003.876, 285.1107
1004.359, 285.1504
1004.841, 285.8055
1005.323, 285.9251
1005.805, 285.6256
1006.287, 285.3640
1006.769, 285.2689
1007.251, 285.3589
1007.733, 286.1028
1008.216, 286.8082
1008.698, 286.3656
1009.180, 284.1235
1009.662, 283.3406
1010.144, 284.3857
1010.626, 285.8736
1011.108, 286.6187
1011.590, 286.8117
1012.072, 286.6103
1012.555, 286.0524
1013.037, 285.5215
1013.519, 285.3300
1014.001, 284.9527
1014.483, 284.0870
1014.965, 282.9594
1015.447, 282.2850
1015.929, 282.0557
1016.411, 282.3346
1016.894, 283.4521
1017.376, 284.3497
1017.858, 283.4709
1018.340, 282.1143
1018.822, 282.0381
1019.304, 284.4640
1019.786, 285.5264
1020.268, 284.9274
1020.751, 283.7677
1021.233, 282.5702
1021.715, 281.5335
1022.197, 281.4381
1022.679, 282.1190
1023.161, 282.5602
1023.643, 281.8222
1024.125, 281.2318
1024.607, 281.5780
1025.090, 282.3304
1025.572, 282.2143
1026.054, 281.1256
1026.536, 280.7771
1027.018, 281.5985
1027.500, 282.6779
1027.982, 283.0354
1028.464, 283.1068
1028.947, 283.5024
1029.429, 284.4845
1029.911, 284.7685
1030.393, 283.8969
1030.875, 283.1042
1031.357, 283.2522
1031.839, 283.8732
1032.321, 282.9057
1032.803, 280.8253
1033.286, 279.6022
1033.768, 281.2386
1034.250, 282.7871
1034.732, 282.6889
1035.214, 281.8526
1035.696, 281.6828
1036.178, 282.4061
1036.660, 282.4233
1037.143, 281.5332
1037.625, 280.5143
1038.107, 279.7343
1038.589, 279.4347
1039.071, 280.3853
1039.553, 282.4893
1040.035, 283.4492
1040.517, 281.8071
1041.000, 280.4863
1041.482, 280.3913
1041.964, 281.0235
1042.446, 281.2676
1042.928, 281.2018
1043.410, 281.0923
1043.892, 280.9399
1044.374, 280.9979
1044.856, 282.1174
1045.339, 283.0064
1045.821, 282.2612
1046.303, 279.4851
1046.785, 278.2229
1047.267, 278.6120
1047.749, 279.3116
1048.231, 279.4326
1048.713, 279.3564
1049.195, 279.5291
1049.677, 279.9104
1050.160, 280.3706
1050.642, 281.1470
1051.124, 281.5968
1051.606, 281.6264
1052.088, 281.3387
1052.570, 280.7556
1053.052, 279.9634
1053.534, 279.3343
1054.017, 278.9133
1054.499, 278.5683
1054.981, 277.7009
1055.463, 277.3730
1055.945, 278.9391
1056.427, 281.8085
1056.909, 282.0621
1057.391, 279.3898
1057.874, 277.8503
1058.356, 279.3326
1058.838, 281.4830
1059.320, 281.3277
1059.802, 280.0229
1060.284, 279.2448
1060.766, 279.6933
1061.248, 279.8443
1061.730, 279.4942
1062.213, 279.1329
1062.695, 279.0672
1063.177, 279.2738
1063.659, 279.7139
1064.141, 280.3578
1064.623, 281.0715
1065.105, 282.1151
1065.587, 282.8305
1066.070, 282.8874
1066.552, 282.4942
1067.034, 281.8723
1067.516, 281.0165
1067.998, 280.0163
1068.480, 278.8374
1068.962, 278.0454
1069.444, 278.4698
1069.927, 279.2956
1070.409, 279.8417
1070.891, 280.0314
1071.373, 280.0474
1071.855, 279.7847
1072.337, 279.7233
1072.819, 280.1698
1073.301, 280.6451
1073.783, 279.9007
1074.266, 278.6033
1074.748, 278.3086
1075.230, 280.0759
1075.712, 281.0195
1076.194, 279.4599
1076.676, 277.9037
1077.158, 277.9873
1077.640, 279.5127
1078.122, 280.4195
1078.604, 280.7672
1079.087, 281.0679
1079.569, 281.9462
1080.051, 282.5079
1080.533, 281.7838
1081.015, 280.5325
1081.497, 280.1362
1081.979, 280.7731
1082.461, 281.6168
1082.944, 282.6930
1083.426, 283.3777
1083.908, 282.3392
1084.390, 281.0324
1084.872, 281.6033
1085.354, 283.9458
1085.836, 285.2458
1086.318, 284.6342
1086.801, 283.8709
1087.283, 283.2521
1087.765, 282.8786
1088.247, 283.0731
1088.729, 283.6497
1089.211, 284.1020
1089.693, 284.2874
1090.175, 284.5446
1090.657, 285.3056
1091.140, 285.8672
1091.622, 285.7078
1092.104, 284.9756
1092.586, 284.9971
1093.068, 285.7042
1093.550, 286.2830
1094.032, 286.4079
1094.514, 286.2328
1094.997, 285.3695
1095.479, 284.5204
1095.961, 284.8221
1096.443, 287.1833
1096.925, 287.1994
1097.407, 284.4420
1097.889, 282.0100
1098.371, 282.9614
1098.854, 285.2072
1099.336, 286.1997
1099.818, 286.1445
1100.300, 286.1214
1100.782, 286.7952
1101.264, 286.6791
1101.746, 285.2895
1102.228, 283.6613
1102.710, 283.2874
1103.193, 283.7489
1103.675, 284.0325
1104.157, 284.0190
1104.639, 283.9709
1105.121, 284.1245
1105.603, 284.0948
1106.085, 283.5340
1106.567, 282.7951
1107.049, 283.3498
1107.531, 284.9418
1108.014, 285.3631
1108.496, 283.6564
1108.978, 281.9589
1109.460, 281.5787
1109.942, 282.0379
1110.424, 283.2236
1110.906, 285.1836
1111.388, 285.5232
1111.871, 284.0961
1112.353, 283.1798
1112.835, 284.3149
1113.317, 286.0075
1113.799, 286.9082
1114.281, 287.1454
1114.763, 286.8750
1115.245, 285.5270
1115.728, 285.0012
1116.210, 285.4362
1116.692, 286.2513
1117.174, 287.2887
1117.656, 288.2197
1118.138, 288.2524
1118.620, 287.5858
1119.102, 287.0891
1119.584, 287.0334
1120.067, 287.2326
1120.549, 287.7176
1121.031, 288.3304
1121.513, 288.9462
1121.995, 289.5091
1122.477, 289.6905
1122.959, 289.4779
1123.441, 289.5518
1123.924, 291.4360
1124.406, 292.2805
1124.888, 290.1647
1125.370, 286.5661
1125.852, 285.7825
1126.334, 287.5807
1126.816, 289.3968
1127.298, 290.7531
1127.781, 291.4251
1128.263, 290.2913
1128.745, 289.1525
1129.227, 289.8712
1129.709, 292.3321
1130.191, 293.2138
1130.673, 292.3980
1131.155, 292.0355
1131.637, 293.3463
1132.120, 294.8474
1132.602, 294.7990
1133.084, 294.0211
1133.566, 293.6270
1134.048, 293.7303
1134.530, 294.4405
1135.012, 296.0273
1135.494, 297.1144
1135.976, 296.1095
1136.458, 294.5212
1136.941, 295.0682
1137.423, 296.9850
1137.905, 298.4017
1138.387, 298.6724
1138.869, 298.4627
1139.351, 297.4728
1139.833, 296.7292
1140.315, 297.6227
1140.798, 299.4214
1141.280, 300.2277
1141.762, 300.1608
1142.244, 300.4410
1142.726, 302.3524
1143.208, 303.5589
1143.690, 303.1974
1144.172, 302.3571
1144.655, 303.0128
1145.137, 304.6691
1145.619, 305.1074
1146.101, 304.0389
1146.583, 303.3799
1147.065, 304.8286
1147.547, 306.2337
1148.029, 306.4824
1148.511, 306.0273
1148.994, 306.2909
1149.476, 307.1544
1149.958, 307.4525
1150.440, 306.8065
1150.922, 306.1390
1151.404, 305.8744
1151.886, 306.0651
1152.368, 306.9609
1152.851, 308.4178
1153.333, 309.1765
1153.815, 309.2301
1154.297, 309.0402
1154.779, 308.6196
1155.261, 308.3633
1155.743, 308.6193
1156.225, 309.2513
1156.708, 310.3293
1157.190, 312.0677
1157.672, 312.3248
1158.154, 310.9124
1158.636, 309.6676
1159.118, 309.7056
1159.600, 310.3484
1160.082, 310.8732
1160.564, 311.4685
1161.047, 312.5510
1161.529, 315.0253
1162.011, 315.8079
1162.493, 314.5679
1162.975, 312.9907
1163.457, 312.2148
1163.939, 311.9904
1164.421, 312.0594
1164.903, 312.3869
1165.385, 312.9199
1165.868, 314.0611
1166.350, 314.5397
1166.832, 314.0861
1167.314, 313.4183
1167.796, 313.4301
1168.278, 313.6786
1168.760, 313.0521
1169.242, 311.7484
1169.725, 311.3721
1170.207, 313.3109
1170.689, 314.9399
1171.171, 315.9077
1171.653, 316.3400
1172.135, 316.1814
1172.617, 315.6774
1173.099, 315.3629
1173.582, 315.2985
1174.064, 315.3050
1174.546, 315.0623
1175.028, 315.3120
1175.510, 316.5765
1175.992, 318.0165
1176.474, 317.3416
1176.956, 315.4750
1177.438, 315.4167
1177.921, 317.9888
1178.403, 319.9433
1178.885, 319.4875
1179.367, 318.6222
1179.849, 318.0440
1180.331, 317.6974
1180.813, 317.5118
1181.295, 317.4286
1181.778, 317.1428
1182.260, 316.4043
1182.742, 316.0788
1183.224, 316.8849
1183.706, 317.9151
1184.188, 318.7549
1184.670, 319.3831
1185.152, 319.5769
1185.635, 319.3969
1186.117, 319.1301
1186.599, 318.6756
1187.081, 318.5898
1187.563, 319.4221
1188.045, 320.5197
1188.527, 321.5540
1189.009, 322.4663
1189.491, 322.3340
1189.974, 321.3018
1190.456, 320.4180
1190.938, 320.2147
1191.420, 320.2718
1191.902, 320.6437
1192.384, 320.9868
1192.866, 320.8656
1193.348, 320.2614
1193.830, 320.1574
1194.313, 320.5395
1194.795, 321.2134
1195.277, 322.7756
1195.759, 323.8019
1196.241, 322.8304
1196.723, 321.2687
1197.205, 321.0062
1197.687, 322.0903
1198.169, 322.6805
1198.652, 322.7079
1199.134, 322.5809
1199.616, 322.7097
1200.098, 322.6285
1200.580, 321.8741
1201.062, 320.8073
1201.544, 319.8627
1202.026, 319.0226
1202.509, 319.2541
1202.991, 320.6546
1203.473, 321.8248
1203.955, 321.5848
1204.437, 320.9428
1204.919, 320.2014
1205.401, 319.6416
1205.883, 320.0643
1206.365, 321.5026
1206.848, 321.9998
1207.330, 321.2177
1207.812, 320.8770
1208.294, 323.5997
1208.776, 326.0244
1209.258, 324.9787
1209.740, 321.8588
1210.222, 320.4344
1210.705, 320.7085
1211.187, 322.0196
1211.669, 324.4307
1212.151, 326.1964
1212.633, 325.4588
1213.115, 323.9391
1213.597, 322.6758
1214.079, 321.7168
1214.562, 321.0751
1215.044, 320.7566
1215.526, 321.1449
1216.008, 322.4794
1216.490, 323.6969
1216.972, 323.8102
1217.454, 323.6034
1217.936, 323.6884
1218.418, 323.9815
1218.901, 323.8760
1219.383, 323.4005
1219.865, 323.4125
1220.347, 324.3673
1220.829, 324.9905
1221.311, 323.7803
1221.793, 322.3502
1222.275, 321.9885
1222.757, 322.5295
1223.240, 322.5793
1223.722, 322.1996
1224.204, 322.2602
1224.686, 323.3629
1225.168, 324.0588
1225.650, 322.8605
1226.132, 321.3248
1226.614, 320.6243
1227.096, 320.6949
1227.579, 321.0332
1228.061, 321.6058
1228.543, 322.1104
1229.025, 322.3913
1229.507, 322.6573
1229.989, 323.1422
1230.471, 323.5453
1230.953, 323.6258
1231.436, 323.4108
1231.918, 323.0817
1232.400, 322.6762
1232.882, 322.4850
1233.364, 322.7381
1233.846, 323.0150
1234.328, 323.4886
1234.810, 323.5329
1235.292, 322.4718
1235.775, 320.5214
1236.257, 319.1887
1236.739, 318.5063
1237.221, 318.6473
1237.703, 320.5611
1238.185, 321.8898
1238.667, 321.1726
1239.149, 320.0842
1239.632, 319.5799
1240.114, 319.7064
1240.596, 321.2999
1241.078, 323.8703
1241.560, 325.3973
1242.042, 324.0849
1242.524, 322.8582
1243.006, 322.3924
1243.489, 322.2714
1243.971, 322.2976
1244.453, 322.3976
1244.935, 322.1179
1245.417, 321.6123
1245.899, 321.4630
1246.381, 322.4057
1246.863, 323.0092
1247.345, 323.1046
1247.828, 322.7982
1248.310, 321.9025
1248.792, 320.7624
1249.274, 320.0850
1249.756, 319.9670
1250.238, 320.6682
1250.720, 323.6967
1251.202, 325.2589
1251.684, 324.7024
1252.167, 323.5835
1252.649, 323.2984
1253.131, 323.3675
1253.613, 322.5729
1254.095, 321.2902
1254.577, 320.8163
1255.059, 322.2448
1255.541, 322.9850
1256.023, 322.7716
1256.506, 322.3085
1256.988, 322.1959
1257.470, 322.2238
1257.952, 321.7787
1258.434, 321.2348
1258.916, 321.9401
1259.398, 325.1113
1259.880, 326.1657
1260.363, 324.5960
1260.845, 322.4251
1261.327, 321.1538
1261.809, 320.3210
1262.291, 319.2862
1262.773, 318.3282
1263.255, 318.2174
1263.737, 319.1348
1264.219, 320.1820
1264.702, 321.3393
1265.184, 321.9922
1265.666, 321.2679
1266.148, 320.2473
1266.630, 319.4454
1267.112, 319.0991
1267.594, 319.8505
1268.076, 321.8708
1268.559, 322.0752
1269.041, 320.2817
1269.523, 318.6278
1270.005, 319.0166
1270.487, 319.4897
1270.969, 318.7148
1271.451, 317.4445
1271.933, 316.5342
1272.416, 316.0112
1272.898, 316.3953
1273.380, 317.6315
1273.862, 318.7320
1274.344, 318.8317
1274.826, 319.0891
1275.308, 320.2104
1275.790, 321.3463
1276.272, 321.2569
1276.755, 320.2763
1277.237, 319.5883
1277.719, 319.2572
1278.201, 319.1246
1278.683, 319.4106
1279.165, 319.4472
1279.647, 318.9622
1280.129, 318.4950
1280.611, 318.7301
1281.094, 319.3892
1281.576, 320.0557
1282.058, 320.6270
1282.540, 320.7047
1283.022, 319.6324
1283.504, 319.1870
1283.986, 319.6921
1284.468, 320.3213
1284.950, 320.0336
1285.433, 319.5264
1285.915, 319.9727
1286.397, 321.0429
1286.879, 321.3440
1287.361, 320.7603
1287.843, 319.3385
1288.325, 316.9068
1288.807, 315.1707
1289.290, 316.4672
1289.772, 318.2979
1290.254, 318.3799
1290.736, 317.3319
1291.218, 316.8545
1291.700, 316.9926
1292.182, 317.1019
1292.664, 317.1359
1293.146, 317.1579
1293.629, 316.9972
1294.111, 317.0743
1294.593, 318.1351
1295.075, 319.2222
1295.557, 318.8099
1296.039, 317.1801
1296.521, 316.9742
1297.003, 318.1068
1297.486, 318.6498
1297.968, 317.0481
1298.450, 315.4243
1298.932, 314.0473
1299.414, 313.3178
1299.896, 314.2069
1300.378, 315.9743
1300.860, 316.5666
1301.343, 316.0833
1301.825, 315.3922
##END=



