##NAMES=Wendwilsonite
##RRUFFID=R180012
##IDEAL CHEMISTRY=Ca_2_Mg(As^5+^O_4_)_2_&#183;2H_2_O
##LOCALITY=Bou Azzer, Morrocco
##OWNER=RRUFF
##SOURCE=Wendell Wilson
##DESCRIPTION=Red vitreous mineral. Photo from Wendell Wilson
##STATUS=The identification of this mineral is confirmed by single-crystal X-ray diffraction and chemical analysis.
##URL=rruff.info/R180012
##MEASURED CHEMISTRY=Ca_1.99_(Mg_0.66_Co_0.26_Zn_0.05_Ni_0.03_)_Σ=1.00_(AsO_4_)_2_·2H_2_O
8.813672e+001, 6.674083e+002
8.861884e+001, 6.946682e+002
8.910095e+001, 7.092758e+002
8.958307e+001, 7.041786e+002
9.006519e+001, 6.897820e+002
9.054730e+001, 6.765002e+002
9.102942e+001, 6.649384e+002
9.151154e+001, 6.530769e+002
9.199365e+001, 6.381156e+002
9.247577e+001, 6.212919e+002
9.295789e+001, 6.056581e+002
9.344000e+001, 5.919176e+002
9.392212e+001, 5.801896e+002
9.440424e+001, 5.716318e+002
9.488635e+001, 5.673051e+002
9.536847e+001, 5.650674e+002
9.585059e+001, 5.613329e+002
9.633270e+001, 5.561827e+002
9.681482e+001, 5.529349e+002
9.729694e+001, 5.531393e+002
9.777905e+001, 5.567018e+002
9.826117e+001, 5.633530e+002
9.874329e+001, 5.732401e+002
9.922540e+001, 5.857742e+002
9.970752e+001, 5.993091e+002
1.001896e+002, 6.130201e+002
1.006718e+002, 6.300545e+002
1.011539e+002, 6.522210e+002
1.016360e+002, 6.797924e+002
1.021181e+002, 7.114956e+002
1.026002e+002, 7.484122e+002
1.030823e+002, 7.895108e+002
1.035645e+002, 8.292544e+002
1.040466e+002, 8.752211e+002
1.045287e+002, 9.109283e+002
1.050108e+002, 9.227023e+002
1.054929e+002, 9.047017e+002
1.059750e+002, 8.743208e+002
1.064572e+002, 8.317839e+002
1.069393e+002, 7.756390e+002
1.074214e+002, 7.223948e+002
1.079035e+002, 6.702365e+002
1.083856e+002, 6.215811e+002
1.088677e+002, 5.799186e+002
1.093499e+002, 5.456039e+002
1.098320e+002, 5.172197e+002
1.103141e+002, 4.947501e+002
1.107962e+002, 4.783268e+002
1.112783e+002, 4.660624e+002
1.117604e+002, 4.597835e+002
1.122426e+002, 4.570167e+002
1.127247e+002, 4.541283e+002
1.132068e+002, 4.484171e+002
1.136889e+002, 4.440876e+002
1.141710e+002, 4.430511e+002
1.146531e+002, 4.467769e+002
1.151353e+002, 4.513875e+002
1.156174e+002, 4.569068e+002
1.160995e+002, 4.626947e+002
1.165816e+002, 4.672083e+002
1.170637e+002, 4.690941e+002
1.175458e+002, 4.699228e+002
1.180280e+002, 4.707966e+002
1.185101e+002, 4.723603e+002
1.189922e+002, 4.734819e+002
1.194743e+002, 4.723133e+002
1.199564e+002, 4.696327e+002
1.204385e+002, 4.689792e+002
1.209207e+002, 4.718830e+002
1.214028e+002, 4.780858e+002
1.218849e+002, 4.873238e+002
1.223670e+002, 5.010520e+002
1.228491e+002, 5.168721e+002
1.233312e+002, 5.343046e+002
1.238134e+002, 5.531527e+002
1.242955e+002, 5.687859e+002
1.247776e+002, 5.781636e+002
1.252597e+002, 5.815389e+002
1.257418e+002, 5.795243e+002
1.262239e+002, 5.679357e+002
1.267061e+002, 5.521104e+002
1.271882e+002, 5.407213e+002
1.276703e+002, 5.338109e+002
1.281524e+002, 5.301144e+002
1.286345e+002, 5.297045e+002
1.291166e+002, 5.319362e+002
1.295988e+002, 5.338898e+002
1.300809e+002, 5.327035e+002
1.305630e+002, 5.299362e+002
1.310451e+002, 5.315788e+002
1.315272e+002, 5.387278e+002
1.320093e+002, 5.476690e+002
1.324915e+002, 5.528286e+002
1.329736e+002, 5.541984e+002
1.334557e+002, 5.552503e+002
1.339378e+002, 5.570155e+002
1.344199e+002, 5.596180e+002
1.349020e+002, 5.652920e+002
1.353842e+002, 5.749302e+002
1.358663e+002, 5.868258e+002
1.363484e+002, 5.979276e+002
1.368305e+002, 6.081157e+002
1.373126e+002, 6.178636e+002
1.377947e+002, 6.261327e+002
1.382769e+002, 6.320370e+002
1.387590e+002, 6.434393e+002
1.392411e+002, 6.631699e+002
1.397232e+002, 6.885096e+002
1.402053e+002, 7.085802e+002
1.406874e+002, 7.246263e+002
1.411696e+002, 7.333847e+002
1.416517e+002, 7.311956e+002
1.421338e+002, 7.139481e+002
1.426159e+002, 6.967377e+002
1.430980e+002, 6.809016e+002
1.435801e+002, 6.665173e+002
1.440623e+002, 6.531066e+002
1.445444e+002, 6.401880e+002
1.450265e+002, 6.288516e+002
1.455086e+002, 6.202000e+002
1.459907e+002, 6.149896e+002
1.464728e+002, 6.112291e+002
1.469550e+002, 6.092521e+002
1.474371e+002, 6.092640e+002
1.479192e+002, 6.077709e+002
1.484013e+002, 6.024459e+002
1.488834e+002, 5.969860e+002
1.493655e+002, 5.947880e+002
1.498477e+002, 5.989993e+002
1.503298e+002, 6.031299e+002
1.508119e+002, 6.060475e+002
1.512940e+002, 6.075482e+002
1.517761e+002, 6.089362e+002
1.522583e+002, 6.108040e+002
1.527404e+002, 6.123362e+002
1.532225e+002, 6.126831e+002
1.537046e+002, 6.088812e+002
1.541867e+002, 6.065557e+002
1.546688e+002, 6.077435e+002
1.551510e+002, 6.136190e+002
1.556331e+002, 6.187477e+002
1.561152e+002, 6.219705e+002
1.565973e+002, 6.240204e+002
1.570794e+002, 6.258417e+002
1.575615e+002, 6.275413e+002
1.580437e+002, 6.291671e+002
1.585258e+002, 6.305331e+002
1.590079e+002, 6.312223e+002
1.594900e+002, 6.329042e+002
1.599721e+002, 6.368893e+002
1.604542e+002, 6.421217e+002
1.609364e+002, 6.467479e+002
1.614185e+002, 6.483521e+002
1.619006e+002, 6.503806e+002
1.623827e+002, 6.551759e+002
1.628648e+002, 6.644670e+002
1.633469e+002, 6.732788e+002
1.638291e+002, 6.788464e+002
1.643112e+002, 6.821958e+002
1.647933e+002, 6.858738e+002
1.652754e+002, 6.914225e+002
1.657575e+002, 6.975093e+002
1.662396e+002, 7.031969e+002
1.667218e+002, 7.083997e+002
1.672039e+002, 7.129979e+002
1.676860e+002, 7.155635e+002
1.681681e+002, 7.171160e+002
1.686502e+002, 7.209463e+002
1.691323e+002, 7.303193e+002
1.696145e+002, 7.422374e+002
1.700966e+002, 7.536761e+002
1.705787e+002, 7.636387e+002
1.710608e+002, 7.733905e+002
1.715429e+002, 7.835741e+002
1.720250e+002, 7.943850e+002
1.725072e+002, 8.061116e+002
1.729893e+002, 8.199842e+002
1.734714e+002, 8.348127e+002
1.739535e+002, 8.488625e+002
1.744356e+002, 8.611060e+002
1.749177e+002, 8.730656e+002
1.753999e+002, 8.861547e+002
1.758820e+002, 9.005311e+002
1.763641e+002, 9.162378e+002
1.768462e+002, 9.349055e+002
1.773283e+002, 9.550705e+002
1.778104e+002, 9.738118e+002
1.782926e+002, 9.886362e+002
1.787747e+002, 1.002897e+003
1.792568e+002, 1.022065e+003
1.797389e+002, 1.045772e+003
1.802210e+002, 1.070171e+003
1.807031e+002, 1.091726e+003
1.811853e+002, 1.111086e+003
1.816674e+002, 1.129382e+003
1.821495e+002, 1.146292e+003
1.826316e+002, 1.162621e+003
1.831137e+002, 1.179838e+003
1.835958e+002, 1.198115e+003
1.840780e+002, 1.215701e+003
1.845601e+002, 1.231027e+003
1.850422e+002, 1.244212e+003
1.855243e+002, 1.257077e+003
1.860064e+002, 1.270033e+003
1.864885e+002, 1.283005e+003
1.869707e+002, 1.296395e+003
1.874528e+002, 1.310617e+003
1.879349e+002, 1.322283e+003
1.884170e+002, 1.327317e+003
1.888991e+002, 1.326250e+003
1.893812e+002, 1.323191e+003
1.898634e+002, 1.318815e+003
1.903455e+002, 1.313492e+003
1.908276e+002, 1.309930e+003
1.913097e+002, 1.308979e+003
1.917918e+002, 1.305094e+003
1.922739e+002, 1.289769e+003
1.927561e+002, 1.263033e+003
1.932382e+002, 1.237811e+003
1.937203e+002, 1.218361e+003
1.942024e+002, 1.203924e+003
1.946845e+002, 1.189708e+003
1.951666e+002, 1.175581e+003
1.956488e+002, 1.162305e+003
1.961309e+002, 1.150310e+003
1.966130e+002, 1.139348e+003
1.970951e+002, 1.131420e+003
1.975772e+002, 1.127734e+003
1.980593e+002, 1.127949e+003
1.985415e+002, 1.128317e+003
1.990236e+002, 1.128750e+003
1.995057e+002, 1.129642e+003
1.999878e+002, 1.131245e+003
2.004699e+002, 1.133469e+003
2.009520e+002, 1.137508e+003
2.014342e+002, 1.145250e+003
2.019163e+002, 1.156532e+003
2.023984e+002, 1.162136e+003
2.028805e+002, 1.161063e+003
2.033626e+002, 1.156411e+003
2.038447e+002, 1.152515e+003
2.043269e+002, 1.149976e+003
2.048090e+002, 1.145156e+003
2.052911e+002, 1.135801e+003
2.057732e+002, 1.121678e+003
2.062553e+002, 1.111671e+003
2.067374e+002, 1.107768e+003
2.072196e+002, 1.104783e+003
2.077017e+002, 1.094809e+003
2.081838e+002, 1.075849e+003
2.086659e+002, 1.056643e+003
2.091480e+002, 1.040038e+003
2.096301e+002, 1.025999e+003
2.101123e+002, 1.013169e+003
2.105944e+002, 1.002068e+003
2.110765e+002, 9.913298e+002
2.115586e+002, 9.785171e+002
2.120407e+002, 9.623153e+002
2.125228e+002, 9.478011e+002
2.130050e+002, 9.377293e+002
2.134871e+002, 9.330241e+002
2.139692e+002, 9.237573e+002
2.144513e+002, 9.082805e+002
2.149334e+002, 8.900482e+002
2.154155e+002, 8.731217e+002
2.158977e+002, 8.567404e+002
2.163798e+002, 8.436159e+002
2.168619e+002, 8.357867e+002
2.173440e+002, 8.343256e+002
2.178261e+002, 8.290391e+002
2.183082e+002, 8.172654e+002
2.187904e+002, 8.044252e+002
2.192725e+002, 7.986218e+002
2.197546e+002, 8.026714e+002
2.202367e+002, 8.077079e+002
2.207188e+002, 8.110679e+002
2.212009e+002, 8.123785e+002
2.216831e+002, 8.150604e+002
2.221652e+002, 8.199506e+002
2.226473e+002, 8.254579e+002
2.231294e+002, 8.290671e+002
2.236115e+002, 8.294537e+002
2.240936e+002, 8.307009e+002
2.245758e+002, 8.341887e+002
2.250579e+002, 8.402990e+002
2.255400e+002, 8.459752e+002
2.260221e+002, 8.516769e+002
2.265042e+002, 8.565458e+002
2.269863e+002, 8.593732e+002
2.274685e+002, 8.599308e+002
2.279506e+002, 8.588203e+002
2.284327e+002, 8.555795e+002
2.289148e+002, 8.496219e+002
2.293969e+002, 8.455891e+002
2.298790e+002, 8.433288e+002
2.303612e+002, 8.430912e+002
2.308433e+002, 8.453784e+002
2.313254e+002, 8.513104e+002
2.318075e+002, 8.577974e+002
2.322896e+002, 8.643810e+002
2.327717e+002, 8.711586e+002
2.332539e+002, 8.767800e+002
2.337360e+002, 8.804783e+002
2.342181e+002, 8.835718e+002
2.347002e+002, 8.873888e+002
2.351823e+002, 8.912452e+002
2.356644e+002, 8.971722e+002
2.361466e+002, 9.066859e+002
2.366287e+002, 9.203549e+002
2.371108e+002, 9.303131e+002
2.375929e+002, 9.349704e+002
2.380750e+002, 9.372399e+002
2.385571e+002, 9.401129e+002
2.390393e+002, 9.442484e+002
2.395214e+002, 9.477814e+002
2.400035e+002, 9.500182e+002
2.404856e+002, 9.508558e+002
2.409677e+002, 9.529635e+002
2.414498e+002, 9.574083e+002
2.419320e+002, 9.620807e+002
2.424141e+002, 9.649613e+002
2.428962e+002, 9.652908e+002
2.433783e+002, 9.652628e+002
2.438604e+002, 9.658060e+002
2.443425e+002, 9.668959e+002
2.448247e+002, 9.647057e+002
2.453068e+002, 9.581929e+002
2.457889e+002, 9.494381e+002
2.462710e+002, 9.400841e+002
2.467531e+002, 9.302556e+002
2.472352e+002, 9.195749e+002
2.477174e+002, 9.080391e+002
2.481995e+002, 8.957337e+002
2.486816e+002, 8.820314e+002
2.491637e+002, 8.663373e+002
2.496458e+002, 8.499425e+002
2.501279e+002, 8.338348e+002
2.506101e+002, 8.172360e+002
2.510922e+002, 8.024032e+002
2.515743e+002, 7.898561e+002
2.520564e+002, 7.794515e+002
2.525385e+002, 7.706460e+002
2.530206e+002, 7.643042e+002
2.535028e+002, 7.583619e+002
2.539849e+002, 7.512343e+002
2.544670e+002, 7.414870e+002
2.549491e+002, 7.339410e+002
2.554312e+002, 7.302068e+002
2.559133e+002, 7.292360e+002
2.563955e+002, 7.248411e+002
2.568776e+002, 7.144615e+002
2.573597e+002, 7.044520e+002
2.578418e+002, 6.992786e+002
2.583239e+002, 7.013874e+002
2.588061e+002, 7.013519e+002
2.592882e+002, 6.972845e+002
2.597703e+002, 6.907314e+002
2.602524e+002, 6.879351e+002
2.607345e+002, 6.906139e+002
2.612166e+002, 6.938814e+002
2.616988e+002, 6.948163e+002
2.621809e+002, 6.922622e+002
2.626630e+002, 6.912663e+002
2.631451e+002, 6.925528e+002
2.636272e+002, 6.953392e+002
2.641093e+002, 6.976684e+002
2.645915e+002, 6.999318e+002
2.650736e+002, 7.009725e+002
2.655557e+002, 6.994791e+002
2.660378e+002, 6.940713e+002
2.665199e+002, 6.923174e+002
2.670020e+002, 6.958109e+002
2.674842e+002, 7.018541e+002
2.679663e+002, 7.043126e+002
2.684484e+002, 7.018235e+002
2.689305e+002, 6.996768e+002
2.694126e+002, 7.004520e+002
2.698947e+002, 7.048199e+002
2.703769e+002, 7.080299e+002
2.708590e+002, 7.096020e+002
2.713411e+002, 7.106226e+002
2.718232e+002, 7.130560e+002
2.723053e+002, 7.172996e+002
2.727874e+002, 7.213249e+002
2.732696e+002, 7.242435e+002
2.737517e+002, 7.259510e+002
2.742338e+002, 7.281826e+002
2.747159e+002, 7.309852e+002
2.751980e+002, 7.342049e+002
2.756801e+002, 7.376854e+002
2.761623e+002, 7.414865e+002
2.766444e+002, 7.451736e+002
2.771265e+002, 7.483096e+002
2.776086e+002, 7.510583e+002
2.780907e+002, 7.553494e+002
2.785728e+002, 7.615051e+002
2.790550e+002, 7.683885e+002
2.795371e+002, 7.747690e+002
2.800192e+002, 7.806172e+002
2.805013e+002, 7.864524e+002
2.809834e+002, 7.920240e+002
2.814655e+002, 7.976947e+002
2.819477e+002, 8.061832e+002
2.824298e+002, 8.181212e+002
2.829119e+002, 8.295167e+002
2.833940e+002, 8.358099e+002
2.838761e+002, 8.370865e+002
2.843582e+002, 8.392766e+002
2.848404e+002, 8.441241e+002
2.853225e+002, 8.504594e+002
2.858046e+002, 8.547000e+002
2.862867e+002, 8.566943e+002
2.867688e+002, 8.577316e+002
2.872509e+002, 8.577837e+002
2.877331e+002, 8.571953e+002
2.882152e+002, 8.593829e+002
2.886973e+002, 8.655895e+002
2.891794e+002, 8.739964e+002
2.896615e+002, 8.807025e+002
2.901436e+002, 8.857757e+002
2.906258e+002, 8.904890e+002
2.911079e+002, 8.946683e+002
2.915900e+002, 8.989613e+002
2.920721e+002, 9.064379e+002
2.925542e+002, 9.177554e+002
2.930363e+002, 9.314463e+002
2.935185e+002, 9.443217e+002
2.940006e+002, 9.569387e+002
2.944827e+002, 9.728732e+002
2.949648e+002, 9.967203e+002
2.954469e+002, 1.025705e+003
2.959290e+002, 1.051290e+003
2.964112e+002, 1.072384e+003
2.968933e+002, 1.093343e+003
2.973754e+002, 1.119360e+003
2.978575e+002, 1.149510e+003
2.983396e+002, 1.181052e+003
2.988217e+002, 1.211124e+003
2.993039e+002, 1.241955e+003
2.997860e+002, 1.278533e+003
3.002681e+002, 1.321633e+003
3.007502e+002, 1.363756e+003
3.012323e+002, 1.398596e+003
3.017144e+002, 1.426877e+003
3.021966e+002, 1.448873e+003
3.026787e+002, 1.465494e+003
3.031608e+002, 1.476027e+003
3.036429e+002, 1.480168e+003
3.041250e+002, 1.477846e+003
3.046071e+002, 1.468312e+003
3.050893e+002, 1.448944e+003
3.055714e+002, 1.422190e+003
3.060535e+002, 1.392492e+003
3.065356e+002, 1.359917e+003
3.070177e+002, 1.325980e+003
3.074998e+002, 1.290971e+003
3.079820e+002, 1.255279e+003
3.084641e+002, 1.222698e+003
3.089462e+002, 1.197302e+003
3.094283e+002, 1.175431e+003
3.099104e+002, 1.153121e+003
3.103925e+002, 1.128481e+003
3.108747e+002, 1.105417e+003
3.113568e+002, 1.087405e+003
3.118389e+002, 1.073436e+003
3.123210e+002, 1.060745e+003
3.128031e+002, 1.048286e+003
3.132852e+002, 1.036234e+003
3.137674e+002, 1.024106e+003
3.142495e+002, 1.011054e+003
3.147316e+002, 1.000843e+003
3.152137e+002, 9.971639e+002
3.156958e+002, 9.975013e+002
3.161779e+002, 9.975539e+002
3.166601e+002, 9.953248e+002
3.171422e+002, 9.926849e+002
3.176243e+002, 9.899287e+002
3.181064e+002, 9.867267e+002
3.185885e+002, 9.861591e+002
3.190706e+002, 9.912731e+002
3.195528e+002, 9.989120e+002
3.200349e+002, 1.005491e+003
3.205170e+002, 1.007015e+003
3.209991e+002, 1.010255e+003
3.214812e+002, 1.017853e+003
3.219633e+002, 1.029955e+003
3.224455e+002, 1.042705e+003
3.229276e+002, 1.055548e+003
3.234097e+002, 1.068680e+003
3.238918e+002, 1.082243e+003
3.243739e+002, 1.094528e+003
3.248560e+002, 1.109139e+003
3.253382e+002, 1.127418e+003
3.258203e+002, 1.148968e+003
3.263024e+002, 1.170442e+003
3.267845e+002, 1.190885e+003
3.272666e+002, 1.211858e+003
3.277487e+002, 1.234221e+003
3.282309e+002, 1.258964e+003
3.287130e+002, 1.283353e+003
3.291951e+002, 1.304622e+003
3.296772e+002, 1.325606e+003
3.301593e+002, 1.353857e+003
3.306414e+002, 1.395278e+003
3.311236e+002, 1.436768e+003
3.316057e+002, 1.473267e+003
3.320878e+002, 1.501045e+003
3.325699e+002, 1.535457e+003
3.330520e+002, 1.578298e+003
3.335341e+002, 1.626274e+003
3.340163e+002, 1.674965e+003
3.344984e+002, 1.724926e+003
3.349805e+002, 1.773846e+003
3.354626e+002, 1.821856e+003
3.359447e+002, 1.869257e+003
3.364268e+002, 1.912974e+003
3.369090e+002, 1.952291e+003
3.373911e+002, 1.989724e+003
3.378732e+002, 2.028858e+003
3.383553e+002, 2.072165e+003
3.388374e+002, 2.106734e+003
3.393195e+002, 2.129533e+003
3.398017e+002, 2.142001e+003
3.402838e+002, 2.150408e+003
3.407659e+002, 2.153573e+003
3.412480e+002, 2.156745e+003
3.417301e+002, 2.164325e+003
3.422122e+002, 2.176468e+003
3.426944e+002, 2.186575e+003
3.431765e+002, 2.192613e+003
3.436586e+002, 2.198213e+003
3.441407e+002, 2.211463e+003
3.446228e+002, 2.232418e+003
3.451049e+002, 2.255172e+003
3.455871e+002, 2.273454e+003
3.460692e+002, 2.289816e+003
3.465513e+002, 2.317966e+003
3.470334e+002, 2.359618e+003
3.475155e+002, 2.407520e+003
3.479977e+002, 2.451253e+003
3.484798e+002, 2.492462e+003
3.489619e+002, 2.537539e+003
3.494440e+002, 2.591340e+003
3.499261e+002, 2.650079e+003
3.504082e+002, 2.705516e+003
3.508904e+002, 2.757642e+003
3.513725e+002, 2.810658e+003
3.518546e+002, 2.871296e+003
3.523367e+002, 2.935650e+003
3.528188e+002, 2.996342e+003
3.533009e+002, 3.051977e+003
3.537831e+002, 3.102057e+003
3.542652e+002, 3.148371e+003
3.547473e+002, 3.189589e+003
3.552294e+002, 3.219705e+003
3.557115e+002, 3.231077e+003
3.561936e+002, 3.231142e+003
3.566758e+002, 3.228984e+003
3.571579e+002, 3.228611e+003
3.576400e+002, 3.219544e+003
3.581221e+002, 3.193208e+003
3.586042e+002, 3.153156e+003
3.590863e+002, 3.105894e+003
3.595685e+002, 3.055096e+003
3.600506e+002, 2.997531e+003
3.605327e+002, 2.930043e+003
3.610148e+002, 2.851771e+003
3.614969e+002, 2.769690e+003
3.619790e+002, 2.681878e+003
3.624612e+002, 2.593748e+003
3.629433e+002, 2.509923e+003
3.634254e+002, 2.434014e+003
3.639075e+002, 2.360221e+003
3.643896e+002, 2.286255e+003
3.648717e+002, 2.212301e+003
3.653539e+002, 2.141422e+003
3.658360e+002, 2.071670e+003
3.663181e+002, 2.007035e+003
3.668002e+002, 1.948603e+003
3.672823e+002, 1.898850e+003
3.677644e+002, 1.852358e+003
3.682466e+002, 1.809237e+003
3.687287e+002, 1.769093e+003
3.692108e+002, 1.731339e+003
3.696929e+002, 1.694468e+003
3.701750e+002, 1.661177e+003
3.706571e+002, 1.632973e+003
3.711393e+002, 1.610651e+003
3.716214e+002, 1.590089e+003
3.721035e+002, 1.571213e+003
3.725856e+002, 1.553970e+003
3.730677e+002, 1.538645e+003
3.735498e+002, 1.525707e+003
3.740320e+002, 1.513617e+003
3.745141e+002, 1.502946e+003
3.749962e+002, 1.493479e+003
3.754783e+002, 1.480400e+003
3.759604e+002, 1.463113e+003
3.764425e+002, 1.443906e+003
3.769247e+002, 1.424589e+003
3.774068e+002, 1.405475e+003
3.778889e+002, 1.385292e+003
3.783710e+002, 1.364372e+003
3.788531e+002, 1.342082e+003
3.793352e+002, 1.315423e+003
3.798174e+002, 1.284217e+003
3.802995e+002, 1.253297e+003
3.807816e+002, 1.225123e+003
3.812637e+002, 1.199494e+003
3.817458e+002, 1.177577e+003
3.822279e+002, 1.159652e+003
3.827101e+002, 1.143258e+003
3.831922e+002, 1.124204e+003
3.836743e+002, 1.103201e+003
3.841564e+002, 1.084623e+003
3.846385e+002, 1.071300e+003
3.851206e+002, 1.060697e+003
3.856028e+002, 1.047257e+003
3.860849e+002, 1.031224e+003
3.865670e+002, 1.017219e+003
3.870491e+002, 1.010473e+003
3.875312e+002, 1.007730e+003
3.880133e+002, 1.003403e+003
3.884955e+002, 9.951854e+002
3.889776e+002, 9.867773e+002
3.894597e+002, 9.808849e+002
3.899418e+002, 9.774396e+002
3.904239e+002, 9.762279e+002
3.909060e+002, 9.792214e+002
3.913882e+002, 9.830804e+002
3.918703e+002, 9.847410e+002
3.923524e+002, 9.832825e+002
3.928345e+002, 9.828963e+002
3.933166e+002, 9.870011e+002
3.937987e+002, 9.929450e+002
3.942809e+002, 9.973216e+002
3.947630e+002, 9.978049e+002
3.952451e+002, 9.978751e+002
3.957272e+002, 9.979121e+002
3.962093e+002, 9.980863e+002
3.966914e+002, 1.000479e+003
3.971736e+002, 1.006583e+003
3.976557e+002, 1.014324e+003
3.981378e+002, 1.022480e+003
3.986199e+002, 1.031248e+003
3.991020e+002, 1.039903e+003
3.995841e+002, 1.048981e+003
4.000663e+002, 1.057909e+003
4.005484e+002, 1.065144e+003
4.010305e+002, 1.068086e+003
4.015126e+002, 1.072627e+003
4.019947e+002, 1.081403e+003
4.024768e+002, 1.095594e+003
4.029590e+002, 1.107585e+003
4.034411e+002, 1.118348e+003
4.039232e+002, 1.125818e+003
4.044053e+002, 1.126873e+003
4.048874e+002, 1.119643e+003
4.053695e+002, 1.112396e+003
4.058517e+002, 1.106506e+003
4.063338e+002, 1.101871e+003
4.068159e+002, 1.098337e+003
4.072980e+002, 1.096359e+003
4.077801e+002, 1.093299e+003
4.082622e+002, 1.086197e+003
4.087444e+002, 1.075470e+003
4.092265e+002, 1.067451e+003
4.097086e+002, 1.062794e+003
4.101907e+002, 1.060715e+003
4.106728e+002, 1.060202e+003
4.111549e+002, 1.061214e+003
4.116371e+002, 1.063620e+003
4.121192e+002, 1.068353e+003
4.126013e+002, 1.074150e+003
4.130834e+002, 1.077986e+003
4.135655e+002, 1.079834e+003
4.140476e+002, 1.082175e+003
4.145298e+002, 1.087438e+003
4.150119e+002, 1.094495e+003
4.154940e+002, 1.101448e+003
4.159761e+002, 1.106809e+003
4.164582e+002, 1.113288e+003
4.169403e+002, 1.123430e+003
4.174225e+002, 1.136546e+003
4.179046e+002, 1.150673e+003
4.183867e+002, 1.166482e+003
4.188688e+002, 1.181555e+003
4.193509e+002, 1.193342e+003
4.198330e+002, 1.200934e+003
4.203152e+002, 1.209294e+003
4.207973e+002, 1.222341e+003
4.212794e+002, 1.236605e+003
4.217615e+002, 1.248144e+003
4.222436e+002, 1.253290e+003
4.227257e+002, 1.258458e+003
4.232079e+002, 1.265127e+003
4.236900e+002, 1.273249e+003
4.241721e+002, 1.282000e+003
4.246542e+002, 1.292212e+003
4.251363e+002, 1.302369e+003
4.256184e+002, 1.312069e+003
4.261006e+002, 1.322697e+003
4.265827e+002, 1.329847e+003
4.270648e+002, 1.332132e+003
4.275469e+002, 1.331611e+003
4.280290e+002, 1.331865e+003
4.285111e+002, 1.333206e+003
4.289933e+002, 1.334501e+003
4.294754e+002, 1.334750e+003
4.299575e+002, 1.334080e+003
4.304396e+002, 1.337140e+003
4.309217e+002, 1.344392e+003
4.314038e+002, 1.353945e+003
4.318860e+002, 1.363305e+003
4.323681e+002, 1.372430e+003
4.328502e+002, 1.386274e+003
4.333323e+002, 1.406189e+003
4.338144e+002, 1.430268e+003
4.342965e+002, 1.454498e+003
4.347787e+002, 1.479080e+003
4.352608e+002, 1.506589e+003
4.357429e+002, 1.538904e+003
4.362250e+002, 1.575080e+003
4.367071e+002, 1.612711e+003
4.371892e+002, 1.651609e+003
4.376714e+002, 1.693643e+003
4.381535e+002, 1.739989e+003
4.386356e+002, 1.790397e+003
4.391177e+002, 1.844281e+003
4.395998e+002, 1.902753e+003
4.400819e+002, 1.963153e+003
4.405641e+002, 2.022269e+003
4.410462e+002, 2.081220e+003
4.415283e+002, 2.144248e+003
4.420104e+002, 2.209883e+003
4.424925e+002, 2.282396e+003
4.429746e+002, 2.364431e+003
4.434568e+002, 2.458013e+003
4.439389e+002, 2.556231e+003
4.444210e+002, 2.657110e+003
4.449031e+002, 2.761318e+003
4.453852e+002, 2.870099e+003
4.458673e+002, 2.983913e+003
4.463495e+002, 3.100445e+003
4.468316e+002, 3.223037e+003
4.473137e+002, 3.350771e+003
4.477958e+002, 3.470886e+003
4.482779e+002, 3.583816e+003
4.487600e+002, 3.687111e+003
4.492422e+002, 3.780413e+003
4.497243e+002, 3.869284e+003
4.502064e+002, 3.936318e+003
4.506885e+002, 3.984372e+003
4.511706e+002, 4.009737e+003
4.516527e+002, 4.006015e+003
4.521349e+002, 3.972712e+003
4.526170e+002, 3.913316e+003
4.530991e+002, 3.828194e+003
4.535812e+002, 3.717285e+003
4.540633e+002, 3.585039e+003
4.545454e+002, 3.428895e+003
4.550276e+002, 3.263136e+003
4.555097e+002, 3.097604e+003
4.559918e+002, 2.931732e+003
4.564739e+002, 2.770344e+003
4.569560e+002, 2.611669e+003
4.574381e+002, 2.459271e+003
4.579203e+002, 2.313392e+003
4.584024e+002, 2.176763e+003
4.588845e+002, 2.055445e+003
4.593666e+002, 1.957980e+003
4.598488e+002, 1.875431e+003
4.603309e+002, 1.800810e+003
4.608130e+002, 1.734108e+003
4.612951e+002, 1.672985e+003
4.617772e+002, 1.616960e+003
4.622593e+002, 1.566611e+003
4.627415e+002, 1.523974e+003
4.632236e+002, 1.492472e+003
4.637057e+002, 1.463454e+003
4.641878e+002, 1.433530e+003
4.646699e+002, 1.404115e+003
4.651520e+002, 1.377349e+003
4.656342e+002, 1.351335e+003
4.661163e+002, 1.331158e+003
4.665984e+002, 1.320307e+003
4.670805e+002, 1.320365e+003
4.675626e+002, 1.317647e+003
4.680447e+002, 1.309408e+003
4.685269e+002, 1.300302e+003
4.690090e+002, 1.293335e+003
4.694911e+002, 1.288975e+003
4.699732e+002, 1.285977e+003
4.704553e+002, 1.284759e+003
4.709374e+002, 1.284519e+003
4.714196e+002, 1.283189e+003
4.719017e+002, 1.280240e+003
4.723838e+002, 1.278208e+003
4.728659e+002, 1.278785e+003
4.733480e+002, 1.281550e+003
4.738301e+002, 1.281450e+003
4.743123e+002, 1.278118e+003
4.747944e+002, 1.274442e+003
4.752765e+002, 1.274405e+003
4.757586e+002, 1.276712e+003
4.762407e+002, 1.275286e+003
4.767228e+002, 1.267995e+003
4.772050e+002, 1.258713e+003
4.776871e+002, 1.252342e+003
4.781692e+002, 1.248330e+003
4.786513e+002, 1.245052e+003
4.791334e+002, 1.242259e+003
4.796155e+002, 1.239406e+003
4.800977e+002, 1.236242e+003
4.805798e+002, 1.232722e+003
4.810619e+002, 1.228012e+003
4.815440e+002, 1.220897e+003
4.820261e+002, 1.212803e+003
4.825082e+002, 1.205108e+003
4.829904e+002, 1.199908e+003
4.834725e+002, 1.192471e+003
4.839546e+002, 1.179525e+003
4.844367e+002, 1.163488e+003
4.849188e+002, 1.149714e+003
4.854009e+002, 1.142119e+003
4.858831e+002, 1.133579e+003
4.863652e+002, 1.121189e+003
4.868473e+002, 1.104616e+003
4.873294e+002, 1.091302e+003
4.878115e+002, 1.083731e+003
4.882936e+002, 1.076501e+003
4.887758e+002, 1.065272e+003
4.892579e+002, 1.048494e+003
4.897400e+002, 1.032855e+003
4.902221e+002, 1.018739e+003
4.907042e+002, 1.006098e+003
4.911863e+002, 9.956039e+002
4.916685e+002, 9.873212e+002
4.921506e+002, 9.790614e+002
4.926327e+002, 9.696967e+002
4.931148e+002, 9.596986e+002
4.935969e+002, 9.513551e+002
4.940790e+002, 9.445495e+002
4.945612e+002, 9.382692e+002
4.950433e+002, 9.324230e+002
4.955254e+002, 9.263293e+002
4.960075e+002, 9.181227e+002
4.964896e+002, 9.068679e+002
4.969717e+002, 8.955767e+002
4.974539e+002, 8.868596e+002
4.979360e+002, 8.801599e+002
4.984181e+002, 8.747474e+002
4.989002e+002, 8.727601e+002
4.993823e+002, 8.697294e+002
4.998644e+002, 8.620593e+002
5.003466e+002, 8.502321e+002
5.008287e+002, 8.402000e+002
5.013108e+002, 8.340785e+002
5.017929e+002, 8.300552e+002
5.022750e+002, 8.272000e+002
5.027571e+002, 8.257941e+002
5.032393e+002, 8.248922e+002
5.037214e+002, 8.263613e+002
5.042035e+002, 8.273840e+002
5.046856e+002, 8.236445e+002
5.051677e+002, 8.113112e+002
5.056498e+002, 8.021229e+002
5.061320e+002, 7.992264e+002
5.066141e+002, 8.012890e+002
5.070962e+002, 8.010535e+002
5.075783e+002, 7.979785e+002
5.080604e+002, 7.948582e+002
5.085425e+002, 7.934082e+002
5.090247e+002, 7.934858e+002
5.095068e+002, 7.939186e+002
5.099889e+002, 7.947491e+002
5.104710e+002, 7.954470e+002
5.109531e+002, 7.960884e+002
5.114352e+002, 7.961842e+002
5.119174e+002, 7.939476e+002
5.123995e+002, 7.871134e+002
5.128816e+002, 7.800756e+002
5.133637e+002, 7.786079e+002
5.138458e+002, 7.811088e+002
5.143279e+002, 7.823648e+002
5.148101e+002, 7.778144e+002
5.152922e+002, 7.723705e+002
5.157743e+002, 7.694436e+002
5.162564e+002, 7.694811e+002
5.167385e+002, 7.704479e+002
5.172206e+002, 7.728087e+002
5.177028e+002, 7.751537e+002
5.181849e+002, 7.763359e+002
5.186670e+002, 7.747040e+002
5.191491e+002, 7.737371e+002
5.196312e+002, 7.738569e+002
5.201133e+002, 7.747150e+002
5.205955e+002, 7.757702e+002
5.210776e+002, 7.778884e+002
5.215597e+002, 7.784531e+002
5.220418e+002, 7.759182e+002
5.225239e+002, 7.704976e+002
5.230060e+002, 7.678332e+002
5.234882e+002, 7.683344e+002
5.239703e+002, 7.700016e+002
5.244524e+002, 7.715748e+002
5.249345e+002, 7.730128e+002
5.254166e+002, 7.740241e+002
5.258987e+002, 7.745776e+002
5.263809e+002, 7.747167e+002
5.268630e+002, 7.748812e+002
5.273451e+002, 7.747449e+002
5.278272e+002, 7.732327e+002
5.283093e+002, 7.683702e+002
5.287914e+002, 7.632560e+002
5.292736e+002, 7.613316e+002
5.297557e+002, 7.620789e+002
5.302378e+002, 7.632335e+002
5.307199e+002, 7.646151e+002
5.312020e+002, 7.652958e+002
5.316841e+002, 7.641362e+002
5.321663e+002, 7.603494e+002
5.326484e+002, 7.578947e+002
5.331305e+002, 7.588241e+002
5.336126e+002, 7.610132e+002
5.340947e+002, 7.624413e+002
5.345768e+002, 7.606208e+002
5.350590e+002, 7.612144e+002
5.355411e+002, 7.661640e+002
5.360232e+002, 7.735049e+002
5.365053e+002, 7.777048e+002
5.369874e+002, 7.779442e+002
5.374695e+002, 7.769166e+002
5.379517e+002, 7.752209e+002
5.384338e+002, 7.729282e+002
5.389159e+002, 7.712398e+002
5.393980e+002, 7.701163e+002
5.398801e+002, 7.698038e+002
5.403622e+002, 7.711024e+002
5.408444e+002, 7.735189e+002
5.413265e+002, 7.752677e+002
5.418086e+002, 7.762653e+002
5.422907e+002, 7.760277e+002
5.427728e+002, 7.723785e+002
5.432549e+002, 7.671267e+002
5.437371e+002, 7.642657e+002
5.442192e+002, 7.679919e+002
5.447013e+002, 7.725301e+002
5.451834e+002, 7.738182e+002
5.456655e+002, 7.724861e+002
5.461476e+002, 7.709878e+002
5.466298e+002, 7.702216e+002
5.471119e+002, 7.696264e+002
5.475940e+002, 7.687074e+002
5.480761e+002, 7.670467e+002
5.485582e+002, 7.665966e+002
5.490403e+002, 7.687332e+002
5.495225e+002, 7.712712e+002
5.500046e+002, 7.723442e+002
5.504867e+002, 7.710367e+002
5.509688e+002, 7.703683e+002
5.514509e+002, 7.712026e+002
5.519330e+002, 7.723256e+002
5.524152e+002, 7.702114e+002
5.528973e+002, 7.641398e+002
5.533794e+002, 7.602933e+002
5.538615e+002, 7.612495e+002
5.543436e+002, 7.661113e+002
5.548257e+002, 7.735142e+002
5.553079e+002, 7.832758e+002
5.557900e+002, 7.902777e+002
5.562721e+002, 7.881685e+002
5.567542e+002, 7.814576e+002
5.572363e+002, 7.774191e+002
5.577184e+002, 7.771226e+002
5.582006e+002, 7.783446e+002
5.586827e+002, 7.807978e+002
5.591648e+002, 7.833390e+002
5.596469e+002, 7.845555e+002
5.601290e+002, 7.824884e+002
5.606111e+002, 7.806519e+002
5.610933e+002, 7.804655e+002
5.615754e+002, 7.813751e+002
5.620575e+002, 7.818771e+002
5.625396e+002, 7.796375e+002
5.630217e+002, 7.792475e+002
5.635038e+002, 7.830049e+002
5.639860e+002, 7.911996e+002
5.644681e+002, 7.956127e+002
5.649502e+002, 7.948971e+002
5.654323e+002, 7.929022e+002
5.659144e+002, 7.921754e+002
5.663965e+002, 7.927615e+002
5.668787e+002, 7.940042e+002
5.673608e+002, 7.960931e+002
5.678429e+002, 7.981237e+002
5.683250e+002, 7.987813e+002
5.688071e+002, 7.982556e+002
5.692892e+002, 7.971745e+002
5.697714e+002, 7.952106e+002
5.702535e+002, 7.934916e+002
5.707356e+002, 7.933676e+002
5.712177e+002, 7.946923e+002
5.716998e+002, 7.969607e+002
5.721819e+002, 8.022026e+002
5.726641e+002, 8.065580e+002
5.731462e+002, 8.067408e+002
5.736283e+002, 8.025133e+002
5.741104e+002, 7.985323e+002
5.745925e+002, 7.942423e+002
5.750746e+002, 7.919949e+002
5.755568e+002, 7.937652e+002
5.760389e+002, 8.045881e+002
5.765210e+002, 8.102391e+002
5.770031e+002, 8.078582e+002
5.774852e+002, 8.024285e+002
5.779673e+002, 8.006982e+002
5.784495e+002, 8.036938e+002
5.789316e+002, 8.069252e+002
5.794137e+002, 8.100263e+002
5.798958e+002, 8.123720e+002
5.803779e+002, 8.115031e+002
5.808600e+002, 8.074561e+002
5.813422e+002, 8.041819e+002
5.818243e+002, 8.042020e+002
5.823064e+002, 8.063762e+002
5.827885e+002, 8.086842e+002
5.832706e+002, 8.110711e+002
5.837527e+002, 8.128943e+002
5.842349e+002, 8.128886e+002
5.847170e+002, 8.124742e+002
5.851991e+002, 8.135168e+002
5.856812e+002, 8.171627e+002
5.861633e+002, 8.195718e+002
5.866454e+002, 8.174415e+002
5.871276e+002, 8.137368e+002
5.876097e+002, 8.120990e+002
5.880918e+002, 8.154026e+002
5.885739e+002, 8.180900e+002
5.890560e+002, 8.191154e+002
5.895381e+002, 8.190773e+002
5.900203e+002, 8.200278e+002
5.905024e+002, 8.232886e+002
5.909845e+002, 8.244463e+002
5.914666e+002, 8.205010e+002
5.919487e+002, 8.124955e+002
5.924308e+002, 8.111364e+002
5.929130e+002, 8.171944e+002
5.933951e+002, 8.237336e+002
5.938772e+002, 8.244446e+002
5.943593e+002, 8.213156e+002
5.948414e+002, 8.202151e+002
5.953235e+002, 8.218724e+002
5.958057e+002, 8.243231e+002
5.962878e+002, 8.262422e+002
5.967699e+002, 8.276451e+002
5.972520e+002, 8.284722e+002
5.977341e+002, 8.280993e+002
5.982162e+002, 8.280422e+002
5.986984e+002, 8.296185e+002
5.991805e+002, 8.319769e+002
5.996626e+002, 8.333763e+002
6.001447e+002, 8.324774e+002
6.006268e+002, 8.316122e+002
6.011089e+002, 8.316168e+002
6.015911e+002, 8.323591e+002
6.020732e+002, 8.320998e+002
6.025553e+002, 8.298234e+002
6.030374e+002, 8.284525e+002
6.035195e+002, 8.299658e+002
6.040016e+002, 8.345027e+002
6.044838e+002, 8.380446e+002
6.049659e+002, 8.405524e+002
6.054480e+002, 8.421249e+002
6.059301e+002, 8.424465e+002
6.064122e+002, 8.418409e+002
6.068943e+002, 8.414056e+002
6.073765e+002, 8.413074e+002
6.078586e+002, 8.415301e+002
6.083407e+002, 8.421069e+002
6.088228e+002, 8.429847e+002
6.093049e+002, 8.440544e+002
6.097870e+002, 8.440939e+002
6.102692e+002, 8.454837e+002
6.107513e+002, 8.513195e+002
6.112334e+002, 8.598301e+002
6.117155e+002, 8.646373e+002
6.121976e+002, 8.604857e+002
6.126797e+002, 8.564434e+002
6.131619e+002, 8.553929e+002
6.136440e+002, 8.574371e+002
6.141261e+002, 8.604875e+002
6.146082e+002, 8.655783e+002
6.150903e+002, 8.698079e+002
6.155724e+002, 8.706608e+002
6.160546e+002, 8.680587e+002
6.165367e+002, 8.668607e+002
6.170188e+002, 8.674885e+002
6.175009e+002, 8.686849e+002
6.179830e+002, 8.691797e+002
6.184651e+002, 8.690734e+002
6.189473e+002, 8.684846e+002
6.194294e+002, 8.670037e+002
6.199115e+002, 8.660225e+002
6.203936e+002, 8.678416e+002
6.208757e+002, 8.710332e+002
6.213578e+002, 8.727043e+002
6.218400e+002, 8.695886e+002
6.223221e+002, 8.667829e+002
6.228042e+002, 8.670505e+002
6.232863e+002, 8.698607e+002
6.237684e+002, 8.713942e+002
6.242505e+002, 8.686367e+002
6.247327e+002, 8.674906e+002
6.252148e+002, 8.708700e+002
6.256969e+002, 8.794196e+002
6.261790e+002, 8.845428e+002
6.266611e+002, 8.854702e+002
6.271432e+002, 8.848281e+002
6.276254e+002, 8.846196e+002
6.281075e+002, 8.847582e+002
6.285896e+002, 8.840316e+002
6.290717e+002, 8.821588e+002
6.295538e+002, 8.804224e+002
6.300359e+002, 8.800887e+002
6.305181e+002, 8.810139e+002
6.310002e+002, 8.830285e+002
6.314823e+002, 8.868416e+002
6.319644e+002, 8.904795e+002
6.324465e+002, 8.923987e+002
6.329286e+002, 8.931823e+002
6.334108e+002, 8.939547e+002
6.338929e+002, 8.944155e+002
6.343750e+002, 8.956010e+002
6.348571e+002, 8.991577e+002
6.353392e+002, 9.043265e+002
6.358214e+002, 9.053024e+002
6.363035e+002, 8.981600e+002
6.367856e+002, 8.931168e+002
6.372677e+002, 8.951341e+002
6.377498e+002, 9.041832e+002
6.382319e+002, 9.116351e+002
6.387141e+002, 9.175714e+002
6.391962e+002, 9.216916e+002
6.396783e+002, 9.236206e+002
6.401604e+002, 9.235835e+002
6.406425e+002, 9.216959e+002
6.411246e+002, 9.176293e+002
6.416068e+002, 9.143281e+002
6.420889e+002, 9.150646e+002
6.425710e+002, 9.181195e+002
6.430531e+002, 9.211133e+002
6.435352e+002, 9.233732e+002
6.440173e+002, 9.255848e+002
6.444995e+002, 9.282349e+002
6.449816e+002, 9.310040e+002
6.454637e+002, 9.333869e+002
6.459458e+002, 9.349854e+002
6.464279e+002, 9.364891e+002
6.469100e+002, 9.380534e+002
6.473922e+002, 9.395612e+002
6.478743e+002, 9.404544e+002
6.483564e+002, 9.405299e+002
6.488385e+002, 9.405704e+002
6.493206e+002, 9.405361e+002
6.498027e+002, 9.407181e+002
6.502849e+002, 9.431317e+002
6.507670e+002, 9.477183e+002
6.512491e+002, 9.519719e+002
6.517312e+002, 9.540798e+002
6.522133e+002, 9.546263e+002
6.526954e+002, 9.539188e+002
6.531776e+002, 9.518489e+002
6.536597e+002, 9.507233e+002
6.541418e+002, 9.527449e+002
6.546239e+002, 9.558659e+002
6.551060e+002, 9.582069e+002
6.555881e+002, 9.587951e+002
6.560703e+002, 9.597096e+002
6.565524e+002, 9.606755e+002
6.570345e+002, 9.623605e+002
6.575166e+002, 9.659417e+002
6.579987e+002, 9.729095e+002
6.584808e+002, 9.775625e+002
6.589630e+002, 9.787113e+002
6.594451e+002, 9.774761e+002
6.599272e+002, 9.752844e+002
6.604093e+002, 9.722638e+002
6.608914e+002, 9.721793e+002
6.613735e+002, 9.788726e+002
6.618557e+002, 9.874520e+002
6.623378e+002, 9.894622e+002
6.628199e+002, 9.861050e+002
6.633020e+002, 9.825555e+002
6.637841e+002, 9.814637e+002
6.642662e+002, 9.815057e+002
6.647484e+002, 9.816222e+002
6.652305e+002, 9.817694e+002
6.657126e+002, 9.831838e+002
6.661947e+002, 9.872321e+002
6.666768e+002, 9.917617e+002
6.671589e+002, 9.956437e+002
6.676411e+002, 9.987281e+002
6.681232e+002, 1.001668e+003
6.686053e+002, 1.004639e+003
6.690874e+002, 1.007035e+003
6.695695e+002, 1.007926e+003
6.700516e+002, 1.007345e+003
6.705338e+002, 1.007601e+003
6.710159e+002, 1.009155e+003
6.714980e+002, 1.010690e+003
6.719801e+002, 1.009948e+003
6.724622e+002, 1.007954e+003
6.729443e+002, 1.007070e+003
6.734265e+002, 1.008236e+003
6.739086e+002, 1.010378e+003
6.743907e+002, 1.014053e+003
6.748728e+002, 1.018098e+003
6.753549e+002, 1.020244e+003
6.758370e+002, 1.018024e+003
6.763192e+002, 1.016017e+003
6.768013e+002, 1.015878e+003
6.772834e+002, 1.017001e+003
6.777655e+002, 1.016742e+003
6.782476e+002, 1.013593e+003
6.787297e+002, 1.012795e+003
6.792119e+002, 1.017393e+003
6.796940e+002, 1.026099e+003
6.801761e+002, 1.031022e+003
6.806582e+002, 1.032023e+003
6.811403e+002, 1.032053e+003
6.816224e+002, 1.032457e+003
6.821046e+002, 1.033435e+003
6.825867e+002, 1.035338e+003
6.830688e+002, 1.038175e+003
6.835509e+002, 1.041751e+003
6.840330e+002, 1.047615e+003
6.845151e+002, 1.053125e+003
6.849973e+002, 1.055625e+003
6.854794e+002, 1.053085e+003
6.859615e+002, 1.052534e+003
6.864436e+002, 1.056651e+003
6.869257e+002, 1.062240e+003
6.874078e+002, 1.067003e+003
6.878900e+002, 1.071288e+003
6.883721e+002, 1.073406e+003
6.888542e+002, 1.071999e+003
6.893363e+002, 1.070620e+003
6.898184e+002, 1.076221e+003
6.903005e+002, 1.087750e+003
6.907827e+002, 1.096044e+003
6.912648e+002, 1.097622e+003
6.917469e+002, 1.096861e+003
6.922290e+002, 1.098188e+003
6.927111e+002, 1.101536e+003
6.931932e+002, 1.106763e+003
6.936754e+002, 1.116137e+003
6.941575e+002, 1.125052e+003
6.946396e+002, 1.130304e+003
6.951217e+002, 1.133023e+003
6.956038e+002, 1.137650e+003
6.960859e+002, 1.146553e+003
6.965681e+002, 1.155370e+003
6.970502e+002, 1.163259e+003
6.975323e+002, 1.170186e+003
6.980144e+002, 1.175011e+003
6.984965e+002, 1.176890e+003
6.989786e+002, 1.180483e+003
6.994608e+002, 1.190159e+003
6.999429e+002, 1.203989e+003
7.004250e+002, 1.213614e+003
7.009071e+002, 1.219192e+003
7.013892e+002, 1.223757e+003
7.018713e+002, 1.229451e+003
7.023535e+002, 1.235445e+003
7.028356e+002, 1.240488e+003
7.033177e+002, 1.244192e+003
7.037998e+002, 1.249027e+003
7.042819e+002, 1.257504e+003
7.047640e+002, 1.266523e+003
7.052462e+002, 1.273394e+003
7.057283e+002, 1.275412e+003
7.062104e+002, 1.281305e+003
7.066925e+002, 1.294296e+003
7.071746e+002, 1.307038e+003
7.076567e+002, 1.310357e+003
7.081389e+002, 1.303819e+003
7.086210e+002, 1.297362e+003
7.091031e+002, 1.291915e+003
7.095852e+002, 1.288315e+003
7.100673e+002, 1.289184e+003
7.105494e+002, 1.292780e+003
7.110316e+002, 1.294817e+003
7.115137e+002, 1.293427e+003
7.119958e+002, 1.290764e+003
7.124779e+002, 1.288399e+003
7.129600e+002, 1.285747e+003
7.134421e+002, 1.281741e+003
7.139243e+002, 1.274095e+003
7.144064e+002, 1.267466e+003
7.148885e+002, 1.263392e+003
7.153706e+002, 1.261002e+003
7.158527e+002, 1.257787e+003
7.163348e+002, 1.253770e+003
7.168170e+002, 1.248899e+003
7.172991e+002, 1.243128e+003
7.177812e+002, 1.236515e+003
7.182633e+002, 1.228671e+003
7.187454e+002, 1.219752e+003
7.192275e+002, 1.212555e+003
7.197097e+002, 1.209921e+003
7.201918e+002, 1.208878e+003
7.206739e+002, 1.206607e+003
7.211560e+002, 1.202995e+003
7.216381e+002, 1.197889e+003
7.221202e+002, 1.187226e+003
7.226024e+002, 1.178457e+003
7.230845e+002, 1.177653e+003
7.235666e+002, 1.186780e+003
7.240487e+002, 1.188452e+003
7.245308e+002, 1.178435e+003
7.250129e+002, 1.167585e+003
7.254951e+002, 1.163204e+003
7.259772e+002, 1.165591e+003
7.264593e+002, 1.164628e+003
7.269414e+002, 1.159875e+003
7.274235e+002, 1.154786e+003
7.279056e+002, 1.152895e+003
7.283878e+002, 1.152865e+003
7.288699e+002, 1.151959e+003
7.293520e+002, 1.149569e+003
7.298341e+002, 1.147776e+003
7.303162e+002, 1.148405e+003
7.307983e+002, 1.150037e+003
7.312805e+002, 1.151361e+003
7.317626e+002, 1.152347e+003
7.322447e+002, 1.152578e+003
7.327268e+002, 1.151483e+003
7.332089e+002, 1.150071e+003
7.336910e+002, 1.149570e+003
7.341732e+002, 1.150250e+003
7.346553e+002, 1.150320e+003
7.351374e+002, 1.149372e+003
7.356195e+002, 1.148158e+003
7.361016e+002, 1.147446e+003
7.365837e+002, 1.147361e+003
7.370659e+002, 1.148700e+003
7.375480e+002, 1.152967e+003
7.380301e+002, 1.156298e+003
7.385122e+002, 1.153793e+003
7.389943e+002, 1.148313e+003
7.394764e+002, 1.144778e+003
7.399586e+002, 1.146028e+003
7.404407e+002, 1.147911e+003
7.409228e+002, 1.150326e+003
7.414049e+002, 1.152580e+003
7.418870e+002, 1.152755e+003
7.423691e+002, 1.149834e+003
7.428513e+002, 1.147917e+003
7.433334e+002, 1.147929e+003
7.438155e+002, 1.149794e+003
7.442976e+002, 1.154330e+003
7.447797e+002, 1.161154e+003
7.452618e+002, 1.166682e+003
7.457440e+002, 1.169305e+003
7.462261e+002, 1.169682e+003
7.467082e+002, 1.167060e+003
7.471903e+002, 1.162501e+003
7.476724e+002, 1.159873e+003
7.481545e+002, 1.161077e+003
7.486367e+002, 1.164235e+003
7.491188e+002, 1.169986e+003
7.496009e+002, 1.177870e+003
7.500830e+002, 1.181903e+003
7.505651e+002, 1.180425e+003
7.510472e+002, 1.178662e+003
7.515294e+002, 1.178959e+003
7.520115e+002, 1.180967e+003
7.524936e+002, 1.181641e+003
7.529757e+002, 1.181007e+003
7.534578e+002, 1.182117e+003
7.539399e+002, 1.189742e+003
7.544221e+002, 1.199026e+003
7.549042e+002, 1.202414e+003
7.553863e+002, 1.199958e+003
7.558684e+002, 1.198000e+003
7.563505e+002, 1.199040e+003
7.568326e+002, 1.202054e+003
7.573148e+002, 1.206913e+003
7.577969e+002, 1.214064e+003
7.582790e+002, 1.219948e+003
7.587611e+002, 1.223572e+003
7.592432e+002, 1.227553e+003
7.597253e+002, 1.234522e+003
7.602075e+002, 1.244537e+003
7.606896e+002, 1.249452e+003
7.611717e+002, 1.248740e+003
7.616538e+002, 1.248097e+003
7.621359e+002, 1.253028e+003
7.626180e+002, 1.261196e+003
7.631002e+002, 1.269035e+003
7.635823e+002, 1.276104e+003
7.640644e+002, 1.282878e+003
7.645465e+002, 1.290660e+003
7.650286e+002, 1.297717e+003
7.655107e+002, 1.302023e+003
7.659929e+002, 1.300417e+003
7.664750e+002, 1.303882e+003
7.669571e+002, 1.314530e+003
7.674392e+002, 1.327544e+003
7.679213e+002, 1.338617e+003
7.684034e+002, 1.347707e+003
7.688856e+002, 1.357617e+003
7.693677e+002, 1.368658e+003
7.698498e+002, 1.379385e+003
7.703319e+002, 1.387543e+003
7.708140e+002, 1.394548e+003
7.712961e+002, 1.402966e+003
7.717783e+002, 1.413435e+003
7.722604e+002, 1.424982e+003
7.727425e+002, 1.437976e+003
7.732246e+002, 1.451321e+003
7.737067e+002, 1.464036e+003
7.741888e+002, 1.475945e+003
7.746710e+002, 1.487289e+003
7.751531e+002, 1.497688e+003
7.756352e+002, 1.508003e+003
7.761173e+002, 1.519647e+003
7.765994e+002, 1.532582e+003
7.770815e+002, 1.544578e+003
7.775637e+002, 1.555369e+003
7.780458e+002, 1.565239e+003
7.785279e+002, 1.573426e+003
7.790100e+002, 1.581170e+003
7.794921e+002, 1.590956e+003
7.799742e+002, 1.604572e+003
7.804564e+002, 1.617940e+003
7.809385e+002, 1.629087e+003
7.814206e+002, 1.639052e+003
7.819027e+002, 1.649218e+003
7.823848e+002, 1.659157e+003
7.828669e+002, 1.670208e+003
7.833491e+002, 1.683312e+003
7.838312e+002, 1.696576e+003
7.843133e+002, 1.706594e+003
7.847954e+002, 1.713464e+003
7.852775e+002, 1.719567e+003
7.857596e+002, 1.724669e+003
7.862418e+002, 1.731023e+003
7.867239e+002, 1.743169e+003
7.872060e+002, 1.758178e+003
7.876881e+002, 1.770948e+003
7.881702e+002, 1.776981e+003
7.886523e+002, 1.783849e+003
7.891345e+002, 1.795513e+003
7.896166e+002, 1.809271e+003
7.900987e+002, 1.820290e+003
7.905808e+002, 1.824856e+003
7.910629e+002, 1.834998e+003
7.915450e+002, 1.853906e+003
7.920272e+002, 1.877082e+003
7.925093e+002, 1.896297e+003
7.929914e+002, 1.911886e+003
7.934735e+002, 1.923472e+003
7.939556e+002, 1.928596e+003
7.944377e+002, 1.934724e+003
7.949199e+002, 1.951693e+003
7.954020e+002, 1.975368e+003
7.958841e+002, 1.997703e+003
7.963662e+002, 2.014660e+003
7.968483e+002, 2.031569e+003
7.973304e+002, 2.048346e+003
7.978126e+002, 2.066187e+003
7.982947e+002, 2.087235e+003
7.987768e+002, 2.112771e+003
7.992589e+002, 2.137207e+003
7.997410e+002, 2.159074e+003
8.002231e+002, 2.180082e+003
8.007053e+002, 2.202512e+003
8.011874e+002, 2.226606e+003
8.016695e+002, 2.253979e+003
8.021516e+002, 2.285353e+003
8.026337e+002, 2.319697e+003
8.031158e+002, 2.356375e+003
8.035980e+002, 2.395191e+003
8.040801e+002, 2.436969e+003
8.045622e+002, 2.477385e+003
8.050443e+002, 2.526466e+003
8.055264e+002, 2.586456e+003
8.060085e+002, 2.655177e+003
8.064907e+002, 2.728455e+003
8.069728e+002, 2.806114e+003
8.074549e+002, 2.891015e+003
8.079370e+002, 2.983926e+003
8.084191e+002, 3.085210e+003
8.089012e+002, 3.194455e+003
8.093834e+002, 3.312485e+003
8.098655e+002, 3.441577e+003
8.103476e+002, 3.582346e+003
8.108297e+002, 3.735194e+003
8.113118e+002, 3.898356e+003
8.117939e+002, 4.072937e+003
8.122761e+002, 4.260073e+003
8.127582e+002, 4.461115e+003
8.132403e+002, 4.673067e+003
8.137224e+002, 4.895065e+003
8.142045e+002, 5.128474e+003
8.146866e+002, 5.377813e+003
8.151688e+002, 5.639115e+003
8.156509e+002, 5.912778e+003
8.161330e+002, 6.197421e+003
8.166151e+002, 6.496930e+003
8.170972e+002, 6.814292e+003
8.175793e+002, 7.149483e+003
8.180615e+002, 7.510095e+003
8.185436e+002, 7.903297e+003
8.190257e+002, 8.310992e+003
8.195078e+002, 8.724414e+003
8.199899e+002, 9.146584e+003
8.204720e+002, 9.580649e+003
8.209542e+002, 1.002780e+004
8.214363e+002, 1.047246e+004
8.219184e+002, 1.091413e+004
8.224005e+002, 1.135237e+004
8.228826e+002, 1.179342e+004
8.233647e+002, 1.223616e+004
8.238469e+002, 1.266070e+004
8.243290e+002, 1.307399e+004
8.248111e+002, 1.344710e+004
8.252932e+002, 1.375682e+004
8.257753e+002, 1.401786e+004
8.262574e+002, 1.424291e+004
8.267396e+002, 1.444487e+004
8.272217e+002, 1.460280e+004
8.277038e+002, 1.470974e+004
8.281859e+002, 1.478187e+004
8.286681e+002, 1.483418e+004
8.291502e+002, 1.486330e+004
8.296323e+002, 1.489773e+004
8.301144e+002, 1.494059e+004
8.305966e+002, 1.498974e+004
8.310787e+002, 1.503908e+004
8.315608e+002, 1.509385e+004
8.320429e+002, 1.516726e+004
8.325250e+002, 1.526524e+004
8.330071e+002, 1.536959e+004
8.334893e+002, 1.546814e+004
8.339714e+002, 1.557031e+004
8.344535e+002, 1.568930e+004
8.349356e+002, 1.583800e+004
8.354177e+002, 1.597487e+004
8.358998e+002, 1.609542e+004
8.363820e+002, 1.621114e+004
8.368641e+002, 1.634039e+004
8.373462e+002, 1.647914e+004
8.378283e+002, 1.660479e+004
8.383104e+002, 1.671512e+004
8.387925e+002, 1.680264e+004
8.392747e+002, 1.686303e+004
8.397568e+002, 1.689646e+004
8.402389e+002, 1.690583e+004
8.407210e+002, 1.689624e+004
8.412031e+002, 1.684364e+004
8.416852e+002, 1.674422e+004
8.421674e+002, 1.659816e+004
8.426495e+002, 1.640267e+004
8.431316e+002, 1.615560e+004
8.436137e+002, 1.586879e+004
8.440958e+002, 1.553805e+004
8.445779e+002, 1.517604e+004
8.450601e+002, 1.478427e+004
8.455422e+002, 1.437275e+004
8.460243e+002, 1.395001e+004
8.465064e+002, 1.351556e+004
8.469885e+002, 1.307977e+004
8.474706e+002, 1.262657e+004
8.479528e+002, 1.218669e+004
8.484349e+002, 1.178270e+004
8.489170e+002, 1.141621e+004
8.493991e+002, 1.106225e+004
8.498812e+002, 1.071497e+004
8.503633e+002, 1.038913e+004
8.508455e+002, 1.009283e+004
8.513276e+002, 9.824123e+003
8.518097e+002, 9.582098e+003
8.522918e+002, 9.364311e+003
8.527739e+002, 9.168479e+003
8.532560e+002, 8.991640e+003
8.537382e+002, 8.833994e+003
8.542203e+002, 8.693982e+003
8.547024e+002, 8.571391e+003
8.551845e+002, 8.465807e+003
8.556666e+002, 8.381099e+003
8.561487e+002, 8.310283e+003
8.566309e+002, 8.252013e+003
8.571130e+002, 8.206710e+003
8.575951e+002, 8.172196e+003
8.580772e+002, 8.148608e+003
8.585593e+002, 8.132277e+003
8.590414e+002, 8.120823e+003
8.595236e+002, 8.116009e+003
8.600057e+002, 8.122814e+003
8.604878e+002, 8.138888e+003
8.609699e+002, 8.156431e+003
8.614520e+002, 8.171703e+003
8.619341e+002, 8.188765e+003
8.624163e+002, 8.210826e+003
8.628984e+002, 8.235723e+003
8.633805e+002, 8.259174e+003
8.638626e+002, 8.283834e+003
8.643447e+002, 8.297123e+003
8.648268e+002, 8.295979e+003
8.653090e+002, 8.281572e+003
8.657911e+002, 8.256115e+003
8.662732e+002, 8.219083e+003
8.667553e+002, 8.170348e+003
8.672374e+002, 8.112122e+003
8.677195e+002, 8.037339e+003
8.682017e+002, 7.944499e+003
8.686838e+002, 7.832203e+003
8.691659e+002, 7.698185e+003
8.696480e+002, 7.535455e+003
8.701301e+002, 7.368683e+003
8.706122e+002, 7.202806e+003
8.710944e+002, 7.030986e+003
8.715765e+002, 6.841191e+003
8.720586e+002, 6.635962e+003
8.725407e+002, 6.429485e+003
8.730228e+002, 6.224640e+003
8.735049e+002, 6.018659e+003
8.739871e+002, 5.800780e+003
8.744692e+002, 5.582234e+003
8.749513e+002, 5.374833e+003
8.754334e+002, 5.182806e+003
8.759155e+002, 4.996320e+003
8.763976e+002, 4.810482e+003
8.768798e+002, 4.632712e+003
8.773619e+002, 4.466890e+003
8.778440e+002, 4.313813e+003
8.783261e+002, 4.170028e+003
8.788082e+002, 4.035089e+003
8.792903e+002, 3.907330e+003
8.797725e+002, 3.784788e+003
8.802546e+002, 3.666969e+003
8.807367e+002, 3.551971e+003
8.812188e+002, 3.439573e+003
8.817009e+002, 3.336347e+003
8.821830e+002, 3.245970e+003
8.826652e+002, 3.164281e+003
8.831473e+002, 3.091245e+003
8.836294e+002, 3.026273e+003
8.841115e+002, 2.960507e+003
8.845936e+002, 2.893210e+003
8.850757e+002, 2.828709e+003
8.855579e+002, 2.767905e+003
8.860400e+002, 2.711524e+003
8.865221e+002, 2.662786e+003
8.870042e+002, 2.620457e+003
8.874863e+002, 2.577610e+003
8.879684e+002, 2.530032e+003
8.884506e+002, 2.482248e+003
8.889327e+002, 2.436438e+003
8.894148e+002, 2.391662e+003
8.898969e+002, 2.344311e+003
8.903790e+002, 2.293395e+003
8.908611e+002, 2.244373e+003
8.913433e+002, 2.198060e+003
8.918254e+002, 2.154732e+003
8.923075e+002, 2.115346e+003
8.927896e+002, 2.078571e+003
8.932717e+002, 2.040949e+003
8.937538e+002, 1.998933e+003
8.942360e+002, 1.958622e+003
8.947181e+002, 1.924305e+003
8.952002e+002, 1.894147e+003
8.956823e+002, 1.865927e+003
8.961644e+002, 1.840002e+003
8.966465e+002, 1.815081e+003
8.971287e+002, 1.791097e+003
8.976108e+002, 1.768529e+003
8.980929e+002, 1.749339e+003
8.985750e+002, 1.732477e+003
8.990571e+002, 1.713321e+003
8.995392e+002, 1.690530e+003
9.000214e+002, 1.669494e+003
9.005035e+002, 1.653821e+003
9.009856e+002, 1.641674e+003
9.014677e+002, 1.631911e+003
9.019498e+002, 1.625958e+003
9.024319e+002, 1.616718e+003
9.029141e+002, 1.602837e+003
9.033962e+002, 1.587826e+003
9.038783e+002, 1.572953e+003
9.043604e+002, 1.558545e+003
9.048425e+002, 1.547231e+003
9.053246e+002, 1.538740e+003
9.058068e+002, 1.530813e+003
9.062889e+002, 1.523094e+003
9.067710e+002, 1.514264e+003
9.072531e+002, 1.502004e+003
9.077352e+002, 1.486990e+003
9.082173e+002, 1.474550e+003
9.086995e+002, 1.466658e+003
9.091816e+002, 1.459376e+003
9.096637e+002, 1.451924e+003
9.101458e+002, 1.444364e+003
9.106279e+002, 1.436481e+003
9.111100e+002, 1.428472e+003
9.115922e+002, 1.422295e+003
9.120743e+002, 1.419852e+003
9.125564e+002, 1.417695e+003
9.130385e+002, 1.411765e+003
9.135206e+002, 1.404013e+003
9.140027e+002, 1.397688e+003
9.144849e+002, 1.395323e+003
9.149670e+002, 1.391993e+003
9.154491e+002, 1.386894e+003
9.159312e+002, 1.381172e+003
9.164133e+002, 1.376409e+003
9.168954e+002, 1.372504e+003
9.173776e+002, 1.367512e+003
9.178597e+002, 1.360805e+003
9.183418e+002, 1.355665e+003
9.188239e+002, 1.356538e+003
9.193060e+002, 1.359888e+003
9.197881e+002, 1.362633e+003
9.202703e+002, 1.365042e+003
9.207524e+002, 1.362495e+003
9.212345e+002, 1.350051e+003
9.217166e+002, 1.338351e+003
9.221987e+002, 1.334089e+003
9.226808e+002, 1.336725e+003
9.231630e+002, 1.335035e+003
9.236451e+002, 1.329066e+003
9.241272e+002, 1.324335e+003
9.246093e+002, 1.325356e+003
9.250914e+002, 1.328796e+003
9.255735e+002, 1.332717e+003
9.260557e+002, 1.336419e+003
9.265378e+002, 1.337401e+003
9.270199e+002, 1.332297e+003
9.275020e+002, 1.327637e+003
9.279841e+002, 1.324744e+003
9.284662e+002, 1.323192e+003
9.289484e+002, 1.322042e+003
9.294305e+002, 1.321248e+003
9.299126e+002, 1.320354e+003
9.303947e+002, 1.319128e+003
9.308768e+002, 1.317899e+003
9.313589e+002, 1.317337e+003
9.318411e+002, 1.316891e+003
9.323232e+002, 1.315734e+003
9.328053e+002, 1.312671e+003
9.332874e+002, 1.310664e+003
9.337695e+002, 1.310899e+003
9.342516e+002, 1.311139e+003
9.347338e+002, 1.308914e+003
9.352159e+002, 1.304330e+003
9.356980e+002, 1.300693e+003
9.361801e+002, 1.298224e+003
9.366622e+002, 1.296350e+003
9.371443e+002, 1.294123e+003
9.376265e+002, 1.292557e+003
9.381086e+002, 1.293122e+003
9.385907e+002, 1.295962e+003
9.390728e+002, 1.298148e+003
9.395549e+002, 1.300418e+003
9.400370e+002, 1.299954e+003
9.405192e+002, 1.294043e+003
9.410013e+002, 1.284767e+003
9.414834e+002, 1.282438e+003
9.419655e+002, 1.286515e+003
9.424476e+002, 1.291587e+003
9.429297e+002, 1.296394e+003
9.434119e+002, 1.299628e+003
9.438940e+002, 1.299047e+003
9.443761e+002, 1.296246e+003
9.448582e+002, 1.294487e+003
9.453403e+002, 1.295277e+003
9.458224e+002, 1.295984e+003
9.463046e+002, 1.296414e+003
9.467867e+002, 1.296696e+003
9.472688e+002, 1.296214e+003
9.477509e+002, 1.295468e+003
9.482330e+002, 1.298143e+003
9.487151e+002, 1.305248e+003
9.491973e+002, 1.312286e+003
9.496794e+002, 1.315327e+003
9.501615e+002, 1.316747e+003
9.506436e+002, 1.318806e+003
9.511257e+002, 1.322120e+003
9.516078e+002, 1.323911e+003
9.520900e+002, 1.323317e+003
9.525721e+002, 1.322874e+003
9.530542e+002, 1.323869e+003
9.535363e+002, 1.326202e+003
9.540184e+002, 1.330397e+003
9.545005e+002, 1.335943e+003
9.549827e+002, 1.339818e+003
9.554648e+002, 1.338557e+003
9.559469e+002, 1.336845e+003
9.564290e+002, 1.337491e+003
9.569111e+002, 1.339974e+003
9.573932e+002, 1.342131e+003
9.578754e+002, 1.342499e+003
9.583575e+002, 1.346525e+003
9.588396e+002, 1.356237e+003
9.593217e+002, 1.367652e+003
9.598038e+002, 1.373698e+003
9.602859e+002, 1.376257e+003
9.607681e+002, 1.380608e+003
9.612502e+002, 1.388646e+003
9.617323e+002, 1.395710e+003
9.622144e+002, 1.397584e+003
9.626965e+002, 1.398550e+003
9.631786e+002, 1.402679e+003
9.636608e+002, 1.410993e+003
9.641429e+002, 1.416027e+003
9.646250e+002, 1.416945e+003
9.651071e+002, 1.418288e+003
9.655892e+002, 1.423976e+003
9.660714e+002, 1.431960e+003
9.665535e+002, 1.439436e+003
9.670356e+002, 1.445973e+003
9.675177e+002, 1.450124e+003
9.679998e+002, 1.448116e+003
9.684819e+002, 1.447020e+003
9.689641e+002, 1.449969e+003
9.694462e+002, 1.455549e+003
9.699283e+002, 1.460877e+003
9.704104e+002, 1.466062e+003
9.708925e+002, 1.469691e+003
9.713746e+002, 1.471313e+003
9.718568e+002, 1.471743e+003
9.723389e+002, 1.471803e+003
9.728210e+002, 1.471441e+003
9.733031e+002, 1.470244e+003
9.737852e+002, 1.466975e+003
9.742673e+002, 1.466243e+003
9.747495e+002, 1.470962e+003
9.752316e+002, 1.476183e+003
9.757137e+002, 1.479158e+003
9.761958e+002, 1.479894e+003
9.766779e+002, 1.476785e+003
9.771600e+002, 1.469826e+003
9.776422e+002, 1.462794e+003
9.781243e+002, 1.457942e+003
9.786064e+002, 1.454285e+003
9.790885e+002, 1.452752e+003
9.795706e+002, 1.452094e+003
9.800527e+002, 1.446275e+003
9.805349e+002, 1.428477e+003
9.810170e+002, 1.416303e+003
9.814991e+002, 1.415599e+003
9.819812e+002, 1.419139e+003
9.824633e+002, 1.411681e+003
9.829454e+002, 1.395658e+003
9.834276e+002, 1.380985e+003
9.839097e+002, 1.369940e+003
9.843918e+002, 1.360821e+003
9.848739e+002, 1.353097e+003
9.853560e+002, 1.346155e+003
9.858381e+002, 1.339822e+003
9.863203e+002, 1.334907e+003
9.868024e+002, 1.326418e+003
9.872845e+002, 1.313238e+003
9.877666e+002, 1.300282e+003
9.882487e+002, 1.290642e+003
9.887308e+002, 1.283877e+003
9.892130e+002, 1.279768e+003
9.896951e+002, 1.277752e+003
9.901772e+002, 1.274978e+003
9.906593e+002, 1.268774e+003
9.911414e+002, 1.263051e+003
9.916235e+002, 1.259753e+003
9.921057e+002, 1.257784e+003
9.925878e+002, 1.254939e+003
9.930699e+002, 1.251175e+003
9.935520e+002, 1.246609e+003
9.940341e+002, 1.241079e+003
9.945162e+002, 1.235315e+003
9.949984e+002, 1.230292e+003
9.954805e+002, 1.225492e+003
9.959626e+002, 1.219992e+003
9.964447e+002, 1.213123e+003
9.969268e+002, 1.207486e+003
9.974089e+002, 1.203282e+003
9.978911e+002, 1.200702e+003
9.983732e+002, 1.200974e+003
9.988553e+002, 1.203301e+003
9.993374e+002, 1.200336e+003
9.998195e+002, 1.192704e+003
1.000302e+003, 1.186562e+003
1.000784e+003, 1.187801e+003
1.001266e+003, 1.189506e+003
1.001748e+003, 1.185788e+003
1.002230e+003, 1.178922e+003
1.002712e+003, 1.174955e+003
1.003194e+003, 1.174244e+003
1.003676e+003, 1.176750e+003
1.004159e+003, 1.183770e+003
1.004641e+003, 1.190870e+003
1.005123e+003, 1.191929e+003
1.005605e+003, 1.188562e+003
1.006087e+003, 1.183833e+003
1.006569e+003, 1.177839e+003
1.007051e+003, 1.173887e+003
1.007533e+003, 1.175656e+003
1.008016e+003, 1.177874e+003
1.008498e+003, 1.177504e+003
1.008980e+003, 1.174673e+003
1.009462e+003, 1.171799e+003
1.009944e+003, 1.168895e+003
1.010426e+003, 1.165198e+003
1.010908e+003, 1.159099e+003
1.011390e+003, 1.153539e+003
1.011872e+003, 1.152958e+003
1.012355e+003, 1.155399e+003
1.012837e+003, 1.156885e+003
1.013319e+003, 1.155167e+003
1.013801e+003, 1.154156e+003
1.014283e+003, 1.154494e+003
1.014765e+003, 1.155154e+003
1.015247e+003, 1.154763e+003
1.015729e+003, 1.153619e+003
1.016211e+003, 1.153571e+003
1.016694e+003, 1.154760e+003
1.017176e+003, 1.155927e+003
1.017658e+003, 1.157145e+003
1.018140e+003, 1.157212e+003
1.018622e+003, 1.154363e+003
1.019104e+003, 1.149127e+003
1.019586e+003, 1.146581e+003
1.020068e+003, 1.147679e+003
1.020551e+003, 1.147105e+003
1.021033e+003, 1.142050e+003
1.021515e+003, 1.136514e+003
1.021997e+003, 1.138473e+003
1.022479e+003, 1.144489e+003
1.022961e+003, 1.147921e+003
1.023443e+003, 1.145820e+003
1.023925e+003, 1.143237e+003
1.024407e+003, 1.140377e+003
1.024890e+003, 1.138447e+003
1.025372e+003, 1.138662e+003
1.025854e+003, 1.141013e+003
1.026336e+003, 1.142967e+003
1.026818e+003, 1.144517e+003
1.027300e+003, 1.145507e+003
1.027782e+003, 1.145091e+003
1.028264e+003, 1.144753e+003
1.028746e+003, 1.146299e+003
1.029229e+003, 1.149020e+003
1.029711e+003, 1.149764e+003
1.030193e+003, 1.146307e+003
1.030675e+003, 1.146676e+003
1.031157e+003, 1.153675e+003
1.031639e+003, 1.161725e+003
1.032121e+003, 1.162225e+003
1.032603e+003, 1.157728e+003
1.033086e+003, 1.153948e+003
1.033568e+003, 1.151880e+003
1.034050e+003, 1.150171e+003
1.034532e+003, 1.147952e+003
1.035014e+003, 1.146278e+003
1.035496e+003, 1.146009e+003
1.035978e+003, 1.146923e+003
1.036460e+003, 1.146064e+003
1.036943e+003, 1.143493e+003
1.037425e+003, 1.142299e+003
1.037907e+003, 1.145226e+003
1.038389e+003, 1.148612e+003
1.038871e+003, 1.147466e+003
1.039353e+003, 1.144696e+003
1.039835e+003, 1.145596e+003
1.040317e+003, 1.155337e+003
1.040799e+003, 1.160373e+003
1.041281e+003, 1.159016e+003
1.041764e+003, 1.156159e+003
1.042246e+003, 1.157321e+003
1.042728e+003, 1.160623e+003
1.043210e+003, 1.160569e+003
1.043692e+003, 1.157138e+003
1.044174e+003, 1.154330e+003
1.044656e+003, 1.154950e+003
1.045138e+003, 1.155729e+003
1.045621e+003, 1.155270e+003
1.046103e+003, 1.153959e+003
1.046585e+003, 1.152393e+003
1.047067e+003, 1.150554e+003
1.047549e+003, 1.151128e+003
1.048031e+003, 1.155650e+003
1.048513e+003, 1.159687e+003
1.048995e+003, 1.157051e+003
1.049478e+003, 1.152318e+003
1.049960e+003, 1.151025e+003
1.050442e+003, 1.155559e+003
1.050924e+003, 1.157401e+003
1.051406e+003, 1.155379e+003
1.051888e+003, 1.153226e+003
1.052370e+003, 1.152655e+003
1.052852e+003, 1.153607e+003
1.053334e+003, 1.156743e+003
1.053817e+003, 1.161361e+003
1.054299e+003, 1.165162e+003
1.054781e+003, 1.165289e+003
1.055263e+003, 1.166694e+003
1.055745e+003, 1.172259e+003
1.056227e+003, 1.178776e+003
1.056709e+003, 1.182990e+003
1.057191e+003, 1.184891e+003
1.057673e+003, 1.183348e+003
1.058156e+003, 1.178026e+003
1.058638e+003, 1.174555e+003
1.059120e+003, 1.180347e+003
1.059602e+003, 1.187637e+003
1.060084e+003, 1.189427e+003
1.060566e+003, 1.185958e+003
1.061048e+003, 1.183816e+003
1.061530e+003, 1.182937e+003
1.062013e+003, 1.184626e+003
1.062495e+003, 1.190225e+003
1.062977e+003, 1.196574e+003
1.063459e+003, 1.197489e+003
1.063941e+003, 1.195665e+003
1.064423e+003, 1.196473e+003
1.064905e+003, 1.201675e+003
1.065387e+003, 1.207465e+003
1.065870e+003, 1.213689e+003
1.066352e+003, 1.219034e+003
1.066834e+003, 1.222894e+003
1.067316e+003, 1.225258e+003
1.067798e+003, 1.225808e+003
1.068280e+003, 1.224758e+003
1.068762e+003, 1.224105e+003
1.069244e+003, 1.225069e+003
1.069726e+003, 1.226554e+003
1.070208e+003, 1.228126e+003
1.070691e+003, 1.229635e+003
1.071173e+003, 1.230836e+003
1.071655e+003, 1.231758e+003
1.072137e+003, 1.232340e+003
1.072619e+003, 1.232594e+003
1.073101e+003, 1.232510e+003
1.073583e+003, 1.232939e+003
1.074065e+003, 1.232522e+003
1.074548e+003, 1.228523e+003
1.075030e+003, 1.221455e+003
1.075512e+003, 1.215855e+003
1.075994e+003, 1.215016e+003
1.076476e+003, 1.212234e+003
1.076958e+003, 1.205104e+003
1.077440e+003, 1.196749e+003
1.077922e+003, 1.193780e+003
1.078405e+003, 1.194488e+003
1.078887e+003, 1.192971e+003
1.079369e+003, 1.187547e+003
1.079851e+003, 1.183018e+003
1.080333e+003, 1.183477e+003
1.080815e+003, 1.184240e+003
1.081297e+003, 1.182213e+003
1.081779e+003, 1.177707e+003
1.082261e+003, 1.173467e+003
1.082744e+003, 1.169480e+003
1.083226e+003, 1.168270e+003
1.083708e+003, 1.173346e+003
1.084190e+003, 1.177938e+003
1.084672e+003, 1.173323e+003
1.085154e+003, 1.165082e+003
1.085636e+003, 1.161815e+003
1.086118e+003, 1.167434e+003
1.086601e+003, 1.170606e+003
1.087083e+003, 1.171020e+003
1.087565e+003, 1.170119e+003
1.088047e+003, 1.168768e+003
1.088529e+003, 1.167030e+003
1.089011e+003, 1.164696e+003
1.089493e+003, 1.162009e+003
1.089975e+003, 1.159843e+003
1.090458e+003, 1.158482e+003
1.090940e+003, 1.158012e+003
1.091422e+003, 1.159333e+003
1.091904e+003, 1.160406e+003
1.092386e+003, 1.156189e+003
1.092868e+003, 1.148775e+003
1.093350e+003, 1.149035e+003
1.093832e+003, 1.158570e+003
1.094314e+003, 1.166172e+003
1.094797e+003, 1.161357e+003
1.095279e+003, 1.155974e+003
1.095761e+003, 1.158116e+003
1.096243e+003, 1.165518e+003
1.096725e+003, 1.168337e+003
1.097207e+003, 1.166451e+003
1.097689e+003, 1.165303e+003
1.098171e+003, 1.166853e+003
1.098653e+003, 1.168676e+003
1.099136e+003, 1.167405e+003
1.099618e+003, 1.165597e+003
1.100100e+003, 1.166837e+003
1.100582e+003, 1.172971e+003
1.101064e+003, 1.174365e+003
1.101546e+003, 1.169688e+003
1.102028e+003, 1.165037e+003
1.102510e+003, 1.164228e+003
1.102993e+003, 1.165025e+003
1.103475e+003, 1.162610e+003
1.103957e+003, 1.158720e+003
1.104439e+003, 1.157314e+003
1.104921e+003, 1.163344e+003
1.105403e+003, 1.166628e+003
1.105885e+003, 1.165744e+003
1.106367e+003, 1.162924e+003
1.106849e+003, 1.159038e+003
1.107332e+003, 1.154988e+003
1.107814e+003, 1.155570e+003
1.108296e+003, 1.160237e+003
1.108778e+003, 1.163427e+003
1.109260e+003, 1.159062e+003
1.109742e+003, 1.156349e+003
1.110224e+003, 1.161277e+003
1.110706e+003, 1.168866e+003
1.111188e+003, 1.170237e+003
1.111671e+003, 1.165651e+003
1.112153e+003, 1.162536e+003
1.112635e+003, 1.161938e+003
1.113117e+003, 1.162271e+003
1.113599e+003, 1.162086e+003
1.114081e+003, 1.162438e+003
1.114563e+003, 1.164913e+003
1.115045e+003, 1.169059e+003
1.115528e+003, 1.170756e+003
1.116010e+003, 1.169532e+003
1.116492e+003, 1.168580e+003
1.116974e+003, 1.168600e+003
1.117456e+003, 1.169783e+003
1.117938e+003, 1.172534e+003
1.118420e+003, 1.176476e+003
1.118902e+003, 1.181897e+003
1.119385e+003, 1.190225e+003
1.119867e+003, 1.192752e+003
1.120349e+003, 1.187177e+003
1.120831e+003, 1.181194e+003
1.121313e+003, 1.178715e+003
1.121795e+003, 1.178456e+003
1.122277e+003, 1.177644e+003
1.122759e+003, 1.176786e+003
1.123241e+003, 1.177129e+003
1.123724e+003, 1.180506e+003
1.124206e+003, 1.182899e+003
1.124688e+003, 1.183925e+003
1.125170e+003, 1.183775e+003
1.125652e+003, 1.181791e+003
1.126134e+003, 1.178694e+003
1.126616e+003, 1.179098e+003
1.127098e+003, 1.182305e+003
1.127580e+003, 1.183685e+003
1.128063e+003, 1.178349e+003
1.128545e+003, 1.173541e+003
1.129027e+003, 1.173266e+003
1.129509e+003, 1.174521e+003
1.129991e+003, 1.172881e+003
1.130473e+003, 1.168468e+003
1.130955e+003, 1.167034e+003
1.131437e+003, 1.169109e+003
1.131920e+003, 1.171484e+003
1.132402e+003, 1.171115e+003
1.132884e+003, 1.170774e+003
1.133366e+003, 1.173043e+003
1.133848e+003, 1.176950e+003
1.134330e+003, 1.178644e+003
1.134812e+003, 1.177698e+003
1.135294e+003, 1.178366e+003
1.135776e+003, 1.181924e+003
1.136259e+003, 1.185258e+003
1.136741e+003, 1.184877e+003
1.137223e+003, 1.182800e+003
1.137705e+003, 1.180385e+003
1.138187e+003, 1.177816e+003
1.138669e+003, 1.178533e+003
1.139151e+003, 1.183708e+003
1.139633e+003, 1.188020e+003
1.140115e+003, 1.189280e+003
1.140598e+003, 1.189524e+003
1.141080e+003, 1.192963e+003
1.141562e+003, 1.197000e+003
1.142044e+003, 1.197260e+003
1.142526e+003, 1.191457e+003
1.143008e+003, 1.186426e+003
1.143490e+003, 1.182543e+003
1.143972e+003, 1.179849e+003
1.144455e+003, 1.178111e+003
1.144937e+003, 1.177774e+003
1.145419e+003, 1.180722e+003
1.145901e+003, 1.185888e+003
1.146383e+003, 1.190597e+003
1.146865e+003, 1.193462e+003
1.147347e+003, 1.196534e+003
1.147829e+003, 1.201213e+003
1.148312e+003, 1.204771e+003
1.148794e+003, 1.204495e+003
1.149276e+003, 1.201183e+003
1.149758e+003, 1.198005e+003
1.150240e+003, 1.195241e+003
1.150722e+003, 1.194214e+003
1.151204e+003, 1.197719e+003
1.151686e+003, 1.200380e+003
1.152168e+003, 1.199607e+003
1.152651e+003, 1.197876e+003
1.153133e+003, 1.198534e+003
1.153615e+003, 1.201181e+003
1.154097e+003, 1.201195e+003
1.154579e+003, 1.198381e+003
1.155061e+003, 1.195602e+003
1.155543e+003, 1.193513e+003
1.156025e+003, 1.193191e+003
1.156507e+003, 1.196669e+003
1.156990e+003, 1.201824e+003
1.157472e+003, 1.204462e+003
1.157954e+003, 1.204564e+003
1.158436e+003, 1.206271e+003
1.158918e+003, 1.210341e+003
1.159400e+003, 1.213779e+003
1.159882e+003, 1.214368e+003
1.160364e+003, 1.213198e+003
1.160847e+003, 1.209991e+003
1.161329e+003, 1.205566e+003
1.161811e+003, 1.203449e+003
1.162293e+003, 1.203666e+003
1.162775e+003, 1.206851e+003
1.163257e+003, 1.214255e+003
1.163739e+003, 1.220326e+003
1.164221e+003, 1.218547e+003
1.164703e+003, 1.213317e+003
1.165186e+003, 1.207641e+003
1.165668e+003, 1.201834e+003
1.166150e+003, 1.203511e+003
1.166632e+003, 1.214494e+003
1.167114e+003, 1.222011e+003
1.167596e+003, 1.220070e+003
1.168078e+003, 1.215417e+003
1.168560e+003, 1.217307e+003
1.169042e+003, 1.221599e+003
1.169525e+003, 1.222271e+003
1.170007e+003, 1.216771e+003
1.170489e+003, 1.214200e+003
1.170971e+003, 1.215112e+003
1.171453e+003, 1.217001e+003
1.171935e+003, 1.219448e+003
1.172417e+003, 1.221082e+003
1.172899e+003, 1.217535e+003
1.173382e+003, 1.212188e+003
1.173864e+003, 1.211464e+003
1.174346e+003, 1.220619e+003
1.174828e+003, 1.227249e+003
1.175310e+003, 1.231307e+003
1.175792e+003, 1.232572e+003
1.176274e+003, 1.228402e+003
1.176756e+003, 1.222698e+003
1.177239e+003, 1.223664e+003
1.177721e+003, 1.229295e+003
1.178203e+003, 1.234377e+003
1.178685e+003, 1.237359e+003
1.179167e+003, 1.239624e+003
1.179649e+003, 1.241849e+003
1.180131e+003, 1.242315e+003
1.180613e+003, 1.237578e+003
1.181095e+003, 1.230651e+003
1.181578e+003, 1.229282e+003
1.182060e+003, 1.232316e+003
1.182542e+003, 1.233914e+003
1.183024e+003, 1.229089e+003
1.183506e+003, 1.226953e+003
1.183988e+003, 1.229598e+003
1.184470e+003, 1.233750e+003
1.184952e+003, 1.235155e+003
1.185434e+003, 1.235142e+003
1.185917e+003, 1.238070e+003
1.186399e+003, 1.243623e+003
1.186881e+003, 1.246836e+003
1.187363e+003, 1.242457e+003
1.187845e+003, 1.239785e+003
1.188327e+003, 1.241370e+003
1.188809e+003, 1.244734e+003
1.189291e+003, 1.246689e+003
1.189774e+003, 1.247266e+003
1.190256e+003, 1.245679e+003
1.190738e+003, 1.241924e+003
1.191220e+003, 1.240562e+003
1.191702e+003, 1.247174e+003
1.192184e+003, 1.251852e+003
1.192666e+003, 1.250822e+003
1.193148e+003, 1.247019e+003
1.193630e+003, 1.246711e+003
1.194113e+003, 1.248664e+003
1.194595e+003, 1.248098e+003
1.195077e+003, 1.243912e+003
1.195559e+003, 1.241273e+003
1.196041e+003, 1.242982e+003
1.196523e+003, 1.246695e+003
1.197005e+003, 1.252970e+003
1.197487e+003, 1.259404e+003
1.197969e+003, 1.257632e+003
1.198452e+003, 1.250183e+003
1.198934e+003, 1.247021e+003
1.199416e+003, 1.251579e+003
1.199898e+003, 1.254681e+003
1.200380e+003, 1.249255e+003
1.200862e+003, 1.244515e+003
1.201344e+003, 1.245401e+003
1.201826e+003, 1.249993e+003
1.202309e+003, 1.251124e+003
1.202791e+003, 1.249723e+003
1.203273e+003, 1.249695e+003
1.203755e+003, 1.253007e+003
1.204237e+003, 1.255302e+003
1.204719e+003, 1.253988e+003
1.205201e+003, 1.251615e+003
1.205683e+003, 1.249111e+003
1.206166e+003, 1.246849e+003
1.206648e+003, 1.246772e+003
1.207130e+003, 1.248405e+003
1.207612e+003, 1.249649e+003
1.208094e+003, 1.249423e+003
1.208576e+003, 1.249384e+003
1.209058e+003, 1.250333e+003
1.209540e+003, 1.251615e+003
1.210022e+003, 1.252979e+003
1.210505e+003, 1.254326e+003
1.210987e+003, 1.254835e+003
1.211469e+003, 1.254685e+003
1.211951e+003, 1.254714e+003
1.212433e+003, 1.255208e+003
1.212915e+003, 1.256053e+003
1.213397e+003, 1.256982e+003
1.213879e+003, 1.258482e+003
1.214361e+003, 1.261862e+003
1.214844e+003, 1.266391e+003
1.215326e+003, 1.265566e+003
1.215808e+003, 1.260496e+003
1.216290e+003, 1.256814e+003
1.216772e+003, 1.257838e+003
1.217254e+003, 1.259973e+003
1.217736e+003, 1.262830e+003
1.218218e+003, 1.265601e+003
1.218701e+003, 1.267653e+003
1.219183e+003, 1.269012e+003
1.219665e+003, 1.269615e+003
1.220147e+003, 1.269667e+003
1.220629e+003, 1.270275e+003
1.221111e+003, 1.271985e+003
1.221593e+003, 1.274503e+003
1.222075e+003, 1.279168e+003
1.222557e+003, 1.282953e+003
1.223040e+003, 1.281989e+003
1.223522e+003, 1.277375e+003
1.224004e+003, 1.273970e+003
1.224486e+003, 1.272005e+003
1.224968e+003, 1.271835e+003
1.225450e+003, 1.277316e+003
1.225932e+003, 1.279335e+003
1.226414e+003, 1.273992e+003
1.226896e+003, 1.267091e+003
1.227379e+003, 1.264752e+003
1.227861e+003, 1.266511e+003
1.228343e+003, 1.273007e+003
1.228825e+003, 1.282940e+003
1.229307e+003, 1.288122e+003
1.229789e+003, 1.279433e+003
1.230271e+003, 1.272873e+003
1.230753e+003, 1.272383e+003
1.231236e+003, 1.274708e+003
1.231718e+003, 1.276628e+003
1.232200e+003, 1.277837e+003
1.232682e+003, 1.276752e+003
1.233164e+003, 1.273652e+003
1.233646e+003, 1.271471e+003
1.234128e+003, 1.273100e+003
1.234610e+003, 1.273138e+003
1.235093e+003, 1.269396e+003
1.235575e+003, 1.265845e+003
1.236057e+003, 1.268851e+003
1.236539e+003, 1.275788e+003
1.237021e+003, 1.281791e+003
1.237503e+003, 1.286154e+003
1.237985e+003, 1.287191e+003
1.238467e+003, 1.279943e+003
1.238949e+003, 1.276221e+003
1.239432e+003, 1.278966e+003
1.239914e+003, 1.283720e+003
1.240396e+003, 1.284137e+003
1.240878e+003, 1.282252e+003
1.241360e+003, 1.281571e+003
1.241842e+003, 1.282382e+003
1.242324e+003, 1.283883e+003
1.242806e+003, 1.286031e+003
1.243288e+003, 1.288597e+003
1.243771e+003, 1.291690e+003
1.244253e+003, 1.294833e+003
1.244735e+003, 1.299265e+003
1.245217e+003, 1.302382e+003
1.245699e+003, 1.298216e+003
1.246181e+003, 1.286965e+003
1.246663e+003, 1.281720e+003
1.247145e+003, 1.285128e+003
1.247628e+003, 1.289937e+003
1.248110e+003, 1.295173e+003
1.248592e+003, 1.299448e+003
1.249074e+003, 1.301425e+003
1.249556e+003, 1.301093e+003
1.250038e+003, 1.296927e+003
1.250520e+003, 1.289384e+003
1.251002e+003, 1.286615e+003
1.251484e+003, 1.289713e+003
1.251967e+003, 1.294050e+003
1.252449e+003, 1.299130e+003
1.252931e+003, 1.302928e+003
1.253413e+003, 1.302876e+003
1.253895e+003, 1.300745e+003
1.254377e+003, 1.297208e+003
1.254859e+003, 1.292842e+003
1.255341e+003, 1.292277e+003
1.255823e+003, 1.296032e+003
1.256306e+003, 1.299225e+003
1.256788e+003, 1.300845e+003
1.257270e+003, 1.300873e+003
1.257752e+003, 1.297074e+003
1.258234e+003, 1.293456e+003
1.258716e+003, 1.294255e+003
1.259198e+003, 1.298521e+003
1.259680e+003, 1.301534e+003
1.260163e+003, 1.303302e+003
1.260645e+003, 1.304970e+003
1.261127e+003, 1.306903e+003
1.261609e+003, 1.308302e+003
1.262091e+003, 1.307838e+003
1.262573e+003, 1.307355e+003
1.263055e+003, 1.308620e+003
1.263537e+003, 1.310774e+003
1.264020e+003, 1.310235e+003
1.264502e+003, 1.307418e+003
1.264984e+003, 1.305475e+003
1.265466e+003, 1.305209e+003
1.265948e+003, 1.305298e+003
1.266430e+003, 1.304250e+003
1.266912e+003, 1.304303e+003
1.267394e+003, 1.307221e+003
1.267876e+003, 1.311410e+003
1.268359e+003, 1.312495e+003
1.268841e+003, 1.311090e+003
1.269323e+003, 1.309057e+003
1.269805e+003, 1.306569e+003
1.270287e+003, 1.305453e+003
1.270769e+003, 1.308918e+003
1.271251e+003, 1.310569e+003
1.271733e+003, 1.307021e+003
1.272215e+003, 1.301982e+003
1.272698e+003, 1.304973e+003
1.273180e+003, 1.312481e+003
1.273662e+003, 1.316301e+003
1.274144e+003, 1.314608e+003
1.274626e+003, 1.313102e+003
1.275108e+003, 1.312674e+003
1.275590e+003, 1.313202e+003
1.276072e+003, 1.315105e+003
1.276555e+003, 1.317045e+003
1.277037e+003, 1.315999e+003
1.277519e+003, 1.313847e+003
1.278001e+003, 1.313944e+003
1.278483e+003, 1.317043e+003
1.278965e+003, 1.317516e+003
1.279447e+003, 1.313852e+003
1.279929e+003, 1.312473e+003
1.280411e+003, 1.316243e+003
1.280894e+003, 1.320330e+003
1.281376e+003, 1.316918e+003
1.281858e+003, 1.311750e+003
1.282340e+003, 1.312169e+003
1.282822e+003, 1.318464e+003
1.283304e+003, 1.321489e+003
1.283786e+003, 1.320900e+003
1.284268e+003, 1.320741e+003
1.284750e+003, 1.322100e+003
1.285233e+003, 1.324312e+003
1.285715e+003, 1.328576e+003
1.286197e+003, 1.331838e+003
1.286679e+003, 1.330541e+003
1.287161e+003, 1.326071e+003
1.287643e+003, 1.324146e+003
1.288125e+003, 1.324671e+003
1.288607e+003, 1.326889e+003
1.289090e+003, 1.331132e+003
1.289572e+003, 1.333578e+003
1.290054e+003, 1.328604e+003
1.290536e+003, 1.324897e+003
1.291018e+003, 1.327892e+003
1.291500e+003, 1.334594e+003
1.291982e+003, 1.336478e+003
1.292464e+003, 1.334761e+003
1.292947e+003, 1.333863e+003
1.293429e+003, 1.334671e+003
1.293911e+003, 1.335816e+003
1.294393e+003, 1.336720e+003
1.294875e+003, 1.337993e+003
1.295357e+003, 1.340186e+003
1.295839e+003, 1.342117e+003
1.296321e+003, 1.340813e+003
1.296803e+003, 1.338186e+003
1.297286e+003, 1.337950e+003
1.297768e+003, 1.340719e+003
1.298250e+003, 1.343391e+003
1.298732e+003, 1.345845e+003
1.299214e+003, 1.347333e+003
1.299696e+003, 1.347656e+003
1.300178e+003, 1.347217e+003
1.300660e+003, 1.346854e+003
##END=



