##NAMES=Wendwilsonite
##RRUFFID=R180009
##IDEAL CHEMISTRY=Ca_2_Mg(As^5+^O_4_)_2_&#183;2H_2_O
##LOCALITY=Bou Azzer, Morrocco
##OWNER=RRUFF
##SOURCE=Wendell Wilson
##DESCRIPTION=Red vitreous crystals. Photo from Wendell Wilson
##STATUS=The identification of this mineral is confirmed by single-crystal X-ray diffraction and chemical analysis.
##URL=rruff.info/R180009
##MEASURED CHEMISTRY=Ca_1.98_(Mg_0.53_Zn_0.27_Co_0.18_Ni_0.02_)_Σ=1.00_(AsO_4_)_2_·2H_2_O
8.813672e+001, 1.208339e+003
8.861884e+001, 1.298836e+003
8.910095e+001, 1.337956e+003
8.958307e+001, 1.298510e+003
9.006519e+001, 1.218880e+003
9.054730e+001, 1.134372e+003
9.102942e+001, 1.045733e+003
9.151154e+001, 9.600524e+002
9.199365e+001, 8.808257e+002
9.247577e+001, 8.087974e+002
9.295789e+001, 7.450157e+002
9.344000e+001, 6.889930e+002
9.392212e+001, 6.415783e+002
9.440424e+001, 6.050848e+002
9.488635e+001, 5.812678e+002
9.536847e+001, 5.656505e+002
9.585059e+001, 5.527789e+002
9.633270e+001, 5.425558e+002
9.681482e+001, 5.365331e+002
9.729694e+001, 5.356034e+002
9.777905e+001, 5.396118e+002
9.826117e+001, 5.474865e+002
9.874329e+001, 5.585651e+002
9.922540e+001, 5.737321e+002
9.970752e+001, 5.949923e+002
1.001896e+002, 6.215461e+002
1.006718e+002, 6.556962e+002
1.011539e+002, 6.964962e+002
1.016360e+002, 7.416048e+002
1.021181e+002, 8.037323e+002
1.026002e+002, 8.849996e+002
1.030823e+002, 9.840280e+002
1.035645e+002, 1.099417e+003
1.040466e+002, 1.258727e+003
1.045287e+002, 1.399975e+003
1.050108e+002, 1.473934e+003
1.054929e+002, 1.470547e+003
1.059750e+002, 1.420163e+003
1.064572e+002, 1.314407e+003
1.069393e+002, 1.145083e+003
1.074214e+002, 1.001563e+003
1.079035e+002, 8.865938e+002
1.083856e+002, 7.944774e+002
1.088677e+002, 7.207445e+002
1.093499e+002, 6.712266e+002
1.098320e+002, 6.330284e+002
1.103141e+002, 6.045077e+002
1.107962e+002, 5.866344e+002
1.112783e+002, 5.735366e+002
1.117604e+002, 5.659047e+002
1.122426e+002, 5.623419e+002
1.127247e+002, 5.609075e+002
1.132068e+002, 5.620853e+002
1.136889e+002, 5.646646e+002
1.141710e+002, 5.682070e+002
1.146531e+002, 5.727684e+002
1.151353e+002, 5.780295e+002
1.156174e+002, 5.846032e+002
1.160995e+002, 5.919274e+002
1.165816e+002, 5.986576e+002
1.170637e+002, 6.033865e+002
1.175458e+002, 6.078273e+002
1.180280e+002, 6.131910e+002
1.185101e+002, 6.199165e+002
1.189922e+002, 6.274071e+002
1.194743e+002, 6.344883e+002
1.199564e+002, 6.416872e+002
1.204385e+002, 6.512379e+002
1.209207e+002, 6.626946e+002
1.214028e+002, 6.777849e+002
1.218849e+002, 6.981478e+002
1.223670e+002, 7.205529e+002
1.228491e+002, 7.519836e+002
1.233312e+002, 8.005850e+002
1.238134e+002, 8.661454e+002
1.242955e+002, 9.394852e+002
1.247776e+002, 1.042473e+003
1.252597e+002, 1.148089e+003
1.257418e+002, 1.202402e+003
1.262239e+002, 1.151186e+003
1.267061e+002, 1.042151e+003
1.271882e+002, 9.482299e+002
1.276703e+002, 8.687261e+002
1.281524e+002, 8.053022e+002
1.286345e+002, 7.637882e+002
1.291166e+002, 7.418468e+002
1.295988e+002, 7.283064e+002
1.300809e+002, 7.201371e+002
1.305630e+002, 7.166844e+002
1.310451e+002, 7.161948e+002
1.315272e+002, 7.191626e+002
1.320093e+002, 7.236167e+002
1.324915e+002, 7.267390e+002
1.329736e+002, 7.285254e+002
1.334557e+002, 7.303134e+002
1.339378e+002, 7.326354e+002
1.344199e+002, 7.354949e+002
1.349020e+002, 7.389461e+002
1.353842e+002, 7.429738e+002
1.358663e+002, 7.475799e+002
1.363484e+002, 7.528365e+002
1.368305e+002, 7.586285e+002
1.373126e+002, 7.655336e+002
1.377947e+002, 7.736281e+002
1.382769e+002, 7.828188e+002
1.387590e+002, 7.940750e+002
1.392411e+002, 8.075198e+002
1.397232e+002, 8.231393e+002
1.402053e+002, 8.404274e+002
1.406874e+002, 8.606618e+002
1.411696e+002, 8.804449e+002
1.416517e+002, 8.986408e+002
1.421338e+002, 9.187456e+002
1.426159e+002, 9.278104e+002
1.430980e+002, 9.216834e+002
1.435801e+002, 9.017718e+002
1.440623e+002, 8.833872e+002
1.445444e+002, 8.666653e+002
1.450265e+002, 8.514337e+002
1.455086e+002, 8.376122e+002
1.459907e+002, 8.237165e+002
1.464728e+002, 8.135123e+002
1.469550e+002, 8.083840e+002
1.474371e+002, 8.087079e+002
1.479192e+002, 8.085172e+002
1.484013e+002, 8.074722e+002
1.488834e+002, 8.061102e+002
1.493655e+002, 8.048872e+002
1.498477e+002, 8.027808e+002
1.503298e+002, 8.018904e+002
1.508119e+002, 8.029814e+002
1.512940e+002, 8.064869e+002
1.517761e+002, 8.093990e+002
1.522583e+002, 8.112302e+002
1.527404e+002, 8.125284e+002
1.532225e+002, 8.138842e+002
1.537046e+002, 8.149883e+002
1.541867e+002, 8.164850e+002
1.546688e+002, 8.185234e+002
1.551510e+002, 8.211442e+002
1.556331e+002, 8.243216e+002
1.561152e+002, 8.281531e+002
1.565973e+002, 8.325162e+002
1.570794e+002, 8.372065e+002
1.575615e+002, 8.426105e+002
1.580437e+002, 8.480699e+002
1.585258e+002, 8.532207e+002
1.590079e+002, 8.577635e+002
1.594900e+002, 8.628278e+002
1.599721e+002, 8.680936e+002
1.604542e+002, 8.741420e+002
1.609364e+002, 8.819924e+002
1.614185e+002, 8.956682e+002
1.619006e+002, 9.087017e+002
1.623827e+002, 9.174634e+002
1.628648e+002, 9.208187e+002
1.633469e+002, 9.211395e+002
1.638291e+002, 9.185526e+002
1.643112e+002, 9.136342e+002
1.647933e+002, 9.076906e+002
1.652754e+002, 8.999167e+002
1.657575e+002, 8.921273e+002
1.662396e+002, 8.856979e+002
1.667218e+002, 8.810809e+002
1.672039e+002, 8.775422e+002
1.676860e+002, 8.742535e+002
1.681681e+002, 8.716057e+002
1.686502e+002, 8.706998e+002
1.691323e+002, 8.722910e+002
1.696145e+002, 8.758921e+002
1.700966e+002, 8.812344e+002
1.705787e+002, 8.890787e+002
1.710608e+002, 8.973953e+002
1.715429e+002, 9.042134e+002
1.720250e+002, 9.099364e+002
1.725072e+002, 9.160912e+002
1.729893e+002, 9.236063e+002
1.734714e+002, 9.322528e+002
1.739535e+002, 9.416848e+002
1.744356e+002, 9.516539e+002
1.749177e+002, 9.625426e+002
1.753999e+002, 9.750724e+002
1.758820e+002, 9.892651e+002
1.763641e+002, 1.004144e+003
1.768462e+002, 1.019136e+003
1.773283e+002, 1.034563e+003
1.778104e+002, 1.051045e+003
1.782926e+002, 1.068246e+003
1.787747e+002, 1.086835e+003
1.792568e+002, 1.107877e+003
1.797389e+002, 1.131167e+003
1.802210e+002, 1.156319e+003
1.807031e+002, 1.182991e+003
1.811853e+002, 1.210940e+003
1.816674e+002, 1.239184e+003
1.821495e+002, 1.268103e+003
1.826316e+002, 1.296553e+003
1.831137e+002, 1.322052e+003
1.835958e+002, 1.344823e+003
1.840780e+002, 1.364257e+003
1.845601e+002, 1.376924e+003
1.850422e+002, 1.384774e+003
1.855243e+002, 1.397234e+003
1.860064e+002, 1.417317e+003
1.864885e+002, 1.443963e+003
1.869707e+002, 1.474072e+003
1.874528e+002, 1.507924e+003
1.879349e+002, 1.545197e+003
1.884170e+002, 1.586357e+003
1.888991e+002, 1.631161e+003
1.893812e+002, 1.677838e+003
1.898634e+002, 1.730114e+003
1.903455e+002, 1.783945e+003
1.908276e+002, 1.826046e+003
1.913097e+002, 1.857055e+003
1.917918e+002, 1.874999e+003
1.922739e+002, 1.876480e+003
1.927561e+002, 1.861535e+003
1.932382e+002, 1.836614e+003
1.937203e+002, 1.801258e+003
1.942024e+002, 1.757165e+003
1.946845e+002, 1.711628e+003
1.951666e+002, 1.664013e+003
1.956488e+002, 1.617910e+003
1.961309e+002, 1.576573e+003
1.966130e+002, 1.539351e+003
1.970951e+002, 1.509611e+003
1.975772e+002, 1.488518e+003
1.980593e+002, 1.475821e+003
1.985415e+002, 1.469207e+003
1.990236e+002, 1.469149e+003
1.995057e+002, 1.473965e+003
1.999878e+002, 1.482834e+003
2.004699e+002, 1.496450e+003
2.009520e+002, 1.509386e+003
2.014342e+002, 1.520030e+003
2.019163e+002, 1.528493e+003
2.023984e+002, 1.535538e+003
2.028805e+002, 1.542042e+003
2.033626e+002, 1.545533e+003
2.038447e+002, 1.542803e+003
2.043269e+002, 1.533665e+003
2.048090e+002, 1.519063e+003
2.052911e+002, 1.498110e+003
2.057732e+002, 1.470526e+003
2.062553e+002, 1.444029e+003
2.067374e+002, 1.418446e+003
2.072196e+002, 1.394096e+003
2.077017e+002, 1.371666e+003
2.081838e+002, 1.351520e+003
2.086659e+002, 1.331763e+003
2.091480e+002, 1.311999e+003
2.096301e+002, 1.292017e+003
2.101123e+002, 1.271796e+003
2.105944e+002, 1.250022e+003
2.110765e+002, 1.229506e+003
2.115586e+002, 1.214695e+003
2.120407e+002, 1.207129e+003
2.125228e+002, 1.200964e+003
2.130050e+002, 1.195167e+003
2.134871e+002, 1.190108e+003
2.139692e+002, 1.182165e+003
2.144513e+002, 1.171320e+003
2.149334e+002, 1.157600e+003
2.154155e+002, 1.140453e+003
2.158977e+002, 1.118810e+003
2.163798e+002, 1.096182e+003
2.168619e+002, 1.072774e+003
2.173440e+002, 1.047966e+003
2.178261e+002, 1.028170e+003
2.183082e+002, 1.014101e+003
2.187904e+002, 1.004567e+003
2.192725e+002, 9.984066e+002
2.197546e+002, 9.966893e+002
2.202367e+002, 9.961136e+002
2.207188e+002, 9.953773e+002
2.212009e+002, 9.939867e+002
2.216831e+002, 9.959391e+002
2.221652e+002, 1.001488e+003
2.226473e+002, 1.010143e+003
2.231294e+002, 1.021290e+003
2.236115e+002, 1.035705e+003
2.240936e+002, 1.051328e+003
2.245758e+002, 1.068463e+003
2.250579e+002, 1.087638e+003
2.255400e+002, 1.104243e+003
2.260221e+002, 1.119213e+003
2.265042e+002, 1.130822e+003
2.269863e+002, 1.136462e+003
2.274685e+002, 1.135067e+003
2.279506e+002, 1.129587e+003
2.284327e+002, 1.119459e+003
2.289148e+002, 1.103442e+003
2.293969e+002, 1.091399e+003
2.298790e+002, 1.083990e+003
2.303612e+002, 1.079949e+003
2.308433e+002, 1.077815e+003
2.313254e+002, 1.077608e+003
2.318075e+002, 1.079196e+003
2.322896e+002, 1.082508e+003
2.327717e+002, 1.087481e+003
2.332539e+002, 1.094524e+003
2.337360e+002, 1.103927e+003
2.342181e+002, 1.114950e+003
2.347002e+002, 1.126877e+003
2.351823e+002, 1.139494e+003
2.356644e+002, 1.153392e+003
2.361466e+002, 1.169448e+003
2.366287e+002, 1.188011e+003
2.371108e+002, 1.204029e+003
2.375929e+002, 1.216666e+003
2.380750e+002, 1.227275e+003
2.385571e+002, 1.237204e+003
2.390393e+002, 1.246824e+003
2.395214e+002, 1.255137e+003
2.400035e+002, 1.261756e+003
2.404856e+002, 1.266672e+003
2.409677e+002, 1.270882e+003
2.414498e+002, 1.272340e+003
2.419320e+002, 1.275042e+003
2.424141e+002, 1.283198e+003
2.428962e+002, 1.299605e+003
2.433783e+002, 1.316304e+003
2.438604e+002, 1.333195e+003
2.443425e+002, 1.350243e+003
2.448247e+002, 1.361416e+003
2.453068e+002, 1.367120e+003
2.457889e+002, 1.366401e+003
2.462710e+002, 1.357926e+003
2.467531e+002, 1.338753e+003
2.472352e+002, 1.317640e+003
2.477174e+002, 1.296205e+003
2.481995e+002, 1.274471e+003
2.486816e+002, 1.248219e+003
2.491637e+002, 1.214073e+003
2.496458e+002, 1.179355e+003
2.501279e+002, 1.150585e+003
2.506101e+002, 1.130600e+003
2.510922e+002, 1.109961e+003
2.515743e+002, 1.087092e+003
2.520564e+002, 1.062405e+003
2.525385e+002, 1.039949e+003
2.530206e+002, 1.020030e+003
2.535028e+002, 1.001784e+003
2.539849e+002, 9.849694e+002
2.544670e+002, 9.691784e+002
2.549491e+002, 9.552578e+002
2.554312e+002, 9.435965e+002
2.559133e+002, 9.339418e+002
2.563955e+002, 9.243550e+002
2.568776e+002, 9.140709e+002
2.573597e+002, 9.048906e+002
2.578418e+002, 8.982360e+002
2.583239e+002, 8.952445e+002
2.588061e+002, 8.913666e+002
2.592882e+002, 8.856029e+002
2.597703e+002, 8.787577e+002
2.602524e+002, 8.741917e+002
2.607345e+002, 8.728785e+002
2.612166e+002, 8.720239e+002
2.616988e+002, 8.698919e+002
2.621809e+002, 8.658156e+002
2.626630e+002, 8.628451e+002
2.631451e+002, 8.611872e+002
2.636272e+002, 8.607388e+002
2.641093e+002, 8.615557e+002
2.645915e+002, 8.644664e+002
2.650736e+002, 8.668661e+002
2.655557e+002, 8.671483e+002
2.660378e+002, 8.644340e+002
2.665199e+002, 8.633654e+002
2.670020e+002, 8.645289e+002
2.674842e+002, 8.669808e+002
2.679663e+002, 8.682819e+002
2.684484e+002, 8.674113e+002
2.689305e+002, 8.683180e+002
2.694126e+002, 8.738182e+002
2.698947e+002, 8.854889e+002
2.703769e+002, 8.923382e+002
2.708590e+002, 8.931718e+002
2.713411e+002, 8.907545e+002
2.718232e+002, 8.894786e+002
2.723053e+002, 8.894982e+002
2.727874e+002, 8.899637e+002
2.732696e+002, 8.904612e+002
2.737517e+002, 8.909378e+002
2.742338e+002, 8.922186e+002
2.747159e+002, 8.942189e+002
2.751980e+002, 8.971410e+002
2.756801e+002, 9.013711e+002
2.761623e+002, 9.070435e+002
2.766444e+002, 9.132536e+002
2.771265e+002, 9.197726e+002
2.776086e+002, 9.266876e+002
2.780907e+002, 9.337316e+002
2.785728e+002, 9.408903e+002
2.790550e+002, 9.483939e+002
2.795371e+002, 9.558307e+002
2.800192e+002, 9.629938e+002
2.805013e+002, 9.731556e+002
2.809834e+002, 9.878462e+002
2.814655e+002, 1.006271e+003
2.819477e+002, 1.024760e+003
2.824298e+002, 1.043305e+003
2.829119e+002, 1.061166e+003
2.833940e+002, 1.078126e+003
2.838761e+002, 1.094151e+003
2.843582e+002, 1.107713e+003
2.848404e+002, 1.119485e+003
2.853225e+002, 1.127983e+003
2.858046e+002, 1.127677e+003
2.862867e+002, 1.118108e+003
2.867688e+002, 1.104592e+003
2.872509e+002, 1.090509e+003
2.877331e+002, 1.075884e+003
2.882152e+002, 1.060619e+003
2.886973e+002, 1.043944e+003
2.891794e+002, 1.027525e+003
2.896615e+002, 1.015105e+003
2.901436e+002, 1.006570e+003
2.906258e+002, 1.000686e+003
2.911079e+002, 9.964791e+002
2.915900e+002, 9.941325e+002
2.920721e+002, 9.942841e+002
2.925542e+002, 9.968260e+002
2.930363e+002, 1.002326e+003
2.935185e+002, 1.012323e+003
2.940006e+002, 1.026670e+003
2.944827e+002, 1.042692e+003
2.949648e+002, 1.057689e+003
2.954469e+002, 1.073521e+003
2.959290e+002, 1.095210e+003
2.964112e+002, 1.123600e+003
2.968933e+002, 1.155999e+003
2.973754e+002, 1.187861e+003
2.978575e+002, 1.220199e+003
2.983396e+002, 1.257664e+003
2.988217e+002, 1.302631e+003
2.993039e+002, 1.353970e+003
2.997860e+002, 1.410147e+003
3.002681e+002, 1.471680e+003
3.007502e+002, 1.533874e+003
3.012323e+002, 1.595073e+003
3.017144e+002, 1.653662e+003
3.021966e+002, 1.703155e+003
3.026787e+002, 1.745867e+003
3.031608e+002, 1.776588e+003
3.036429e+002, 1.788391e+003
3.041250e+002, 1.781484e+003
3.046071e+002, 1.761943e+003
3.050893e+002, 1.730574e+003
3.055714e+002, 1.690153e+003
3.060535e+002, 1.645937e+003
3.065356e+002, 1.597196e+003
3.070177e+002, 1.547261e+003
3.074998e+002, 1.499232e+003
3.079820e+002, 1.452741e+003
3.084641e+002, 1.408227e+003
3.089462e+002, 1.363138e+003
3.094283e+002, 1.321071e+003
3.099104e+002, 1.287474e+003
3.103925e+002, 1.268356e+003
3.108747e+002, 1.250196e+003
3.113568e+002, 1.222566e+003
3.118389e+002, 1.188609e+003
3.123210e+002, 1.157229e+003
3.128031e+002, 1.131523e+003
3.132852e+002, 1.110570e+003
3.137674e+002, 1.094139e+003
3.142495e+002, 1.083486e+003
3.147316e+002, 1.073956e+003
3.152137e+002, 1.063375e+003
3.156958e+002, 1.052487e+003
3.161779e+002, 1.042564e+003
3.166601e+002, 1.033467e+003
3.171422e+002, 1.025926e+003
3.176243e+002, 1.020625e+003
3.181064e+002, 1.017870e+003
3.185885e+002, 1.015992e+003
3.190706e+002, 1.014717e+003
3.195528e+002, 1.013926e+003
3.200349e+002, 1.013481e+003
3.205170e+002, 1.012225e+003
3.209991e+002, 1.012379e+003
3.214812e+002, 1.014934e+003
3.219633e+002, 1.019945e+003
3.224455e+002, 1.025602e+003
3.229276e+002, 1.031928e+003
3.234097e+002, 1.038565e+003
3.238918e+002, 1.045242e+003
3.243739e+002, 1.050375e+003
3.248560e+002, 1.057238e+003
3.253382e+002, 1.066791e+003
3.258203e+002, 1.078774e+003
3.263024e+002, 1.091071e+003
3.267845e+002, 1.102284e+003
3.272666e+002, 1.114757e+003
3.277487e+002, 1.129718e+003
3.282309e+002, 1.148904e+003
3.287130e+002, 1.167944e+003
3.291951e+002, 1.185115e+003
3.296772e+002, 1.202180e+003
3.301593e+002, 1.223703e+003
3.306414e+002, 1.250897e+003
3.311236e+002, 1.280857e+003
3.316057e+002, 1.312726e+003
3.320878e+002, 1.346146e+003
3.325699e+002, 1.382736e+003
3.330520e+002, 1.422362e+003
3.335341e+002, 1.464887e+003
3.340163e+002, 1.510058e+003
3.344984e+002, 1.557475e+003
3.349805e+002, 1.607707e+003
3.354626e+002, 1.661908e+003
3.359447e+002, 1.720534e+003
3.364268e+002, 1.778358e+003
3.369090e+002, 1.836815e+003
3.373911e+002, 1.893194e+003
3.378732e+002, 1.945561e+003
3.383553e+002, 1.995365e+003
3.388374e+002, 2.035170e+003
3.393195e+002, 2.064027e+003
3.398017e+002, 2.081927e+003
3.402838e+002, 2.089630e+003
3.407659e+002, 2.086642e+003
3.412480e+002, 2.074914e+003
3.417301e+002, 2.053747e+003
3.422122e+002, 2.022859e+003
3.426944e+002, 1.990633e+003
3.431765e+002, 1.957133e+003
3.436586e+002, 1.923924e+003
3.441407e+002, 1.894333e+003
3.446228e+002, 1.868445e+003
3.451049e+002, 1.846860e+003
3.455871e+002, 1.830361e+003
3.460692e+002, 1.818635e+003
3.465513e+002, 1.810938e+003
3.470334e+002, 1.807139e+003
3.475155e+002, 1.807646e+003
3.479977e+002, 1.812861e+003
3.484798e+002, 1.822867e+003
3.489619e+002, 1.837835e+003
3.494440e+002, 1.859363e+003
3.499261e+002, 1.885389e+003
3.504082e+002, 1.911252e+003
3.508904e+002, 1.936941e+003
3.513725e+002, 1.965344e+003
3.518546e+002, 2.000755e+003
3.523367e+002, 2.040785e+003
3.528188e+002, 2.080912e+003
3.533009e+002, 2.120381e+003
3.537831e+002, 2.158641e+003
3.542652e+002, 2.195861e+003
3.547473e+002, 2.231633e+003
3.552294e+002, 2.264175e+003
3.557115e+002, 2.295213e+003
3.561936e+002, 2.321198e+003
3.566758e+002, 2.338147e+003
3.571579e+002, 2.345147e+003
3.576400e+002, 2.344424e+003
3.581221e+002, 2.337655e+003
3.586042e+002, 2.324431e+003
3.590863e+002, 2.303778e+003
3.595685e+002, 2.273669e+003
3.600506e+002, 2.237265e+003
3.605327e+002, 2.195432e+003
3.610148e+002, 2.147875e+003
3.614969e+002, 2.098819e+003
3.619790e+002, 2.049312e+003
3.624612e+002, 1.999565e+003
3.629433e+002, 1.949148e+003
3.634254e+002, 1.895344e+003
3.639075e+002, 1.843381e+003
3.643896e+002, 1.794510e+003
3.648717e+002, 1.748726e+003
3.653539e+002, 1.705873e+003
3.658360e+002, 1.665466e+003
3.663181e+002, 1.628351e+003
3.668002e+002, 1.594250e+003
3.672823e+002, 1.562724e+003
3.677644e+002, 1.534753e+003
3.682466e+002, 1.510500e+003
3.687287e+002, 1.489836e+003
3.692108e+002, 1.472540e+003
3.696929e+002, 1.458043e+003
3.701750e+002, 1.447352e+003
3.706571e+002, 1.441154e+003
3.711393e+002, 1.440185e+003
3.716214e+002, 1.441141e+003
3.721035e+002, 1.443822e+003
3.725856e+002, 1.448629e+003
3.730677e+002, 1.456456e+003
3.735498e+002, 1.469297e+003
3.740320e+002, 1.481075e+003
3.745141e+002, 1.490393e+003
3.749962e+002, 1.497331e+003
3.754783e+002, 1.503777e+003
3.759604e+002, 1.510875e+003
3.764425e+002, 1.514932e+003
3.769247e+002, 1.512827e+003
3.774068e+002, 1.504306e+003
3.778889e+002, 1.491868e+003
3.783710e+002, 1.475836e+003
3.788531e+002, 1.456230e+003
3.793352e+002, 1.431597e+003
3.798174e+002, 1.401758e+003
3.802995e+002, 1.371311e+003
3.807816e+002, 1.343338e+003
3.812637e+002, 1.317214e+003
3.817458e+002, 1.290106e+003
3.822279e+002, 1.260978e+003
3.827101e+002, 1.233080e+003
3.831922e+002, 1.210344e+003
3.836743e+002, 1.191947e+003
3.841564e+002, 1.175099e+003
3.846385e+002, 1.158062e+003
3.851206e+002, 1.141996e+003
3.856028e+002, 1.129268e+003
3.860849e+002, 1.119774e+003
3.865670e+002, 1.111511e+003
3.870491e+002, 1.103076e+003
3.875312e+002, 1.094729e+003
3.880133e+002, 1.086629e+003
3.884955e+002, 1.078209e+003
3.889776e+002, 1.071195e+003
3.894597e+002, 1.067849e+003
3.899418e+002, 1.067361e+003
3.904239e+002, 1.067406e+003
3.909060e+002, 1.066760e+003
3.913882e+002, 1.066180e+003
3.918703e+002, 1.066129e+003
3.923524e+002, 1.066599e+003
3.928345e+002, 1.067957e+003
3.933166e+002, 1.070057e+003
3.937987e+002, 1.073252e+003
3.942809e+002, 1.077943e+003
3.947630e+002, 1.085842e+003
3.952451e+002, 1.093694e+003
3.957272e+002, 1.099814e+003
3.962093e+002, 1.104340e+003
3.966914e+002, 1.110602e+003
3.971736e+002, 1.119018e+003
3.976557e+002, 1.129537e+003
3.981378e+002, 1.142188e+003
3.986199e+002, 1.158166e+003
3.991020e+002, 1.174582e+003
3.995841e+002, 1.191141e+003
4.000663e+002, 1.208084e+003
4.005484e+002, 1.226036e+003
4.010305e+002, 1.245498e+003
4.015126e+002, 1.265351e+003
4.019947e+002, 1.285479e+003
4.024768e+002, 1.305887e+003
4.029590e+002, 1.325798e+003
4.034411e+002, 1.346214e+003
4.039232e+002, 1.365002e+003
4.044053e+002, 1.380129e+003
4.048874e+002, 1.392000e+003
4.053695e+002, 1.398998e+003
4.058517e+002, 1.401142e+003
4.063338e+002, 1.398208e+003
4.068159e+002, 1.388399e+003
4.072980e+002, 1.370994e+003
4.077801e+002, 1.350182e+003
4.082622e+002, 1.328186e+003
4.087444e+002, 1.305034e+003
4.092265e+002, 1.282010e+003
4.097086e+002, 1.258571e+003
4.101907e+002, 1.236733e+003
4.106728e+002, 1.219842e+003
4.111549e+002, 1.207407e+003
4.116371e+002, 1.196822e+003
4.121192e+002, 1.187020e+003
4.126013e+002, 1.178280e+003
4.130834e+002, 1.170607e+003
4.135655e+002, 1.164039e+003
4.140476e+002, 1.160618e+003
4.145298e+002, 1.163986e+003
4.150119e+002, 1.171196e+003
4.154940e+002, 1.177193e+003
4.159761e+002, 1.178884e+003
4.164582e+002, 1.181470e+003
4.169403e+002, 1.189683e+003
4.174225e+002, 1.202378e+003
4.179046e+002, 1.216318e+003
4.183867e+002, 1.230934e+003
4.188688e+002, 1.245221e+003
4.193509e+002, 1.257453e+003
4.198330e+002, 1.266737e+003
4.203152e+002, 1.278436e+003
4.207973e+002, 1.296461e+003
4.212794e+002, 1.317514e+003
4.217615e+002, 1.337857e+003
4.222436e+002, 1.356356e+003
4.227257e+002, 1.374259e+003
4.232079e+002, 1.391300e+003
4.236900e+002, 1.407625e+003
4.241721e+002, 1.425700e+003
4.246542e+002, 1.449172e+003
4.251363e+002, 1.471847e+003
4.256184e+002, 1.491128e+003
4.261006e+002, 1.506560e+003
4.265827e+002, 1.518786e+003
4.270648e+002, 1.527831e+003
4.275469e+002, 1.533657e+003
4.280290e+002, 1.536116e+003
4.285111e+002, 1.535420e+003
4.289933e+002, 1.530765e+003
4.294754e+002, 1.520957e+003
4.299575e+002, 1.506109e+003
4.304396e+002, 1.492529e+003
4.309217e+002, 1.480370e+003
4.314038e+002, 1.468896e+003
4.318860e+002, 1.457573e+003
4.323681e+002, 1.446402e+003
4.328502e+002, 1.435669e+003
4.333323e+002, 1.424987e+003
4.338144e+002, 1.415455e+003
4.342965e+002, 1.409371e+003
4.347787e+002, 1.406617e+003
4.352608e+002, 1.405717e+003
4.357429e+002, 1.404405e+003
4.362250e+002, 1.404569e+003
4.367071e+002, 1.411227e+003
4.371892e+002, 1.424800e+003
4.376714e+002, 1.441222e+003
4.381535e+002, 1.455650e+003
4.386356e+002, 1.470336e+003
4.391177e+002, 1.489153e+003
4.395998e+002, 1.513963e+003
4.400819e+002, 1.542648e+003
4.405641e+002, 1.572851e+003
4.410462e+002, 1.605313e+003
4.415283e+002, 1.642830e+003
4.420104e+002, 1.685504e+003
4.424925e+002, 1.734399e+003
4.429746e+002, 1.789473e+003
4.434568e+002, 1.850812e+003
4.439389e+002, 1.919115e+003
4.444210e+002, 1.994103e+003
4.449031e+002, 2.076323e+003
4.453852e+002, 2.166794e+003
4.458673e+002, 2.261759e+003
4.463495e+002, 2.367909e+003
4.468316e+002, 2.488218e+003
4.473137e+002, 2.622458e+003
4.477958e+002, 2.764650e+003
4.482779e+002, 2.913585e+003
4.487600e+002, 3.069706e+003
4.492422e+002, 3.234608e+003
4.497243e+002, 3.417996e+003
4.502064e+002, 3.590216e+003
4.506885e+002, 3.757121e+003
4.511706e+002, 3.911208e+003
4.516527e+002, 4.042644e+003
4.521349e+002, 4.157293e+003
4.526170e+002, 4.229542e+003
4.530991e+002, 4.251606e+003
4.535812e+002, 4.224573e+003
4.540633e+002, 4.150158e+003
4.545454e+002, 4.026018e+003
4.550276e+002, 3.871655e+003
4.555097e+002, 3.695779e+003
4.559918e+002, 3.500795e+003
4.564739e+002, 3.305188e+003
4.569560e+002, 3.107182e+003
4.574381e+002, 2.915321e+003
4.579203e+002, 2.736994e+003
4.584024e+002, 2.573482e+003
4.588845e+002, 2.425600e+003
4.593666e+002, 2.297551e+003
4.598488e+002, 2.184685e+003
4.603309e+002, 2.084834e+003
4.608130e+002, 1.998106e+003
4.612951e+002, 1.920995e+003
4.617772e+002, 1.854718e+003
4.622593e+002, 1.797000e+003
4.627415e+002, 1.747131e+003
4.632236e+002, 1.706473e+003
4.637057e+002, 1.670922e+003
4.641878e+002, 1.639066e+003
4.646699e+002, 1.611636e+003
4.651520e+002, 1.589486e+003
4.656342e+002, 1.573655e+003
4.661163e+002, 1.563061e+003
4.665984e+002, 1.558620e+003
4.670805e+002, 1.561191e+003
4.675626e+002, 1.562982e+003
4.680447e+002, 1.561237e+003
4.685269e+002, 1.560689e+003
4.690090e+002, 1.564791e+003
4.694911e+002, 1.575869e+003
4.699732e+002, 1.586711e+003
4.704553e+002, 1.596259e+003
4.709374e+002, 1.605687e+003
4.714196e+002, 1.618475e+003
4.719017e+002, 1.635712e+003
4.723838e+002, 1.652037e+003
4.728659e+002, 1.665189e+003
4.733480e+002, 1.675477e+003
4.738301e+002, 1.685686e+003
4.743123e+002, 1.695982e+003
4.747944e+002, 1.705532e+003
4.752765e+002, 1.714142e+003
4.757586e+002, 1.721515e+003
4.762407e+002, 1.725978e+003
4.767228e+002, 1.726593e+003
4.772050e+002, 1.725617e+003
4.776871e+002, 1.725470e+003
4.781692e+002, 1.726144e+003
4.786513e+002, 1.727650e+003
4.791334e+002, 1.730790e+003
4.796155e+002, 1.734246e+003
4.800977e+002, 1.736925e+003
4.805798e+002, 1.738758e+003
4.810619e+002, 1.739644e+003
4.815440e+002, 1.740199e+003
4.820261e+002, 1.739415e+003
4.825082e+002, 1.736308e+003
4.829904e+002, 1.729689e+003
4.834725e+002, 1.722203e+003
4.839546e+002, 1.716292e+003
4.844367e+002, 1.709919e+003
4.849188e+002, 1.698888e+003
4.854009e+002, 1.679635e+003
4.858831e+002, 1.658557e+003
4.863652e+002, 1.637100e+003
4.868473e+002, 1.615518e+003
4.873294e+002, 1.592841e+003
4.878115e+002, 1.568566e+003
4.882936e+002, 1.543766e+003
4.887758e+002, 1.518965e+003
4.892579e+002, 1.494160e+003
4.897400e+002, 1.468714e+003
4.902221e+002, 1.442066e+003
4.907042e+002, 1.415355e+003
4.911863e+002, 1.391921e+003
4.916685e+002, 1.371843e+003
4.921506e+002, 1.351528e+003
4.926327e+002, 1.329104e+003
4.931148e+002, 1.305356e+003
4.935969e+002, 1.284346e+003
4.940790e+002, 1.265794e+003
4.945612e+002, 1.248530e+003
4.950433e+002, 1.231181e+003
4.955254e+002, 1.214373e+003
4.960075e+002, 1.199134e+003
4.964896e+002, 1.186187e+003
4.969717e+002, 1.173535e+003
4.974539e+002, 1.159574e+003
4.979360e+002, 1.144823e+003
4.984181e+002, 1.130661e+003
4.989002e+002, 1.117452e+003
4.993823e+002, 1.104955e+003
4.998644e+002, 1.092847e+003
5.003466e+002, 1.081111e+003
5.008287e+002, 1.070667e+003
5.013108e+002, 1.062503e+003
5.017929e+002, 1.055193e+003
5.022750e+002, 1.048029e+003
5.027571e+002, 1.041198e+003
5.032393e+002, 1.033860e+003
5.037214e+002, 1.025412e+003
5.042035e+002, 1.016795e+003
5.046856e+002, 1.009110e+003
5.051677e+002, 1.002509e+003
5.056498e+002, 9.966791e+002
5.061320e+002, 9.917645e+002
5.066141e+002, 9.875251e+002
5.070962e+002, 9.828157e+002
5.075783e+002, 9.774827e+002
5.080604e+002, 9.722936e+002
5.085425e+002, 9.674481e+002
5.090247e+002, 9.630158e+002
5.095068e+002, 9.603112e+002
5.099889e+002, 9.597645e+002
5.104710e+002, 9.588694e+002
5.109531e+002, 9.536346e+002
5.114352e+002, 9.455954e+002
5.119174e+002, 9.394703e+002
5.123995e+002, 9.377552e+002
5.128816e+002, 9.371278e+002
5.133637e+002, 9.336221e+002
5.138458e+002, 9.280921e+002
5.143279e+002, 9.232870e+002
5.148101e+002, 9.211188e+002
5.152922e+002, 9.198849e+002
5.157743e+002, 9.185220e+002
5.162564e+002, 9.169367e+002
5.167385e+002, 9.152474e+002
5.172206e+002, 9.134720e+002
5.177028e+002, 9.116429e+002
5.181849e+002, 9.097892e+002
5.186670e+002, 9.080160e+002
5.191491e+002, 9.060646e+002
5.196312e+002, 9.035142e+002
5.201133e+002, 9.008402e+002
5.205955e+002, 8.990299e+002
5.210776e+002, 8.983134e+002
5.215597e+002, 8.980586e+002
5.220418e+002, 8.982560e+002
5.225239e+002, 8.988534e+002
5.230060e+002, 8.988981e+002
5.234882e+002, 8.983587e+002
5.239703e+002, 8.973239e+002
5.244524e+002, 8.954868e+002
5.249345e+002, 8.929894e+002
5.254166e+002, 8.912922e+002
5.258987e+002, 8.905350e+002
5.263809e+002, 8.905809e+002
5.268630e+002, 8.919799e+002
5.273451e+002, 8.941512e+002
5.278272e+002, 8.952502e+002
5.283093e+002, 8.943231e+002
5.287914e+002, 8.922120e+002
5.292736e+002, 8.892946e+002
5.297557e+002, 8.857882e+002
5.302378e+002, 8.827549e+002
5.307199e+002, 8.805944e+002
5.312020e+002, 8.792067e+002
5.316841e+002, 8.787239e+002
5.321663e+002, 8.793701e+002
5.326484e+002, 8.799141e+002
5.331305e+002, 8.797897e+002
5.336126e+002, 8.795413e+002
5.340947e+002, 8.796942e+002
5.345768e+002, 8.812835e+002
5.350590e+002, 8.819059e+002
5.355411e+002, 8.809279e+002
5.360232e+002, 8.789320e+002
5.365053e+002, 8.774510e+002
5.369874e+002, 8.763999e+002
5.374695e+002, 8.760950e+002
5.379517e+002, 8.770088e+002
5.384338e+002, 8.789777e+002
5.389159e+002, 8.796791e+002
5.393980e+002, 8.789876e+002
5.398801e+002, 8.777493e+002
5.403622e+002, 8.762120e+002
5.408444e+002, 8.746613e+002
5.413265e+002, 8.744972e+002
5.418086e+002, 8.762557e+002
5.422907e+002, 8.780980e+002
5.427728e+002, 8.774440e+002
5.432549e+002, 8.753105e+002
5.437371e+002, 8.739023e+002
5.442192e+002, 8.748226e+002
5.447013e+002, 8.762257e+002
5.451834e+002, 8.771910e+002
5.456655e+002, 8.776661e+002
5.461476e+002, 8.773649e+002
5.466298e+002, 8.747523e+002
5.471119e+002, 8.724841e+002
5.475940e+002, 8.721862e+002
5.480761e+002, 8.745936e+002
5.485582e+002, 8.766162e+002
5.490403e+002, 8.782295e+002
5.495225e+002, 8.792148e+002
5.500046e+002, 8.793307e+002
5.504867e+002, 8.782996e+002
5.509688e+002, 8.768907e+002
5.514509e+002, 8.748616e+002
5.519330e+002, 8.726935e+002
5.524152e+002, 8.713951e+002
5.528973e+002, 8.709531e+002
5.533794e+002, 8.713995e+002
5.538615e+002, 8.732809e+002
5.543436e+002, 8.759292e+002
5.548257e+002, 8.767902e+002
5.553079e+002, 8.758965e+002
5.557900e+002, 8.748434e+002
5.562721e+002, 8.749290e+002
5.567542e+002, 8.756278e+002
5.572363e+002, 8.760925e+002
5.577184e+002, 8.762039e+002
5.582006e+002, 8.762251e+002
5.586827e+002, 8.762331e+002
5.591648e+002, 8.763164e+002
5.596469e+002, 8.765877e+002
5.601290e+002, 8.776970e+002
5.606111e+002, 8.783384e+002
5.610933e+002, 8.779178e+002
5.615754e+002, 8.766994e+002
5.620575e+002, 8.754036e+002
5.625396e+002, 8.730684e+002
5.630217e+002, 8.717884e+002
5.635038e+002, 8.725502e+002
5.639860e+002, 8.754720e+002
5.644681e+002, 8.771973e+002
5.649502e+002, 8.773214e+002
5.654323e+002, 8.769974e+002
5.659144e+002, 8.769406e+002
5.663965e+002, 8.771479e+002
5.668787e+002, 8.777281e+002
5.673608e+002, 8.788007e+002
5.678429e+002, 8.798976e+002
5.683250e+002, 8.801016e+002
5.688071e+002, 8.796740e+002
5.692892e+002, 8.797946e+002
5.697714e+002, 8.811592e+002
5.702535e+002, 8.828208e+002
5.707356e+002, 8.835553e+002
5.712177e+002, 8.835590e+002
5.716998e+002, 8.834578e+002
5.721819e+002, 8.835240e+002
5.726641e+002, 8.836321e+002
5.731462e+002, 8.836458e+002
5.736283e+002, 8.835521e+002
5.741104e+002, 8.836194e+002
5.745925e+002, 8.841918e+002
5.750746e+002, 8.847744e+002
5.755568e+002, 8.849802e+002
5.760389e+002, 8.839952e+002
5.765210e+002, 8.841545e+002
5.770031e+002, 8.863812e+002
5.774852e+002, 8.891012e+002
5.779673e+002, 8.901437e+002
5.784495e+002, 8.891017e+002
5.789316e+002, 8.878856e+002
5.794137e+002, 8.868495e+002
5.798958e+002, 8.859370e+002
5.803779e+002, 8.847076e+002
5.808600e+002, 8.831790e+002
5.813422e+002, 8.823179e+002
5.818243e+002, 8.829577e+002
5.823064e+002, 8.845435e+002
5.827885e+002, 8.859764e+002
5.832706e+002, 8.872388e+002
5.837527e+002, 8.883845e+002
5.842349e+002, 8.895171e+002
5.847170e+002, 8.905145e+002
5.851991e+002, 8.913134e+002
5.856812e+002, 8.920157e+002
5.861633e+002, 8.921089e+002
5.866454e+002, 8.905475e+002
5.871276e+002, 8.885363e+002
5.876097e+002, 8.875651e+002
5.880918e+002, 8.887741e+002
5.885739e+002, 8.899968e+002
5.890560e+002, 8.913068e+002
5.895381e+002, 8.924364e+002
5.900203e+002, 8.924279e+002
5.905024e+002, 8.906857e+002
5.909845e+002, 8.891796e+002
5.914666e+002, 8.885216e+002
5.919487e+002, 8.887104e+002
5.924308e+002, 8.901920e+002
5.929130e+002, 8.932077e+002
5.933951e+002, 8.956432e+002
5.938772e+002, 8.951591e+002
5.943593e+002, 8.927721e+002
5.948414e+002, 8.914694e+002
5.953235e+002, 8.916124e+002
5.958057e+002, 8.922994e+002
5.962878e+002, 8.924080e+002
5.967699e+002, 8.925922e+002
5.972520e+002, 8.939877e+002
5.977341e+002, 8.984738e+002
5.982162e+002, 9.019540e+002
5.986984e+002, 9.015814e+002
5.991805e+002, 8.988558e+002
5.996626e+002, 8.969697e+002
6.001447e+002, 8.967924e+002
6.006268e+002, 8.973658e+002
6.011089e+002, 8.987734e+002
6.015911e+002, 9.008981e+002
6.020732e+002, 9.024896e+002
6.025553e+002, 9.037217e+002
6.030374e+002, 9.040877e+002
6.035195e+002, 9.028196e+002
6.040016e+002, 8.998070e+002
6.044838e+002, 8.985706e+002
6.049659e+002, 8.992886e+002
6.054480e+002, 9.010002e+002
6.059301e+002, 9.031670e+002
6.064122e+002, 9.055702e+002
6.068943e+002, 9.074624e+002
6.073765e+002, 9.086423e+002
6.078586e+002, 9.094461e+002
6.083407e+002, 9.101429e+002
6.088228e+002, 9.107005e+002
6.093049e+002, 9.110488e+002
6.097870e+002, 9.111198e+002
6.102692e+002, 9.110119e+002
6.107513e+002, 9.104274e+002
6.112334e+002, 9.096244e+002
6.117155e+002, 9.095328e+002
6.121976e+002, 9.109642e+002
6.126797e+002, 9.124987e+002
6.131619e+002, 9.136712e+002
6.136440e+002, 9.144689e+002
6.141261e+002, 9.152586e+002
6.146082e+002, 9.160687e+002
6.150903e+002, 9.168236e+002
6.155724e+002, 9.177026e+002
6.160546e+002, 9.187248e+002
6.165367e+002, 9.183214e+002
6.170188e+002, 9.160809e+002
6.175009e+002, 9.138732e+002
6.179830e+002, 9.143581e+002
6.184651e+002, 9.166786e+002
6.189473e+002, 9.182920e+002
6.194294e+002, 9.183084e+002
6.199115e+002, 9.179506e+002
6.203936e+002, 9.183312e+002
6.208757e+002, 9.191796e+002
6.213578e+002, 9.199370e+002
6.218400e+002, 9.206097e+002
6.223221e+002, 9.209308e+002
6.228042e+002, 9.201849e+002
6.232863e+002, 9.187043e+002
6.237684e+002, 9.187093e+002
6.242505e+002, 9.216035e+002
6.247327e+002, 9.247072e+002
6.252148e+002, 9.273600e+002
6.256969e+002, 9.296584e+002
6.261790e+002, 9.299794e+002
6.266611e+002, 9.276815e+002
6.271432e+002, 9.250363e+002
6.276254e+002, 9.239432e+002
6.281075e+002, 9.242679e+002
6.285896e+002, 9.245717e+002
6.290717e+002, 9.247781e+002
6.295538e+002, 9.247406e+002
6.300359e+002, 9.235178e+002
6.305181e+002, 9.220283e+002
6.310002e+002, 9.223600e+002
6.314823e+002, 9.263051e+002
6.319644e+002, 9.302899e+002
6.324465e+002, 9.316722e+002
6.329286e+002, 9.313245e+002
6.334108e+002, 9.309559e+002
6.338929e+002, 9.304360e+002
6.343750e+002, 9.306608e+002
6.348571e+002, 9.325391e+002
6.353392e+002, 9.356934e+002
6.358214e+002, 9.373608e+002
6.363035e+002, 9.366881e+002
6.367856e+002, 9.358146e+002
6.372677e+002, 9.353431e+002
6.377498e+002, 9.352595e+002
6.382319e+002, 9.368605e+002
6.387141e+002, 9.405057e+002
6.391962e+002, 9.438915e+002
6.396783e+002, 9.446588e+002
6.401604e+002, 9.436107e+002
6.406425e+002, 9.435905e+002
6.411246e+002, 9.450443e+002
6.416068e+002, 9.466426e+002
6.420889e+002, 9.474852e+002
6.425710e+002, 9.476390e+002
6.430531e+002, 9.470589e+002
6.435352e+002, 9.449245e+002
6.440173e+002, 9.434553e+002
6.444995e+002, 9.441709e+002
6.449816e+002, 9.460281e+002
6.454637e+002, 9.472035e+002
6.459458e+002, 9.460048e+002
6.464279e+002, 9.458246e+002
6.469100e+002, 9.476985e+002
6.473922e+002, 9.509520e+002
6.478743e+002, 9.526833e+002
6.483564e+002, 9.523646e+002
6.488385e+002, 9.523112e+002
6.493206e+002, 9.537327e+002
6.498027e+002, 9.562562e+002
6.502849e+002, 9.581115e+002
6.507670e+002, 9.593083e+002
6.512491e+002, 9.598701e+002
6.517312e+002, 9.590169e+002
6.522133e+002, 9.578773e+002
6.526954e+002, 9.583527e+002
6.531776e+002, 9.607761e+002
6.536597e+002, 9.631194e+002
6.541418e+002, 9.641149e+002
6.546239e+002, 9.645700e+002
6.551060e+002, 9.652064e+002
6.555881e+002, 9.662126e+002
6.560703e+002, 9.672935e+002
6.565524e+002, 9.683278e+002
6.570345e+002, 9.694334e+002
6.575166e+002, 9.708246e+002
6.579987e+002, 9.728135e+002
6.584808e+002, 9.740758e+002
6.589630e+002, 9.740988e+002
6.594451e+002, 9.736008e+002
6.599272e+002, 9.746957e+002
6.604093e+002, 9.772863e+002
6.608914e+002, 9.785526e+002
6.613735e+002, 9.765303e+002
6.618557e+002, 9.732748e+002
6.623378e+002, 9.717903e+002
6.628199e+002, 9.719697e+002
6.633020e+002, 9.732687e+002
6.637841e+002, 9.764831e+002
6.642662e+002, 9.798906e+002
6.647484e+002, 9.822254e+002
6.652305e+002, 9.834052e+002
6.657126e+002, 9.845785e+002
6.661947e+002, 9.857243e+002
6.666768e+002, 9.871911e+002
6.671589e+002, 9.892552e+002
6.676411e+002, 9.921942e+002
6.681232e+002, 9.943875e+002
6.686053e+002, 9.954713e+002
6.690874e+002, 9.963174e+002
6.695695e+002, 9.979482e+002
6.700516e+002, 1.000289e+003
6.705338e+002, 1.001494e+003
6.710159e+002, 1.001072e+003
6.714980e+002, 1.000469e+003
6.719801e+002, 1.002399e+003
6.724622e+002, 1.005494e+003
6.729443e+002, 1.006435e+003
6.734265e+002, 1.002965e+003
6.739086e+002, 9.992560e+002
6.743907e+002, 9.979451e+002
6.748728e+002, 9.984227e+002
6.753549e+002, 9.995162e+002
6.758370e+002, 1.001647e+003
6.763192e+002, 1.003652e+003
6.768013e+002, 1.005132e+003
6.772834e+002, 1.006284e+003
6.777655e+002, 1.007814e+003
6.782476e+002, 1.010222e+003
6.787297e+002, 1.011803e+003
6.792119e+002, 1.011434e+003
6.796940e+002, 1.009630e+003
6.801761e+002, 1.009456e+003
6.806582e+002, 1.010918e+003
6.811403e+002, 1.013271e+003
6.816224e+002, 1.016542e+003
6.821046e+002, 1.020126e+003
6.825867e+002, 1.022725e+003
6.830688e+002, 1.024271e+003
6.835509e+002, 1.025964e+003
6.840330e+002, 1.028970e+003
6.845151e+002, 1.032208e+003
6.849973e+002, 1.034719e+003
6.854794e+002, 1.036041e+003
6.859615e+002, 1.037660e+003
6.864436e+002, 1.039972e+003
6.869257e+002, 1.042622e+003
6.874078e+002, 1.045443e+003
6.878900e+002, 1.048794e+003
6.883721e+002, 1.051359e+003
6.888542e+002, 1.052857e+003
6.893363e+002, 1.053898e+003
6.898184e+002, 1.055062e+003
6.903005e+002, 1.056428e+003
6.907827e+002, 1.058843e+003
6.912648e+002, 1.062954e+003
6.917469e+002, 1.067373e+003
6.922290e+002, 1.069853e+003
6.927111e+002, 1.071236e+003
6.931932e+002, 1.073346e+003
6.936754e+002, 1.076927e+003
6.941575e+002, 1.081459e+003
6.946396e+002, 1.087286e+003
6.951217e+002, 1.093941e+003
6.956038e+002, 1.099893e+003
6.960859e+002, 1.103840e+003
6.965681e+002, 1.108202e+003
6.970502e+002, 1.113862e+003
6.975323e+002, 1.120620e+003
6.980144e+002, 1.126286e+003
6.984965e+002, 1.130578e+003
6.989786e+002, 1.135098e+003
6.994608e+002, 1.141262e+003
6.999429e+002, 1.148512e+003
7.004250e+002, 1.153974e+003
7.009071e+002, 1.157758e+003
7.013892e+002, 1.162022e+003
7.018713e+002, 1.168771e+003
7.023535e+002, 1.176673e+003
7.028356e+002, 1.184375e+003
7.033177e+002, 1.191730e+003
7.037998e+002, 1.198890e+003
7.042819e+002, 1.205348e+003
7.047640e+002, 1.212052e+003
7.052462e+002, 1.219976e+003
7.057283e+002, 1.230659e+003
7.062104e+002, 1.238923e+003
7.066925e+002, 1.243902e+003
7.071746e+002, 1.247464e+003
7.076567e+002, 1.251592e+003
7.081389e+002, 1.256268e+003
7.086210e+002, 1.261080e+003
7.091031e+002, 1.266219e+003
7.095852e+002, 1.270724e+003
7.100673e+002, 1.273099e+003
7.105494e+002, 1.273801e+003
7.110316e+002, 1.274011e+003
7.115137e+002, 1.274155e+003
7.119958e+002, 1.273885e+003
7.124779e+002, 1.273663e+003
7.129600e+002, 1.272795e+003
7.134421e+002, 1.269991e+003
7.139243e+002, 1.263283e+003
7.144064e+002, 1.256511e+003
7.148885e+002, 1.250073e+003
7.153706e+002, 1.244225e+003
7.158527e+002, 1.240283e+003
7.163348e+002, 1.239066e+003
7.168170e+002, 1.237008e+003
7.172991e+002, 1.233020e+003
7.177812e+002, 1.227231e+003
7.182633e+002, 1.219051e+003
7.187454e+002, 1.208751e+003
7.192275e+002, 1.200412e+003
7.197097e+002, 1.198192e+003
7.201918e+002, 1.197810e+003
7.206739e+002, 1.194434e+003
7.211560e+002, 1.188241e+003
7.216381e+002, 1.181738e+003
7.221202e+002, 1.175553e+003
7.226024e+002, 1.169853e+003
7.230845e+002, 1.164628e+003
7.235666e+002, 1.159825e+003
7.240487e+002, 1.156325e+003
7.245308e+002, 1.154952e+003
7.250129e+002, 1.153593e+003
7.254951e+002, 1.151100e+003
7.259772e+002, 1.147451e+003
7.264593e+002, 1.142318e+003
7.269414e+002, 1.135375e+003
7.274235e+002, 1.129461e+003
7.279056e+002, 1.128364e+003
7.283878e+002, 1.129881e+003
7.288699e+002, 1.129835e+003
7.293520e+002, 1.127513e+003
7.298341e+002, 1.124430e+003
7.303162e+002, 1.121208e+003
7.307983e+002, 1.117899e+003
7.312805e+002, 1.114433e+003
7.317626e+002, 1.109983e+003
7.322447e+002, 1.106905e+003
7.327268e+002, 1.106008e+003
7.332089e+002, 1.105973e+003
7.336910e+002, 1.105205e+003
7.341732e+002, 1.103351e+003
7.346553e+002, 1.102764e+003
7.351374e+002, 1.104193e+003
7.356195e+002, 1.105841e+003
7.361016e+002, 1.104553e+003
7.365837e+002, 1.101106e+003
7.370659e+002, 1.098268e+003
7.375480e+002, 1.097123e+003
7.380301e+002, 1.096329e+003
7.385122e+002, 1.094311e+003
7.389943e+002, 1.091926e+003
7.394764e+002, 1.090659e+003
7.399586e+002, 1.093329e+003
7.404407e+002, 1.094482e+003
7.409228e+002, 1.091575e+003
7.414049e+002, 1.086472e+003
7.418870e+002, 1.083230e+003
7.423691e+002, 1.082465e+003
7.428513e+002, 1.081936e+003
7.433334e+002, 1.080979e+003
7.438155e+002, 1.079996e+003
7.442976e+002, 1.080067e+003
7.447797e+002, 1.081147e+003
7.452618e+002, 1.082739e+003
7.457440e+002, 1.085309e+003
7.462261e+002, 1.087763e+003
7.467082e+002, 1.088974e+003
7.471903e+002, 1.089052e+003
7.476724e+002, 1.088479e+003
7.481545e+002, 1.085806e+003
7.486367e+002, 1.084081e+003
7.491188e+002, 1.085249e+003
7.496009e+002, 1.089049e+003
7.500830e+002, 1.091549e+003
7.505651e+002, 1.092521e+003
7.510472e+002, 1.092692e+003
7.515294e+002, 1.092006e+003
7.520115e+002, 1.090708e+003
7.524936e+002, 1.090672e+003
7.529757e+002, 1.091892e+003
7.534578e+002, 1.093385e+003
7.539399e+002, 1.094352e+003
7.544221e+002, 1.095227e+003
7.549042e+002, 1.096510e+003
7.553863e+002, 1.098240e+003
7.558684e+002, 1.100370e+003
7.563505e+002, 1.103493e+003
7.568326e+002, 1.106532e+003
7.573148e+002, 1.108645e+003
7.577969e+002, 1.109497e+003
7.582790e+002, 1.111089e+003
7.587611e+002, 1.113693e+003
7.592432e+002, 1.116596e+003
7.597253e+002, 1.119532e+003
7.602075e+002, 1.122519e+003
7.606896e+002, 1.124392e+003
7.611717e+002, 1.125014e+003
7.616538e+002, 1.126024e+003
7.621359e+002, 1.129447e+003
7.626180e+002, 1.134029e+003
7.631002e+002, 1.137694e+003
7.635823e+002, 1.140133e+003
7.640644e+002, 1.142387e+003
7.645465e+002, 1.144393e+003
7.650286e+002, 1.146907e+003
7.655107e+002, 1.150581e+003
7.659929e+002, 1.155910e+003
7.664750e+002, 1.161552e+003
7.669571e+002, 1.168184e+003
7.674392e+002, 1.174323e+003
7.679213e+002, 1.178059e+003
7.684034e+002, 1.179325e+003
7.688856e+002, 1.182535e+003
7.693677e+002, 1.188197e+003
7.698498e+002, 1.194630e+003
7.703319e+002, 1.199951e+003
7.708140e+002, 1.204853e+003
7.712961e+002, 1.210562e+003
7.717783e+002, 1.217316e+003
7.722604e+002, 1.224941e+003
7.727425e+002, 1.234106e+003
7.732246e+002, 1.243693e+003
7.737067e+002, 1.252620e+003
7.741888e+002, 1.259504e+003
7.746710e+002, 1.267816e+003
7.751531e+002, 1.277806e+003
7.756352e+002, 1.288967e+003
7.761173e+002, 1.301112e+003
7.765994e+002, 1.314202e+003
7.770815e+002, 1.326255e+003
7.775637e+002, 1.336707e+003
7.780458e+002, 1.347433e+003
7.785279e+002, 1.361534e+003
7.790100e+002, 1.377343e+003
7.794921e+002, 1.391759e+003
7.799742e+002, 1.402958e+003
7.804564e+002, 1.414265e+003
7.809385e+002, 1.427276e+003
7.814206e+002, 1.441281e+003
7.819027e+002, 1.455395e+003
7.823848e+002, 1.469367e+003
7.828669e+002, 1.483507e+003
7.833491e+002, 1.497949e+003
7.838312e+002, 1.512442e+003
7.843133e+002, 1.526651e+003
7.847954e+002, 1.540475e+003
7.852775e+002, 1.553359e+003
7.857596e+002, 1.565128e+003
7.862418e+002, 1.575632e+003
7.867239e+002, 1.583766e+003
7.872060e+002, 1.590594e+003
7.876881e+002, 1.598351e+003
7.881702e+002, 1.609563e+003
7.886523e+002, 1.619178e+003
7.891345e+002, 1.624583e+003
7.896166e+002, 1.627483e+003
7.900987e+002, 1.630986e+003
7.905808e+002, 1.635521e+003
7.910629e+002, 1.639926e+003
7.915450e+002, 1.644202e+003
7.920272e+002, 1.648095e+003
7.925093e+002, 1.650250e+003
7.929914e+002, 1.651089e+003
7.934735e+002, 1.653958e+003
7.939556e+002, 1.660893e+003
7.944377e+002, 1.668109e+003
7.949199e+002, 1.670864e+003
7.954020e+002, 1.671023e+003
7.958841e+002, 1.671885e+003
7.963662e+002, 1.674145e+003
7.968483e+002, 1.677678e+003
7.973304e+002, 1.683715e+003
7.978126e+002, 1.690559e+003
7.982947e+002, 1.695206e+003
7.987768e+002, 1.697137e+003
7.992589e+002, 1.698243e+003
7.997410e+002, 1.698588e+003
8.002231e+002, 1.698728e+003
8.007053e+002, 1.698692e+003
8.011874e+002, 1.699138e+003
8.016695e+002, 1.703077e+003
8.021516e+002, 1.713149e+003
8.026337e+002, 1.724515e+003
8.031158e+002, 1.733243e+003
8.035980e+002, 1.740353e+003
8.040801e+002, 1.747858e+003
8.045622e+002, 1.753519e+003
8.050443e+002, 1.763242e+003
8.055264e+002, 1.778140e+003
8.060085e+002, 1.797294e+003
8.064907e+002, 1.818996e+003
8.069728e+002, 1.843189e+003
8.074549e+002, 1.870750e+003
8.079370e+002, 1.901972e+003
8.084191e+002, 1.936723e+003
8.089012e+002, 1.973468e+003
8.093834e+002, 2.013500e+003
8.098655e+002, 2.060490e+003
8.103476e+002, 2.117218e+003
8.108297e+002, 2.179340e+003
8.113118e+002, 2.242405e+003
8.117939e+002, 2.309098e+003
8.122761e+002, 2.383674e+003
8.127582e+002, 2.466153e+003
8.132403e+002, 2.557498e+003
8.137224e+002, 2.657798e+003
8.142045e+002, 2.767103e+003
8.146866e+002, 2.884897e+003
8.151688e+002, 3.009460e+003
8.156509e+002, 3.148967e+003
8.161330e+002, 3.304778e+003
8.166151e+002, 3.477374e+003
8.170972e+002, 3.664464e+003
8.175793e+002, 3.868751e+003
8.180615e+002, 4.099521e+003
8.185436e+002, 4.356861e+003
8.190257e+002, 4.642321e+003
8.195078e+002, 4.946713e+003
8.199899e+002, 5.282271e+003
8.204720e+002, 5.662528e+003
8.209542e+002, 6.085728e+003
8.214363e+002, 6.548780e+003
8.219184e+002, 7.054759e+003
8.224005e+002, 7.597661e+003
8.228826e+002, 8.179907e+003
8.233647e+002, 8.798268e+003
8.238469e+002, 9.424340e+003
8.243290e+002, 1.007946e+004
8.248111e+002, 1.067847e+004
8.252932e+002, 1.119089e+004
8.257753e+002, 1.159766e+004
8.262574e+002, 1.186185e+004
8.267396e+002, 1.196604e+004
8.272217e+002, 1.194297e+004
8.277038e+002, 1.177144e+004
8.281859e+002, 1.150621e+004
8.286681e+002, 1.119406e+004
8.291502e+002, 1.083073e+004
8.296323e+002, 1.047360e+004
8.301144e+002, 1.012555e+004
8.305966e+002, 9.805589e+003
8.310787e+002, 9.520588e+003
8.315608e+002, 9.276908e+003
8.320429e+002, 9.082470e+003
8.325250e+002, 8.944541e+003
8.330071e+002, 8.844303e+003
8.334893e+002, 8.772244e+003
8.339714e+002, 8.732129e+003
8.344535e+002, 8.728829e+003
8.349356e+002, 8.766137e+003
8.354177e+002, 8.826674e+003
8.358998e+002, 8.910391e+003
8.363820e+002, 9.017079e+003
8.368641e+002, 9.152742e+003
8.373462e+002, 9.314240e+003
8.378283e+002, 9.485691e+003
8.383104e+002, 9.665115e+003
8.387925e+002, 9.843841e+003
8.392747e+002, 1.002484e+004
8.397568e+002, 1.019704e+004
8.402389e+002, 1.035138e+004
8.407210e+002, 1.048984e+004
8.412031e+002, 1.059669e+004
8.416852e+002, 1.067385e+004
8.421674e+002, 1.071146e+004
8.426495e+002, 1.070283e+004
8.431316e+002, 1.064802e+004
8.436137e+002, 1.054288e+004
8.440958e+002, 1.038517e+004
8.445779e+002, 1.018335e+004
8.450601e+002, 9.931490e+003
8.455422e+002, 9.645811e+003
8.460243e+002, 9.347400e+003
8.465064e+002, 9.037240e+003
8.469885e+002, 8.725789e+003
8.474706e+002, 8.407697e+003
8.479528e+002, 8.095734e+003
8.484349e+002, 7.798030e+003
8.489170e+002, 7.513680e+003
8.493991e+002, 7.243474e+003
8.498812e+002, 6.985257e+003
8.503633e+002, 6.742428e+003
8.508455e+002, 6.516005e+003
8.513276e+002, 6.305549e+003
8.518097e+002, 6.115317e+003
8.522918e+002, 5.943535e+003
8.527739e+002, 5.790024e+003
8.532560e+002, 5.657602e+003
8.537382e+002, 5.538655e+003
8.542203e+002, 5.423404e+003
8.547024e+002, 5.312436e+003
8.551845e+002, 5.218396e+003
8.556666e+002, 5.150081e+003
8.561487e+002, 5.092931e+003
8.566309e+002, 5.043163e+003
8.571130e+002, 5.001535e+003
8.575951e+002, 4.967203e+003
8.580772e+002, 4.940114e+003
8.585593e+002, 4.922180e+003
8.590414e+002, 4.915959e+003
8.595236e+002, 4.918095e+003
8.600057e+002, 4.925010e+003
8.604878e+002, 4.936416e+003
8.609699e+002, 4.951156e+003
8.614520e+002, 4.968142e+003
8.619341e+002, 4.989239e+003
8.624163e+002, 5.016710e+003
8.628984e+002, 5.048859e+003
8.633805e+002, 5.082103e+003
8.638626e+002, 5.118104e+003
8.643447e+002, 5.149950e+003
8.648268e+002, 5.176028e+003
8.653090e+002, 5.197069e+003
8.657911e+002, 5.215588e+003
8.662732e+002, 5.229926e+003
8.667553e+002, 5.234977e+003
8.672374e+002, 5.229652e+003
8.677195e+002, 5.213306e+003
8.682017e+002, 5.187208e+003
8.686838e+002, 5.149524e+003
8.691659e+002, 5.096923e+003
8.696480e+002, 5.029679e+003
8.701301e+002, 4.948759e+003
8.706122e+002, 4.853049e+003
8.710944e+002, 4.746511e+003
8.715765e+002, 4.633339e+003
8.720586e+002, 4.513971e+003
8.725407e+002, 4.390030e+003
8.730228e+002, 4.261240e+003
8.735049e+002, 4.131485e+003
8.739871e+002, 3.999361e+003
8.744692e+002, 3.869081e+003
8.749513e+002, 3.745061e+003
8.754334e+002, 3.629775e+003
8.759155e+002, 3.516077e+003
8.763976e+002, 3.399815e+003
8.768798e+002, 3.288121e+003
8.773619e+002, 3.185807e+003
8.778440e+002, 3.093492e+003
8.783261e+002, 3.003766e+003
8.788082e+002, 2.915826e+003
8.792903e+002, 2.833555e+003
8.797725e+002, 2.759718e+003
8.802546e+002, 2.692583e+003
8.807367e+002, 2.629687e+003
8.812188e+002, 2.570768e+003
8.817009e+002, 2.518448e+003
8.821830e+002, 2.475773e+003
8.826652e+002, 2.438001e+003
8.831473e+002, 2.402581e+003
8.836294e+002, 2.369503e+003
8.841115e+002, 2.344273e+003
8.845936e+002, 2.327613e+003
8.850757e+002, 2.313177e+003
8.855579e+002, 2.295959e+003
8.860400e+002, 2.278955e+003
8.865221e+002, 2.270615e+003
8.870042e+002, 2.268329e+003
8.874863e+002, 2.260926e+003
8.879684e+002, 2.243961e+003
8.884506e+002, 2.219789e+003
8.889327e+002, 2.187444e+003
8.894148e+002, 2.148412e+003
8.898969e+002, 2.107369e+003
8.903790e+002, 2.065337e+003
8.908611e+002, 2.018016e+003
8.913433e+002, 1.962068e+003
8.918254e+002, 1.902990e+003
8.923075e+002, 1.849089e+003
8.927896e+002, 1.799627e+003
8.932717e+002, 1.753242e+003
8.937538e+002, 1.708074e+003
8.942360e+002, 1.666993e+003
8.947181e+002, 1.634141e+003
8.952002e+002, 1.606187e+003
8.956823e+002, 1.578586e+003
8.961644e+002, 1.550468e+003
8.966465e+002, 1.524272e+003
8.971287e+002, 1.500062e+003
8.976108e+002, 1.478444e+003
8.980929e+002, 1.461687e+003
8.985750e+002, 1.448591e+003
8.990571e+002, 1.434192e+003
8.995392e+002, 1.417271e+003
9.000214e+002, 1.401990e+003
9.005035e+002, 1.393318e+003
9.009856e+002, 1.386238e+003
9.014677e+002, 1.375580e+003
9.019498e+002, 1.358852e+003
9.024319e+002, 1.346231e+003
9.029141e+002, 1.339274e+003
9.033962e+002, 1.333573e+003
9.038783e+002, 1.326594e+003
9.043604e+002, 1.318404e+003
9.048425e+002, 1.308432e+003
9.053246e+002, 1.296786e+003
9.058068e+002, 1.287367e+003
9.062889e+002, 1.284914e+003
9.067710e+002, 1.283868e+003
9.072531e+002, 1.279583e+003
9.077352e+002, 1.272335e+003
9.082173e+002, 1.265921e+003
9.086995e+002, 1.261969e+003
9.091816e+002, 1.257077e+003
9.096637e+002, 1.249819e+003
9.101458e+002, 1.241386e+003
9.106279e+002, 1.235845e+003
9.111100e+002, 1.232902e+003
9.115922e+002, 1.229817e+003
9.120743e+002, 1.225156e+003
9.125564e+002, 1.220427e+003
9.130385e+002, 1.216821e+003
9.135206e+002, 1.214209e+003
9.140027e+002, 1.212301e+003
9.144849e+002, 1.212379e+003
9.149670e+002, 1.211206e+003
9.154491e+002, 1.208067e+003
9.159312e+002, 1.204135e+003
9.164133e+002, 1.201035e+003
9.168954e+002, 1.198669e+003
9.173776e+002, 1.195222e+003
9.178597e+002, 1.190196e+003
9.183418e+002, 1.185947e+003
9.188239e+002, 1.185493e+003
9.193060e+002, 1.186561e+003
9.197881e+002, 1.186898e+003
9.202703e+002, 1.186266e+003
9.207524e+002, 1.184109e+003
9.212345e+002, 1.179083e+003
9.217166e+002, 1.174248e+003
9.221987e+002, 1.171389e+003
9.226808e+002, 1.170404e+003
9.231630e+002, 1.169234e+003
9.236451e+002, 1.167890e+003
9.241272e+002, 1.166693e+003
9.246093e+002, 1.166524e+003
9.250914e+002, 1.166135e+003
9.255735e+002, 1.163170e+003
9.260557e+002, 1.158557e+003
9.265378e+002, 1.156470e+003
9.270199e+002, 1.161095e+003
9.275020e+002, 1.164566e+003
9.279841e+002, 1.164851e+003
9.284662e+002, 1.163106e+003
9.289484e+002, 1.162181e+003
9.294305e+002, 1.162024e+003
9.299126e+002, 1.162131e+003
9.303947e+002, 1.162437e+003
9.308768e+002, 1.162688e+003
9.313589e+002, 1.162808e+003
9.318411e+002, 1.162622e+003
9.323232e+002, 1.161886e+003
9.328053e+002, 1.160577e+003
9.332874e+002, 1.158524e+003
9.337695e+002, 1.154933e+003
9.342516e+002, 1.151627e+003
9.347338e+002, 1.151080e+003
9.352159e+002, 1.153138e+003
9.356980e+002, 1.152513e+003
9.361801e+002, 1.148786e+003
9.366622e+002, 1.144802e+003
9.371443e+002, 1.143151e+003
9.376265e+002, 1.142295e+003
9.381086e+002, 1.140326e+003
9.385907e+002, 1.137023e+003
9.390728e+002, 1.135608e+003
9.395549e+002, 1.137676e+003
9.400370e+002, 1.140040e+003
9.405192e+002, 1.141667e+003
9.410013e+002, 1.142592e+003
9.414834e+002, 1.142851e+003
9.419655e+002, 1.142502e+003
9.424476e+002, 1.142184e+003
9.429297e+002, 1.142481e+003
9.434119e+002, 1.142666e+003
9.438940e+002, 1.142138e+003
9.443761e+002, 1.141051e+003
9.448582e+002, 1.139699e+003
9.453403e+002, 1.138287e+003
9.458224e+002, 1.136336e+003
9.463046e+002, 1.133366e+003
9.467867e+002, 1.130462e+003
9.472688e+002, 1.129237e+003
9.477509e+002, 1.129513e+003
9.482330e+002, 1.130450e+003
9.487151e+002, 1.131996e+003
9.491973e+002, 1.133511e+003
9.496794e+002, 1.133976e+003
9.501615e+002, 1.134467e+003
9.506436e+002, 1.136242e+003
9.511257e+002, 1.139953e+003
9.516078e+002, 1.142175e+003
9.520900e+002, 1.142395e+003
9.525721e+002, 1.142066e+003
9.530542e+002, 1.141807e+003
9.535363e+002, 1.141692e+003
9.540184e+002, 1.142230e+003
9.545005e+002, 1.143301e+003
9.549827e+002, 1.144122e+003
9.554648e+002, 1.143564e+003
9.559469e+002, 1.143322e+003
9.564290e+002, 1.145094e+003
9.569111e+002, 1.148009e+003
9.573932e+002, 1.149178e+003
9.578754e+002, 1.147400e+003
9.583575e+002, 1.146851e+003
9.588396e+002, 1.148423e+003
9.593217e+002, 1.151135e+003
9.598038e+002, 1.153803e+003
9.602859e+002, 1.156298e+003
9.607681e+002, 1.158085e+003
9.612502e+002, 1.158750e+003
9.617323e+002, 1.159866e+003
9.622144e+002, 1.162445e+003
9.626965e+002, 1.165743e+003
9.631786e+002, 1.169557e+003
9.636608e+002, 1.174390e+003
9.641429e+002, 1.175845e+003
9.646250e+002, 1.173027e+003
9.651071e+002, 1.170941e+003
9.655892e+002, 1.174055e+003
9.660714e+002, 1.179927e+003
9.665535e+002, 1.184291e+003
9.670356e+002, 1.187174e+003
9.675177e+002, 1.189343e+003
9.679998e+002, 1.190597e+003
9.684819e+002, 1.191769e+003
9.689641e+002, 1.192608e+003
9.694462e+002, 1.193752e+003
9.699283e+002, 1.197463e+003
9.704104e+002, 1.204153e+003
9.708925e+002, 1.208535e+003
9.713746e+002, 1.208926e+003
9.718568e+002, 1.208090e+003
9.723389e+002, 1.209369e+003
9.728210e+002, 1.211756e+003
9.733031e+002, 1.213804e+003
9.737852e+002, 1.215320e+003
9.742673e+002, 1.216048e+003
9.747495e+002, 1.215009e+003
9.752316e+002, 1.214211e+003
9.757137e+002, 1.215410e+003
9.761958e+002, 1.218603e+003
9.766779e+002, 1.219719e+003
9.771600e+002, 1.218757e+003
9.776422e+002, 1.217103e+003
9.781243e+002, 1.215810e+003
9.786064e+002, 1.214129e+003
9.790885e+002, 1.210971e+003
9.795706e+002, 1.206717e+003
9.800527e+002, 1.203221e+003
9.805349e+002, 1.202113e+003
9.810170e+002, 1.199353e+003
9.814991e+002, 1.193435e+003
9.819812e+002, 1.186355e+003
9.824633e+002, 1.182632e+003
9.829454e+002, 1.181344e+003
9.834276e+002, 1.178524e+003
9.839097e+002, 1.172781e+003
9.843918e+002, 1.166594e+003
9.848739e+002, 1.161665e+003
9.853560e+002, 1.157037e+003
9.858381e+002, 1.151548e+003
9.863203e+002, 1.144559e+003
9.868024e+002, 1.139425e+003
9.872845e+002, 1.136620e+003
9.877666e+002, 1.134059e+003
9.882487e+002, 1.130056e+003
9.887308e+002, 1.125316e+003
9.892130e+002, 1.121423e+003
9.896951e+002, 1.118258e+003
9.901772e+002, 1.114953e+003
9.906593e+002, 1.109843e+003
9.911414e+002, 1.105942e+003
9.916235e+002, 1.105173e+003
9.921057e+002, 1.106115e+003
9.925878e+002, 1.106036e+003
9.930699e+002, 1.104911e+003
9.935520e+002, 1.102574e+003
9.940341e+002, 1.098586e+003
9.945162e+002, 1.094839e+003
9.949984e+002, 1.094581e+003
9.954805e+002, 1.095455e+003
9.959626e+002, 1.093949e+003
9.964447e+002, 1.088548e+003
9.969268e+002, 1.084373e+003
9.974089e+002, 1.082688e+003
9.978911e+002, 1.081721e+003
9.983732e+002, 1.080559e+003
9.988553e+002, 1.079280e+003
9.993374e+002, 1.078312e+003
9.998195e+002, 1.077672e+003
1.000302e+003, 1.077414e+003
1.000784e+003, 1.078400e+003
1.001266e+003, 1.078988e+003
1.001748e+003, 1.077837e+003
1.002230e+003, 1.075431e+003
1.002712e+003, 1.072979e+003
1.003194e+003, 1.070085e+003
1.003676e+003, 1.068414e+003
1.004159e+003, 1.068315e+003
1.004641e+003, 1.069094e+003
1.005123e+003, 1.070543e+003
1.005605e+003, 1.072003e+003
1.006087e+003, 1.071595e+003
1.006569e+003, 1.068789e+003
1.007051e+003, 1.066416e+003
1.007533e+003, 1.065784e+003
1.008016e+003, 1.066031e+003
1.008498e+003, 1.066928e+003
1.008980e+003, 1.068366e+003
1.009462e+003, 1.068553e+003
1.009944e+003, 1.067434e+003
1.010426e+003, 1.065923e+003
1.010908e+003, 1.064403e+003
1.011390e+003, 1.062833e+003
1.011872e+003, 1.060975e+003
1.012355e+003, 1.059068e+003
1.012837e+003, 1.057575e+003
1.013319e+003, 1.056557e+003
1.013801e+003, 1.056199e+003
1.014283e+003, 1.057049e+003
1.014765e+003, 1.057794e+003
1.015247e+003, 1.056292e+003
1.015729e+003, 1.053207e+003
1.016211e+003, 1.052745e+003
1.016694e+003, 1.055222e+003
1.017176e+003, 1.057617e+003
1.017658e+003, 1.057975e+003
1.018140e+003, 1.057401e+003
1.018622e+003, 1.056252e+003
1.019104e+003, 1.054709e+003
1.019586e+003, 1.054116e+003
1.020068e+003, 1.054875e+003
1.020551e+003, 1.054730e+003
1.021033e+003, 1.052495e+003
1.021515e+003, 1.049842e+003
1.021997e+003, 1.049527e+003
1.022479e+003, 1.050825e+003
1.022961e+003, 1.052520e+003
1.023443e+003, 1.054972e+003
1.023925e+003, 1.056188e+003
1.024407e+003, 1.054616e+003
1.024890e+003, 1.052694e+003
1.025372e+003, 1.052211e+003
1.025854e+003, 1.053165e+003
1.026336e+003, 1.054217e+003
1.026818e+003, 1.055339e+003
1.027300e+003, 1.055477e+003
1.027782e+003, 1.052900e+003
1.028264e+003, 1.049966e+003
1.028746e+003, 1.048397e+003
1.029229e+003, 1.048091e+003
1.029711e+003, 1.048375e+003
1.030193e+003, 1.049475e+003
1.030675e+003, 1.050314e+003
1.031157e+003, 1.050512e+003
1.031639e+003, 1.050834e+003
1.032121e+003, 1.052934e+003
1.032603e+003, 1.055922e+003
1.033086e+003, 1.057659e+003
1.033568e+003, 1.057700e+003
1.034050e+003, 1.057277e+003
1.034532e+003, 1.056747e+003
1.035014e+003, 1.056035e+003
1.035496e+003, 1.054941e+003
1.035978e+003, 1.053563e+003
1.036460e+003, 1.053323e+003
1.036943e+003, 1.054191e+003
1.037425e+003, 1.054091e+003
1.037907e+003, 1.051347e+003
1.038389e+003, 1.048073e+003
1.038871e+003, 1.045551e+003
1.039353e+003, 1.044150e+003
1.039835e+003, 1.044690e+003
1.040317e+003, 1.049191e+003
1.040799e+003, 1.052081e+003
1.041281e+003, 1.053042e+003
1.041764e+003, 1.052848e+003
1.042246e+003, 1.051651e+003
1.042728e+003, 1.050013e+003
1.043210e+003, 1.049753e+003
1.043692e+003, 1.050830e+003
1.044174e+003, 1.051470e+003
1.044656e+003, 1.050421e+003
1.045138e+003, 1.049116e+003
1.045621e+003, 1.048085e+003
1.046103e+003, 1.047285e+003
1.046585e+003, 1.046369e+003
1.047067e+003, 1.045329e+003
1.047549e+003, 1.045647e+003
1.048031e+003, 1.048090e+003
1.048513e+003, 1.050600e+003
1.048995e+003, 1.050995e+003
1.049478e+003, 1.050330e+003
1.049960e+003, 1.049736e+003
1.050442e+003, 1.049403e+003
1.050924e+003, 1.049131e+003
1.051406e+003, 1.048877e+003
1.051888e+003, 1.048746e+003
1.052370e+003, 1.048515e+003
1.052852e+003, 1.048565e+003
1.053334e+003, 1.050684e+003
1.053817e+003, 1.054059e+003
1.054299e+003, 1.056033e+003
1.054781e+003, 1.053367e+003
1.055263e+003, 1.051625e+003
1.055745e+003, 1.053385e+003
1.056227e+003, 1.056164e+003
1.056709e+003, 1.057337e+003
1.057191e+003, 1.056887e+003
1.057673e+003, 1.055129e+003
1.058156e+003, 1.051988e+003
1.058638e+003, 1.049547e+003
1.059120e+003, 1.050129e+003
1.059602e+003, 1.051609e+003
1.060084e+003, 1.052034e+003
1.060566e+003, 1.051529e+003
1.061048e+003, 1.052401e+003
1.061530e+003, 1.055741e+003
1.062013e+003, 1.057410e+003
1.062495e+003, 1.055898e+003
1.062977e+003, 1.053163e+003
1.063459e+003, 1.051826e+003
1.063941e+003, 1.051766e+003
1.064423e+003, 1.053214e+003
1.064905e+003, 1.057188e+003
1.065387e+003, 1.058910e+003
1.065870e+003, 1.054046e+003
1.066352e+003, 1.049503e+003
1.066834e+003, 1.049191e+003
1.067316e+003, 1.052406e+003
1.067798e+003, 1.053590e+003
1.068280e+003, 1.052980e+003
1.068762e+003, 1.052746e+003
1.069244e+003, 1.055085e+003
1.069726e+003, 1.056997e+003
1.070208e+003, 1.055765e+003
1.070691e+003, 1.053114e+003
1.071173e+003, 1.051830e+003
1.071655e+003, 1.052184e+003
1.072137e+003, 1.053295e+003
1.072619e+003, 1.055318e+003
1.073101e+003, 1.057125e+003
1.073583e+003, 1.058229e+003
1.074065e+003, 1.058174e+003
1.074548e+003, 1.055057e+003
1.075030e+003, 1.049560e+003
1.075512e+003, 1.047041e+003
1.075994e+003, 1.051248e+003
1.076476e+003, 1.054949e+003
1.076958e+003, 1.056672e+003
1.077440e+003, 1.057120e+003
1.077922e+003, 1.057888e+003
1.078405e+003, 1.058486e+003
1.078887e+003, 1.056566e+003
1.079369e+003, 1.050925e+003
1.079851e+003, 1.047415e+003
1.080333e+003, 1.051560e+003
1.080815e+003, 1.056683e+003
1.081297e+003, 1.058389e+003
1.081779e+003, 1.057061e+003
1.082261e+003, 1.056882e+003
1.082744e+003, 1.057831e+003
1.083226e+003, 1.058201e+003
1.083708e+003, 1.056799e+003
1.084190e+003, 1.055168e+003
1.084672e+003, 1.054361e+003
1.085154e+003, 1.054389e+003
1.085636e+003, 1.055484e+003
1.086118e+003, 1.059108e+003
1.086601e+003, 1.059784e+003
1.087083e+003, 1.056686e+003
1.087565e+003, 1.053621e+003
1.088047e+003, 1.054492e+003
1.088529e+003, 1.057001e+003
1.089011e+003, 1.056678e+003
1.089493e+003, 1.054197e+003
1.089975e+003, 1.052660e+003
1.090458e+003, 1.054211e+003
1.090940e+003, 1.055569e+003
1.091422e+003, 1.056304e+003
1.091904e+003, 1.056380e+003
1.092386e+003, 1.055127e+003
1.092868e+003, 1.053071e+003
1.093350e+003, 1.052859e+003
1.093832e+003, 1.054870e+003
1.094314e+003, 1.056736e+003
1.094797e+003, 1.056741e+003
1.095279e+003, 1.056383e+003
1.095761e+003, 1.056354e+003
1.096243e+003, 1.056688e+003
1.096725e+003, 1.057839e+003
1.097207e+003, 1.059835e+003
1.097689e+003, 1.060803e+003
1.098171e+003, 1.059872e+003
1.098653e+003, 1.058589e+003
1.099136e+003, 1.058330e+003
1.099618e+003, 1.058664e+003
1.100100e+003, 1.059218e+003
1.100582e+003, 1.060085e+003
1.101064e+003, 1.060247e+003
1.101546e+003, 1.059461e+003
1.102028e+003, 1.058773e+003
1.102510e+003, 1.058500e+003
1.102993e+003, 1.058879e+003
1.103475e+003, 1.061484e+003
1.103957e+003, 1.064946e+003
1.104439e+003, 1.066137e+003
1.104921e+003, 1.062209e+003
1.105403e+003, 1.058308e+003
1.105885e+003, 1.054198e+003
1.106367e+003, 1.051434e+003
1.106849e+003, 1.052686e+003
1.107332e+003, 1.056597e+003
1.107814e+003, 1.057210e+003
1.108296e+003, 1.054767e+003
1.108778e+003, 1.052750e+003
1.109260e+003, 1.053544e+003
1.109742e+003, 1.054571e+003
1.110224e+003, 1.055144e+003
1.110706e+003, 1.055110e+003
1.111188e+003, 1.053597e+003
1.111671e+003, 1.050712e+003
1.112153e+003, 1.050339e+003
1.112635e+003, 1.053229e+003
1.113117e+003, 1.056059e+003
1.113599e+003, 1.055636e+003
1.114081e+003, 1.054463e+003
1.114563e+003, 1.054900e+003
1.115045e+003, 1.056667e+003
1.115528e+003, 1.056172e+003
1.116010e+003, 1.052614e+003
1.116492e+003, 1.051939e+003
1.116974e+003, 1.056710e+003
1.117456e+003, 1.062760e+003
1.117938e+003, 1.064994e+003
1.118420e+003, 1.065216e+003
1.118902e+003, 1.065703e+003
1.119385e+003, 1.066890e+003
1.119867e+003, 1.068115e+003
1.120349e+003, 1.069700e+003
1.120831e+003, 1.070234e+003
1.121313e+003, 1.068292e+003
1.121795e+003, 1.065405e+003
1.122277e+003, 1.065241e+003
1.122759e+003, 1.066746e+003
1.123241e+003, 1.067394e+003
1.123724e+003, 1.065655e+003
1.124206e+003, 1.064225e+003
1.124688e+003, 1.064030e+003
1.125170e+003, 1.063621e+003
1.125652e+003, 1.061104e+003
1.126134e+003, 1.057297e+003
1.126616e+003, 1.056907e+003
1.127098e+003, 1.059460e+003
1.127580e+003, 1.061648e+003
1.128063e+003, 1.061758e+003
1.128545e+003, 1.061089e+003
1.129027e+003, 1.059276e+003
1.129509e+003, 1.057581e+003
1.129991e+003, 1.057934e+003
1.130473e+003, 1.060260e+003
1.130955e+003, 1.062308e+003
1.131437e+003, 1.063873e+003
1.131920e+003, 1.064896e+003
1.132402e+003, 1.064931e+003
1.132884e+003, 1.064761e+003
1.133366e+003, 1.064650e+003
1.133848e+003, 1.064790e+003
1.134330e+003, 1.066052e+003
1.134812e+003, 1.068695e+003
1.135294e+003, 1.070108e+003
1.135776e+003, 1.069522e+003
1.136259e+003, 1.068701e+003
1.136741e+003, 1.069380e+003
1.137223e+003, 1.070826e+003
1.137705e+003, 1.072627e+003
1.138187e+003, 1.074732e+003
1.138669e+003, 1.075475e+003
1.139151e+003, 1.074474e+003
1.139633e+003, 1.073402e+003
1.140115e+003, 1.072760e+003
1.140598e+003, 1.072470e+003
1.141080e+003, 1.072337e+003
1.141562e+003, 1.072507e+003
1.142044e+003, 1.073519e+003
1.142526e+003, 1.076312e+003
1.143008e+003, 1.076558e+003
1.143490e+003, 1.072452e+003
1.143972e+003, 1.069355e+003
1.144455e+003, 1.070939e+003
1.144937e+003, 1.074943e+003
1.145419e+003, 1.075795e+003
1.145901e+003, 1.074630e+003
1.146383e+003, 1.074465e+003
1.146865e+003, 1.078541e+003
1.147347e+003, 1.079849e+003
1.147829e+003, 1.075410e+003
1.148312e+003, 1.070974e+003
1.148794e+003, 1.072210e+003
1.149276e+003, 1.077491e+003
1.149758e+003, 1.078284e+003
1.150240e+003, 1.075334e+003
1.150722e+003, 1.072905e+003
1.151204e+003, 1.073562e+003
1.151686e+003, 1.074579e+003
1.152168e+003, 1.074916e+003
1.152651e+003, 1.075296e+003
1.153133e+003, 1.077088e+003
1.153615e+003, 1.079991e+003
1.154097e+003, 1.080325e+003
1.154579e+003, 1.077972e+003
1.155061e+003, 1.076215e+003
1.155543e+003, 1.078596e+003
1.156025e+003, 1.080671e+003
1.156507e+003, 1.078986e+003
1.156990e+003, 1.075641e+003
1.157472e+003, 1.074530e+003
1.157954e+003, 1.075663e+003
1.158436e+003, 1.077687e+003
1.158918e+003, 1.080487e+003
1.159400e+003, 1.083244e+003
1.159882e+003, 1.086131e+003
1.160364e+003, 1.087992e+003
1.160847e+003, 1.087385e+003
1.161329e+003, 1.084830e+003
1.161811e+003, 1.082781e+003
1.162293e+003, 1.081248e+003
1.162775e+003, 1.080448e+003
1.163257e+003, 1.080616e+003
1.163739e+003, 1.080814e+003
1.164221e+003, 1.079537e+003
1.164703e+003, 1.078191e+003
1.165186e+003, 1.078554e+003
1.165668e+003, 1.080862e+003
1.166150e+003, 1.081821e+003
1.166632e+003, 1.081236e+003
1.167114e+003, 1.080348e+003
1.167596e+003, 1.079167e+003
1.168078e+003, 1.078841e+003
1.168560e+003, 1.082245e+003
1.169042e+003, 1.086766e+003
1.169525e+003, 1.088538e+003
1.170007e+003, 1.085857e+003
1.170489e+003, 1.084845e+003
1.170971e+003, 1.085871e+003
1.171453e+003, 1.087157e+003
1.171935e+003, 1.087482e+003
1.172417e+003, 1.087863e+003
1.172899e+003, 1.090689e+003
1.173382e+003, 1.094513e+003
1.173864e+003, 1.096622e+003
1.174346e+003, 1.095229e+003
1.174828e+003, 1.094166e+003
1.175310e+003, 1.093463e+003
1.175792e+003, 1.093064e+003
1.176274e+003, 1.093051e+003
1.176756e+003, 1.093237e+003
1.177239e+003, 1.092842e+003
1.177721e+003, 1.092372e+003
1.178203e+003, 1.093140e+003
1.178685e+003, 1.097733e+003
1.179167e+003, 1.100234e+003
1.179649e+003, 1.099934e+003
1.180131e+003, 1.098459e+003
1.180613e+003, 1.096996e+003
1.181095e+003, 1.095612e+003
1.181578e+003, 1.094295e+003
1.182060e+003, 1.093147e+003
1.182542e+003, 1.092586e+003
1.183024e+003, 1.093030e+003
1.183506e+003, 1.093779e+003
1.183988e+003, 1.094801e+003
1.184470e+003, 1.095947e+003
1.184952e+003, 1.097093e+003
1.185434e+003, 1.098201e+003
1.185917e+003, 1.099328e+003
1.186399e+003, 1.100398e+003
1.186881e+003, 1.100932e+003
1.187363e+003, 1.099948e+003
1.187845e+003, 1.099435e+003
1.188327e+003, 1.100019e+003
1.188809e+003, 1.100922e+003
1.189291e+003, 1.100553e+003
1.189774e+003, 1.099564e+003
1.190256e+003, 1.100300e+003
1.190738e+003, 1.102989e+003
1.191220e+003, 1.105161e+003
1.191702e+003, 1.105201e+003
1.192184e+003, 1.105229e+003
1.192666e+003, 1.105932e+003
1.193148e+003, 1.106995e+003
1.193630e+003, 1.108162e+003
1.194113e+003, 1.109160e+003
1.194595e+003, 1.108681e+003
1.195077e+003, 1.106367e+003
1.195559e+003, 1.104670e+003
1.196041e+003, 1.105672e+003
1.196523e+003, 1.106424e+003
1.197005e+003, 1.105567e+003
1.197487e+003, 1.103886e+003
1.197969e+003, 1.103510e+003
1.198452e+003, 1.104154e+003
1.198934e+003, 1.104758e+003
1.199416e+003, 1.105016e+003
1.199898e+003, 1.105396e+003
1.200380e+003, 1.106386e+003
1.200862e+003, 1.107212e+003
1.201344e+003, 1.107588e+003
1.201826e+003, 1.107469e+003
1.202309e+003, 1.106157e+003
1.202791e+003, 1.104126e+003
1.203273e+003, 1.103579e+003
1.203755e+003, 1.105922e+003
1.204237e+003, 1.107436e+003
1.204719e+003, 1.104997e+003
1.205201e+003, 1.102800e+003
1.205683e+003, 1.103727e+003
1.206166e+003, 1.106726e+003
1.206648e+003, 1.106267e+003
1.207130e+003, 1.103277e+003
1.207612e+003, 1.101703e+003
1.208094e+003, 1.103503e+003
1.208576e+003, 1.105827e+003
1.209058e+003, 1.108170e+003
1.209540e+003, 1.109918e+003
1.210022e+003, 1.110472e+003
1.210505e+003, 1.110046e+003
1.210987e+003, 1.110013e+003
1.211469e+003, 1.110274e+003
1.211951e+003, 1.110399e+003
1.212433e+003, 1.110302e+003
1.212915e+003, 1.109850e+003
1.213397e+003, 1.108425e+003
1.213879e+003, 1.107176e+003
1.214361e+003, 1.106918e+003
1.214844e+003, 1.107591e+003
1.215326e+003, 1.109377e+003
1.215808e+003, 1.111906e+003
1.216290e+003, 1.113365e+003
1.216772e+003, 1.111040e+003
1.217254e+003, 1.109973e+003
1.217736e+003, 1.113118e+003
1.218218e+003, 1.116547e+003
1.218701e+003, 1.116359e+003
1.219183e+003, 1.113307e+003
1.219665e+003, 1.113065e+003
1.220147e+003, 1.115073e+003
1.220629e+003, 1.115944e+003
1.221111e+003, 1.111960e+003
1.221593e+003, 1.109452e+003
1.222075e+003, 1.111006e+003
1.222557e+003, 1.113721e+003
1.223040e+003, 1.114928e+003
1.223522e+003, 1.114809e+003
1.224004e+003, 1.113686e+003
1.224486e+003, 1.111875e+003
1.224968e+003, 1.111060e+003
1.225450e+003, 1.113102e+003
1.225932e+003, 1.114854e+003
1.226414e+003, 1.115445e+003
1.226896e+003, 1.115608e+003
1.227379e+003, 1.116134e+003
1.227861e+003, 1.116933e+003
1.228343e+003, 1.117947e+003
1.228825e+003, 1.119047e+003
1.229307e+003, 1.119505e+003
1.229789e+003, 1.118581e+003
1.230271e+003, 1.117446e+003
1.230753e+003, 1.116165e+003
1.231236e+003, 1.115108e+003
1.231718e+003, 1.115017e+003
1.232200e+003, 1.115499e+003
1.232682e+003, 1.115500e+003
1.233164e+003, 1.114983e+003
1.233646e+003, 1.114237e+003
1.234128e+003, 1.112409e+003
1.234610e+003, 1.111966e+003
1.235093e+003, 1.113962e+003
1.235575e+003, 1.116425e+003
1.236057e+003, 1.116053e+003
1.236539e+003, 1.114317e+003
1.237021e+003, 1.114877e+003
1.237503e+003, 1.117739e+003
1.237985e+003, 1.119927e+003
1.238467e+003, 1.120109e+003
1.238949e+003, 1.119933e+003
1.239432e+003, 1.119501e+003
1.239914e+003, 1.119132e+003
1.240396e+003, 1.119032e+003
1.240878e+003, 1.119401e+003
1.241360e+003, 1.121027e+003
1.241842e+003, 1.123828e+003
1.242324e+003, 1.125610e+003
1.242806e+003, 1.125538e+003
1.243288e+003, 1.125328e+003
1.243771e+003, 1.125267e+003
1.244253e+003, 1.125250e+003
1.244735e+003, 1.124781e+003
1.245217e+003, 1.124457e+003
1.245699e+003, 1.125720e+003
1.246181e+003, 1.128507e+003
1.246663e+003, 1.129336e+003
1.247145e+003, 1.126933e+003
1.247628e+003, 1.125599e+003
1.248110e+003, 1.126352e+003
1.248592e+003, 1.128058e+003
1.249074e+003, 1.129856e+003
1.249556e+003, 1.131421e+003
1.250038e+003, 1.132723e+003
1.250520e+003, 1.133586e+003
1.251002e+003, 1.132229e+003
1.251484e+003, 1.127760e+003
1.251967e+003, 1.125218e+003
1.252449e+003, 1.126126e+003
1.252931e+003, 1.127736e+003
1.253413e+003, 1.126947e+003
1.253895e+003, 1.125387e+003
1.254377e+003, 1.124580e+003
1.254859e+003, 1.124642e+003
1.255341e+003, 1.124989e+003
1.255823e+003, 1.125563e+003
1.256306e+003, 1.127113e+003
1.256788e+003, 1.130066e+003
1.257270e+003, 1.132567e+003
1.257752e+003, 1.132603e+003
1.258234e+003, 1.131628e+003
1.258716e+003, 1.130529e+003
1.259198e+003, 1.129504e+003
1.259680e+003, 1.129454e+003
1.260163e+003, 1.130390e+003
1.260645e+003, 1.131285e+003
1.261127e+003, 1.132004e+003
1.261609e+003, 1.132123e+003
1.262091e+003, 1.130758e+003
1.262573e+003, 1.129228e+003
1.263055e+003, 1.128413e+003
1.263537e+003, 1.128173e+003
1.264020e+003, 1.127845e+003
1.264502e+003, 1.127536e+003
1.264984e+003, 1.128228e+003
1.265466e+003, 1.130281e+003
1.265948e+003, 1.132289e+003
1.266430e+003, 1.133644e+003
1.266912e+003, 1.134458e+003
1.267394e+003, 1.134938e+003
1.267876e+003, 1.134885e+003
1.268359e+003, 1.133590e+003
1.268841e+003, 1.131292e+003
1.269323e+003, 1.128368e+003
1.269805e+003, 1.124585e+003
1.270287e+003, 1.123032e+003
1.270769e+003, 1.127458e+003
1.271251e+003, 1.131442e+003
1.271733e+003, 1.133034e+003
1.272215e+003, 1.132737e+003
1.272698e+003, 1.130638e+003
1.273180e+003, 1.127752e+003
1.273662e+003, 1.126400e+003
1.274144e+003, 1.127072e+003
1.274626e+003, 1.128806e+003
1.275108e+003, 1.132666e+003
1.275590e+003, 1.134754e+003
1.276072e+003, 1.133235e+003
1.276555e+003, 1.130466e+003
1.277037e+003, 1.130463e+003
1.277519e+003, 1.131774e+003
1.278001e+003, 1.131960e+003
1.278483e+003, 1.130500e+003
1.278965e+003, 1.130365e+003
1.279447e+003, 1.132053e+003
1.279929e+003, 1.133566e+003
1.280411e+003, 1.134201e+003
1.280894e+003, 1.134585e+003
1.281376e+003, 1.135788e+003
1.281858e+003, 1.136969e+003
1.282340e+003, 1.136969e+003
1.282822e+003, 1.135761e+003
1.283304e+003, 1.135247e+003
1.283786e+003, 1.135515e+003
1.284268e+003, 1.135636e+003
1.284750e+003, 1.135389e+003
1.285233e+003, 1.134851e+003
1.285715e+003, 1.133342e+003
1.286197e+003, 1.132258e+003
1.286679e+003, 1.133195e+003
1.287161e+003, 1.135581e+003
1.287643e+003, 1.136769e+003
1.288125e+003, 1.136902e+003
1.288607e+003, 1.138031e+003
1.289090e+003, 1.140948e+003
1.289572e+003, 1.142842e+003
1.290054e+003, 1.140574e+003
1.290536e+003, 1.138341e+003
1.291018e+003, 1.138597e+003
1.291500e+003, 1.140291e+003
1.291982e+003, 1.140381e+003
1.292464e+003, 1.139349e+003
1.292947e+003, 1.139031e+003
1.293429e+003, 1.139841e+003
1.293911e+003, 1.140609e+003
1.294393e+003, 1.140266e+003
1.294875e+003, 1.140612e+003
1.295357e+003, 1.142339e+003
1.295839e+003, 1.144679e+003
1.296321e+003, 1.146487e+003
1.296803e+003, 1.147962e+003
1.297286e+003, 1.149507e+003
1.297768e+003, 1.151187e+003
1.298250e+003, 1.152055e+003
1.298732e+003, 1.151957e+003
1.299214e+003, 1.151178e+003
1.299696e+003, 1.149597e+003
1.300178e+003, 1.148139e+003
1.300660e+003, 1.148060e+003
##END=



