##NAMES=Wilhelmkleinite
##RRUFFID=R070060
##IDEAL CHEMISTRY=Zn^2+^Fe^3+^_2_(As^5+^O_4_)_2_(OH)_2_
##LOCALITY=Tsumeb mine, Tsumeb, Otavi District, Oshikoto, Namibia
##OWNER=RRUFF
##SOURCE=William W. Pinch
##DESCRIPTION=Dark green bladed crystal, vug has large xl with Parasymplessite xls, smaller xl removed from this larger one
##STATUS=The identification of this mineral is confirmed by single-crystal X-ray diffraction and chemical analysis.
##URL=rruff.info/R070060
##MEASURED CHEMISTRY=(Zn_0.90_Fe^2+^_0.07_Cu_0.03_)_Σ=1_(Fe^3+^_1.99_Al_0.01_)_Σ=2_(As_1.00_O_4_)_2_(OH)_2_ ; OH estimated by difference; Fe2+ and Fe3+ proportions estimated by charge balance and stoichiometry
140.1126, 118.6922
140.5947, 121.6967
141.0768, 126.5306
141.5589, 132.8578
142.0410, 140.1750
142.5232, 147.2960
143.0053, 152.8042
143.4874, 156.1827
143.9695, 160.2399
144.4516, 166.3074
144.9337, 171.9431
145.4159, 174.8343
145.8980, 175.5412
146.3801, 177.1494
146.8622, 183.6643
147.3443, 197.3202
147.8264, 208.9473
148.3086, 219.0733
148.7907, 227.2192
149.2728, 231.1495
149.7549, 231.6746
150.2370, 233.2472
150.7191, 242.0245
151.2013, 262.4263
151.6834, 277.7559
152.1655, 287.7428
152.6476, 293.7518
153.1297, 292.9763
153.6118, 286.7285
154.0940, 283.2738
154.5761, 288.4486
155.0582, 299.1513
155.5403, 306.4163
156.0224, 310.4282
156.5045, 301.4441
156.9867, 281.7019
157.4688, 265.7296
157.9509, 255.1577
158.4330, 245.3077
158.9151, 234.4572
159.3972, 230.4070
159.8793, 239.5644
160.3615, 251.4744
160.8436, 256.8039
161.3257, 253.7921
161.8078, 247.7747
162.2899, 245.4933
162.7720, 248.6357
163.2542, 250.6241
163.7363, 249.5155
164.2184, 248.0865
164.7005, 249.6133
165.1826, 254.7377
165.6647, 260.4656
166.1469, 262.7529
166.6290, 260.7165
167.1111, 259.8871
167.5932, 260.7644
168.0753, 263.0863
168.5574, 266.4750
169.0396, 270.8286
169.5217, 276.6826
170.0038, 286.0404
170.4859, 299.4643
170.9680, 308.3868
171.4501, 309.0541
171.9323, 305.5665
172.4144, 301.5603
172.8965, 297.2348
173.3786, 295.4882
173.8607, 301.6593
174.3428, 315.2196
174.8250, 325.9174
175.3071, 330.6712
175.7892, 331.8553
176.2713, 332.3339
176.7534, 332.4285
177.2355, 332.1036
177.7177, 329.7841
178.1998, 326.1663
178.6819, 326.6177
179.1640, 335.0754
179.6461, 347.5004
180.1283, 358.3100
180.6104, 366.9077
181.0925, 374.2795
181.5746, 380.9408
182.0567, 387.0477
182.5388, 392.9570
183.0210, 398.1792
183.5031, 403.4694
183.9852, 410.5442
184.4673, 420.2428
184.9494, 429.1046
185.4315, 432.3488
185.9137, 432.4207
186.3958, 435.0240
186.8779, 444.2702
187.3600, 456.2764
187.8421, 464.7034
188.3242, 468.5968
188.8064, 471.7768
189.2885, 474.6945
189.7706, 478.8040
190.2527, 487.6207
190.7348, 506.5542
191.2169, 528.9444
191.6991, 543.4647
192.1812, 548.3649
192.6633, 551.9858
193.1454, 556.6846
193.6275, 563.8049
194.1096, 576.5533
194.5918, 599.4979
195.0739, 625.7194
195.5560, 644.8563
196.0381, 655.5751
196.5202, 664.4066
197.0023, 671.9042
197.4845, 680.2925
197.9666, 692.9224
198.4487, 712.0524
198.9308, 734.1492
199.4129, 753.6896
199.8950, 769.8510
200.3771, 787.7899
200.8593, 810.6861
201.3414, 836.5481
201.8235, 864.9563
202.3056, 897.2169
202.7877, 928.5923
203.2698, 952.0743
203.7520, 966.5799
204.2341, 981.1960
204.7162, 1005.359
205.1983, 1028.013
205.6804, 1039.150
206.1625, 1036.425
206.6447, 1023.548
207.1268, 1002.142
207.6089, 971.2666
208.0910, 941.1374
208.5731, 918.9617
209.0552, 895.8773
209.5374, 863.9552
210.0195, 821.6785
210.5016, 775.9692
210.9837, 730.7844
211.4658, 685.7639
211.9479, 649.6688
212.4301, 629.2837
212.9122, 615.6127
213.3943, 603.7380
213.8764, 592.9857
214.3585, 581.1777
214.8406, 564.6846
215.3228, 543.6616
215.8049, 527.2607
216.2870, 519.3352
216.7691, 514.3170
217.2512, 508.4593
217.7333, 501.7831
218.2155, 495.6953
218.6976, 491.9908
219.1797, 490.2902
219.6618, 486.5840
220.1439, 477.7310
220.6260, 470.4871
221.1082, 471.1508
221.5903, 477.4519
222.0724, 481.1429
222.5545, 475.6165
223.0366, 462.7214
223.5187, 450.8894
224.0009, 438.9225
224.4830, 430.5132
224.9651, 428.1463
225.4472, 430.3511
225.9293, 434.1670
226.4114, 440.5570
226.8936, 447.0464
227.3757, 445.5443
227.8578, 432.0561
228.3399, 419.2783
228.8220, 413.0861
229.3041, 411.7226
229.7863, 413.2182
230.2684, 418.0019
230.7505, 424.1526
231.2326, 428.4726
231.7147, 430.9940
232.1968, 431.5263
232.6790, 427.7374
233.1611, 422.7082
233.6432, 420.1169
234.1253, 421.9144
234.6074, 424.4971
235.0895, 422.0714
235.5717, 413.6114
236.0538, 407.9066
236.5359, 410.7010
237.0180, 416.5254
237.5001, 419.7733
237.9822, 418.8683
238.4644, 418.8555
238.9465, 426.6928
239.4286, 442.2255
239.9107, 453.0758
240.3928, 453.8599
240.8749, 450.0909
241.3571, 446.4926
241.8392, 443.2690
242.3213, 440.9489
242.8034, 441.0705
243.2855, 442.9176
243.7676, 442.2781
244.2497, 438.0248
244.7319, 431.4038
245.2140, 421.7207
245.6961, 409.6895
246.1782, 401.6864
246.6603, 404.8805
247.1424, 414.5062
247.6246, 417.1082
248.1067, 409.7865
248.5888, 399.0859
249.0709, 388.4578
249.5530, 378.3420
250.0351, 370.4575
250.5173, 364.6821
250.9994, 361.7990
251.4815, 364.6815
251.9636, 374.6943
252.4457, 383.3268
252.9278, 383.3033
253.4100, 377.8580
253.8921, 373.5699
254.3742, 372.1204
254.8563, 371.8297
255.3384, 371.0710
255.8205, 369.8571
256.3027, 368.8796
256.7848, 368.1944
257.2669, 368.1988
257.7490, 369.8221
258.2311, 374.8594
258.7133, 378.4241
259.1954, 376.1511
259.6775, 369.3528
260.1596, 363.5941
260.6417, 361.0021
261.1238, 360.3477
261.6060, 359.2685
262.0880, 357.3427
262.5702, 356.5853
263.0523, 357.6372
263.5344, 360.4387
264.0165, 366.1048
264.4986, 375.9781
264.9807, 384.8242
265.4629, 383.4642
265.9450, 371.0218
266.4271, 363.7318
266.9092, 369.2371
267.3913, 379.0648
267.8734, 383.4501
268.3556, 381.0904
268.8377, 377.3843
269.3198, 377.5052
269.8019, 381.7487
270.2840, 383.2852
270.7661, 380.0548
271.2483, 375.7826
271.7304, 371.1384
272.2125, 367.0400
272.6946, 367.4214
273.1767, 375.9165
273.6588, 391.0817
274.1410, 401.5918
274.6231, 407.6227
275.1052, 409.7103
275.5873, 405.3775
276.0694, 397.4223
276.5515, 390.9607
277.0337, 388.2406
277.5158, 388.7967
277.9979, 391.6059
278.4800, 399.6508
278.9621, 405.6508
279.4442, 406.4860
279.9264, 406.1074
280.4085, 409.7240
280.8906, 418.5354
281.3727, 428.3289
281.8548, 433.2066
282.3369, 432.1743
282.8191, 427.6248
283.3012, 414.3105
283.7833, 401.9275
284.2654, 396.7615
284.7475, 398.9722
285.2296, 404.9132
285.7118, 411.5443
286.1939, 419.0450
286.6760, 425.3526
287.1581, 431.7444
287.6402, 435.7904
288.1223, 435.4196
288.6045, 432.1343
289.0866, 428.3958
289.5687, 425.4955
290.0508, 423.8075
290.5329, 425.2018
291.0150, 430.9633
291.4972, 438.4569
291.9793, 451.4080
292.4614, 463.9749
292.9435, 468.6387
293.4256, 462.7569
293.9077, 452.6133
294.3899, 449.0977
294.8720, 453.4410
295.3541, 461.3320
295.8362, 478.1989
296.3183, 493.8864
296.8004, 501.0254
297.2826, 499.5167
297.7647, 495.4591
298.2468, 494.1100
298.7289, 495.5038
299.2110, 499.4292
299.6931, 510.1421
300.1753, 518.5535
300.6574, 518.6218
301.1395, 513.0966
301.6216, 509.1050
302.1037, 512.8729
302.5858, 520.3176
303.0680, 519.3325
303.5501, 507.5957
304.0322, 493.0483
304.5143, 476.4843
304.9964, 460.2396
305.4785, 446.8321
305.9607, 436.6892
306.4428, 430.5247
306.9249, 431.2918
307.4070, 439.0264
307.8891, 444.2035
308.3712, 443.7689
308.8534, 439.1256
309.3355, 431.4800
309.8176, 420.2872
310.2997, 410.7295
310.7818, 406.7531
311.2639, 406.5093
311.7461, 404.8690
312.2282, 400.4904
312.7103, 395.9438
313.1924, 393.4161
313.6745, 392.7687
314.1566, 394.5468
314.6388, 401.8843
315.1209, 409.7928
315.6030, 413.2864
316.0851, 412.2626
316.5672, 409.1944
317.0493, 405.1269
317.5315, 400.3768
318.0136, 396.6519
318.4957, 394.6748
318.9778, 392.8634
319.4599, 389.2608
319.9420, 385.5078
320.4242, 385.9652
320.9063, 392.9300
321.3884, 401.9808
321.8705, 403.7070
322.3526, 391.4897
322.8347, 383.8179
323.3169, 382.8962
323.7990, 385.9530
324.2811, 392.9704
324.7632, 402.8106
325.2453, 410.1448
325.7274, 408.5764
326.2096, 396.0408
326.6917, 388.6224
327.1738, 387.9580
327.6559, 389.9218
328.1380, 393.7165
328.6201, 398.8935
329.1023, 405.7425
329.5844, 414.9080
330.0665, 424.6683
330.5486, 427.1348
331.0307, 415.1280
331.5128, 406.7289
331.9950, 406.1345
332.4771, 409.1149
332.9592, 412.0183
333.4413, 413.7512
333.9234, 415.2390
334.4055, 417.9512
334.8877, 422.2523
335.3698, 425.5501
335.8519, 427.1932
336.3340, 428.0493
336.8161, 428.6537
337.2982, 428.8909
337.7804, 428.2086
338.2625, 424.9906
338.7446, 420.5679
339.2267, 420.8189
339.7088, 428.8748
340.1909, 433.6378
340.6731, 423.7988
341.1552, 408.4518
341.6373, 400.4636
342.1194, 404.8281
342.6015, 413.8268
343.0836, 420.7341
343.5658, 425.7163
344.0479, 430.6872
344.5300, 438.1835
345.0121, 443.4765
345.4942, 437.6566
345.9763, 418.8287
346.4584, 405.3974
346.9406, 407.6541
347.4227, 417.6163
347.9048, 424.0428
348.3869, 425.2254
348.8690, 425.0764
349.3511, 427.2960
349.8333, 431.8824
350.3154, 433.8388
350.7975, 432.5122
351.2796, 429.3297
351.7617, 424.7300
352.2438, 418.8476
352.7260, 392.4612
353.2081, 417.3128
353.6902, 431.8513
354.1723, 436.6308
354.6544, 402.4219
355.1365, 418.5584
355.6187, 414.5191
356.1008, 409.6521
356.5829, 432.8745
357.0650, 404.3365
357.5471, 427.1133
358.0292, 429.4063
358.5114, 441.0746
358.9935, 432.4417
359.4756, 430.0792
359.9577, 448.0239
360.4398, 454.7243
360.9219, 443.7547
361.4041, 456.0189
361.8862, 426.7717
362.3683, 433.9510
362.8504, 456.8468
363.3325, 446.8978
363.8146, 459.5329
364.2968, 443.4370
364.7789, 447.7856
365.2610, 454.2594
365.7431, 462.8092
366.2252, 471.6837
366.7073, 480.5131
367.1895, 488.7813
367.6716, 492.3519
368.1537, 487.3486
368.6358, 484.3521
369.1179, 493.1426
369.6000, 510.6298
370.0822, 529.1341
370.5643, 551.1994
371.0464, 570.0458
371.5285, 575.2667
372.0106, 568.7770
372.4927, 566.7635
372.9749, 578.4597
373.4570, 598.1129
373.9391, 611.3402
374.4212, 616.5568
374.9033, 620.2552
375.3854, 622.1533
375.8676, 624.2357
376.3497, 628.5102
376.8318, 635.4874
377.3139, 645.6307
377.7960, 660.4717
378.2781, 681.3312
378.7603, 695.7590
379.2424, 694.8660
379.7245, 697.9385
380.2066, 718.9351
380.6887, 748.6003
381.1708, 768.1652
381.6530, 767.4844
382.1351, 754.8209
382.6172, 752.7700
383.0993, 771.6622
383.5814, 780.3420
384.0635, 768.5575
384.5457, 752.4731
385.0278, 744.4150
385.5099, 744.6667
385.9920, 743.2806
386.4741, 729.2196
386.9562, 704.1090
387.4384, 685.2557
387.9205, 676.2456
388.4026, 667.0823
388.8847, 651.2756
389.3668, 632.4178
389.8489, 616.2233
390.3311, 604.6999
390.8132, 595.3450
391.2953, 586.7914
391.7774, 578.6724
392.2595, 567.2780
392.7416, 549.2019
393.2238, 530.8801
393.7059, 522.8455
394.1880, 525.3517
394.6701, 526.6154
395.1522, 524.2722
395.6343, 518.9604
396.1165, 508.0146
396.5986, 492.7579
397.0807, 483.8688
397.5628, 490.4886
398.0449, 509.6712
398.5270, 519.9700
399.0092, 517.1265
399.4913, 511.8420
399.9734, 503.3177
400.4555, 494.7221
400.9376, 489.2203
401.4197, 487.8517
401.9019, 490.2035
402.3840, 496.7096
402.8661, 509.5166
403.3482, 517.1988
403.8303, 515.9667
404.3124, 513.2332
404.7946, 510.0963
405.2767, 507.6103
405.7588, 507.6518
406.2409, 511.9192
406.7230, 517.9183
407.2051, 519.2366
407.6873, 514.1257
408.1694, 511.9805
408.6515, 519.2438
409.1336, 527.8654
409.6157, 529.7448
410.0978, 524.3488
410.5800, 520.6498
411.0621, 525.2609
411.5442, 534.8785
412.0263, 542.6240
412.5084, 547.5845
412.9905, 552.7446
413.4727, 560.2733
413.9548, 569.8149
414.4369, 579.2548
414.9190, 590.0839
415.4011, 599.0679
415.8832, 604.2742
416.3654, 606.8844
416.8475, 607.6883
417.3296, 606.9297
417.8117, 608.2670
418.2938, 617.7698
418.7759, 640.0016
419.2581, 654.5970
419.7402, 657.3248
420.2223, 657.7895
420.7044, 658.1519
421.1865, 660.0536
421.6686, 666.5814
422.1508, 680.1304
422.6329, 697.0787
423.1150, 706.6997
423.5971, 704.8706
424.0792, 706.0598
424.5613, 716.5753
425.0435, 728.2524
425.5256, 735.8790
426.0077, 739.0547
426.4898, 740.0640
426.9719, 741.5765
427.4540, 742.1594
427.9361, 736.0598
428.4182, 721.2022
428.9004, 707.9314
429.3825, 703.9066
429.8646, 705.2212
430.3467, 703.5017
430.8288, 698.7485
431.3109, 690.0187
431.7931, 672.5822
432.2752, 651.7507
432.7573, 638.7220
433.2394, 636.3350
433.7215, 636.0913
434.2036, 627.7847
434.6858, 609.4808
435.1679, 598.8499
435.6500, 601.7448
436.1321, 605.2189
436.6142, 604.3599
437.0963, 600.3447
437.5785, 595.5059
438.0606, 590.9106
438.5427, 586.6708
439.0248, 583.4456
439.5069, 582.3724
439.9890, 578.8891
440.4712, 566.7043
440.9533, 557.2266
441.4354, 558.0613
441.9175, 566.9020
442.3996, 575.5457
442.8817, 579.4818
443.3639, 580.0772
443.8460, 579.5382
444.3281, 577.6740
444.8102, 576.4056
445.2923, 575.8468
445.7744, 576.8886
446.2566, 581.4183
446.7387, 590.4468
447.2208, 597.1755
447.7029, 596.5843
448.1850, 593.5912
448.6671, 575.9193
449.1493, 603.0588
449.6314, 619.8846
450.1135, 626.9512
450.5956, 595.0297
451.0777, 613.4533
451.5598, 611.7010
452.0420, 609.1218
452.5241, 634.6316
453.0062, 608.3806
453.4883, 633.4449
453.9704, 638.0249
454.4525, 651.9802
454.9347, 645.6353
455.4168, 645.5601
455.8989, 637.3860
456.3810, 631.7165
456.8631, 629.4402
457.3452, 633.3502
457.8274, 640.0136
458.3095, 645.4562
458.7916, 649.0347
459.2737, 648.9961
459.7558, 640.2610
460.2379, 625.3400
460.7201, 618.2482
461.2022, 624.0209
461.6843, 631.2987
462.1664, 628.2081
462.6485, 615.9877
463.1306, 606.6115
463.6128, 603.2920
464.0949, 600.9611
464.5770, 597.0974
465.0591, 592.0621
465.5412, 586.8858
466.0233, 581.9688
466.5055, 576.6822
466.9876, 569.6280
467.4697, 559.0350
467.9518, 552.0771
468.4339, 550.9731
468.9160, 550.8303
469.3982, 549.2271
469.8803, 540.6566
470.3624, 547.8141
470.8445, 551.5338
471.3266, 552.0006
471.8087, 539.4713
472.2909, 543.7236
472.7730, 541.2507
473.2551, 538.5020
473.7372, 545.1163
474.2193, 534.4773
474.7014, 540.9432
475.1836, 540.5810
475.6657, 543.3439
476.1478, 539.3400
476.6299, 537.4260
477.1120, 542.2812
477.5941, 543.3883
478.0763, 538.6052
478.5584, 541.5668
479.0405, 530.6913
479.5226, 531.9580
480.0047, 538.4636
480.4868, 534.0209
480.9690, 537.1060
481.4511, 542.0079
481.9332, 554.6523
482.4153, 562.8733
482.8974, 562.6505
483.3795, 556.1340
483.8617, 548.4417
484.3438, 536.5995
484.8259, 531.7116
485.3080, 542.2278
485.7901, 555.8447
486.2722, 565.2111
486.7544, 570.3256
487.2365, 574.9743
487.7186, 582.4366
488.2007, 590.2094
488.6828, 592.2733
489.1649, 588.8175
489.6471, 589.9019
490.1292, 601.4139
490.6113, 618.7172
491.0934, 632.5911
491.5755, 643.6742
492.0576, 650.5660
492.5398, 650.2592
493.0219, 647.8094
493.5040, 647.0469
493.9861, 647.9648
494.4682, 648.9066
494.9503, 648.8514
495.4325, 647.8844
495.9146, 645.9168
496.3967, 640.8710
496.8788, 639.2659
497.3609, 649.4677
497.8430, 657.0757
498.3252, 650.7719
498.8073, 632.1033
499.2894, 612.2946
499.7715, 596.8672
500.2536, 585.3256
500.7357, 577.5848
501.2179, 573.7469
501.7000, 569.8361
502.1821, 564.1230
502.6642, 557.7064
503.1463, 553.0371
503.6284, 551.0560
504.1106, 545.8945
504.5927, 532.9467
505.0748, 519.2003
505.5569, 510.3304
506.0390, 505.7328
506.5211, 501.4071
507.0033, 494.9605
507.4854, 488.0020
507.9675, 485.1145
508.4496, 489.0374
508.9317, 491.1394
509.4138, 489.5424
509.8959, 487.3109
510.3781, 488.0196
510.8602, 489.7618
511.3423, 486.2003
511.8244, 471.3359
512.3065, 452.3439
512.7886, 440.2751
513.2708, 434.9803
513.7529, 434.6196
514.2350, 440.8353
514.7171, 448.3141
515.1992, 449.5812
515.6813, 444.5871
516.1635, 439.8337
516.6456, 439.2192
517.1277, 436.3000
517.6098, 423.0445
518.0919, 404.5609
518.5740, 392.3702
519.0562, 391.5630
519.5383, 398.2012
520.0204, 406.7137
520.5025, 419.5699
520.9846, 426.1287
521.4667, 421.9094
521.9489, 415.4451
522.4310, 409.1598
522.9131, 402.9982
523.3952, 396.5855
523.8773, 389.9773
524.3594, 382.5378
524.8416, 371.7806
525.3237, 358.9843
525.8058, 351.9085
526.2879, 353.3378
526.7700, 355.5597
527.2521, 350.4458
527.7343, 338.4936
528.2164, 332.3177
528.6985, 336.5361
529.1806, 341.0077
529.6627, 342.9185
530.1448, 342.5873
530.6270, 339.7064
531.1091, 334.6214
531.5912, 329.8928
532.0733, 328.9825
532.5554, 331.7892
533.0375, 330.2914
533.5197, 321.0791
534.0018, 313.2748
534.4839, 310.9653
534.9660, 310.9080
535.4481, 309.9106
535.9302, 307.4209
536.4124, 304.2147
536.8945, 299.8769
537.3766, 295.4989
537.8587, 293.3362
538.3408, 293.5129
538.8229, 294.3584
539.3051, 295.2297
539.7872, 295.7188
540.2693, 294.4382
540.7514, 288.1305
541.2335, 285.2825
541.7156, 290.0203
542.1978, 295.2442
542.6799, 295.3402
543.1620, 291.1210
543.6441, 286.8269
544.1262, 285.1411
544.6083, 284.9367
545.0905, 283.8011
545.5726, 281.7547
546.0547, 278.1564
546.5368, 269.4451
547.0189, 263.2223
547.5010, 269.3599
547.9832, 284.8956
548.4653, 293.9470
548.9474, 287.7472
549.4295, 277.8024
549.9116, 270.4715
550.3937, 266.0278
550.8759, 265.8846
551.3580, 270.4461
551.8401, 275.9512
552.3222, 277.4005
552.8043, 274.0623
553.2864, 272.6511
553.7686, 277.1840
554.2507, 279.0981
554.7328, 272.9703
555.2149, 264.8159
555.6970, 263.0952
556.1791, 269.6808
556.6613, 275.5705
557.1434, 270.7449
557.6255, 258.9492
558.1076, 251.6675
558.5897, 249.7649
559.0718, 250.6479
559.5540, 254.2360
560.0361, 258.8581
560.5182, 259.4184
561.0003, 253.1223
561.4824, 249.8997
561.9645, 252.9810
562.4467, 258.2903
562.9288, 264.6201
563.4109, 270.3768
563.8930, 271.6817
564.3751, 265.7224
564.8572, 256.8080
565.3394, 255.6210
565.8215, 264.2714
566.3036, 269.8941
566.7857, 269.8302
567.2678, 267.4580
567.7499, 263.5569
568.2321, 259.2518
568.7142, 258.0869
569.1963, 264.3234
569.6784, 269.4172
570.1605, 264.5851
570.6426, 255.0099
571.1248, 252.0936
571.6069, 258.0879
572.0890, 264.8476
572.5711, 264.2019
573.0532, 256.6434
573.5353, 253.1176
574.0175, 257.4419
574.4996, 260.6236
574.9817, 260.9780
575.4638, 260.0151
575.9459, 258.7906
576.4280, 257.5463
576.9102, 256.3896
577.3923, 254.6510
577.8744, 253.3927
578.3565, 255.0346
578.8386, 259.4592
579.3207, 264.5250
579.8029, 270.3039
580.2850, 274.4910
580.7671, 272.9374
581.2492, 263.4268
581.7313, 258.1500
582.2134, 261.2865
582.6956, 257.3371
583.1777, 265.5804
583.6598, 270.3861
584.1419, 271.9388
584.6240, 260.4953
585.1061, 265.8336
585.5883, 264.4467
586.0704, 262.7838
586.5525, 270.4841
587.0346, 260.9309
587.5167, 268.4828
587.9988, 269.2065
588.4810, 273.0555
588.9631, 270.1373
589.4452, 269.3093
589.9273, 273.1650
590.4094, 263.8446
590.8915, 252.3827
591.3737, 248.1686
591.8558, 250.5150
592.3379, 255.2704
592.8200, 260.4990
593.3021, 264.9160
593.7842, 265.5211
594.2664, 260.9911
594.7485, 258.2457
595.2306, 258.8673
595.7127, 259.6501
596.1948, 258.2259
596.6769, 256.1061
597.1591, 255.5358
597.6412, 249.0224
598.1233, 256.4282
598.6054, 260.3963
599.0875, 261.1114
599.5696, 248.8304
600.0518, 253.3310
600.5339, 251.1064
601.0160, 248.6060
601.4981, 255.4686
601.9802, 245.0779
602.4623, 251.7921
602.9445, 251.6782
603.4266, 254.6895
603.9087, 250.9338
604.3908, 252.3792
604.8729, 255.8365
605.3550, 255.3522
605.8372, 246.9033
606.3193, 237.9316
606.8014, 236.6272
607.2835, 241.3620
607.7656, 247.7911
608.2477, 255.3516
608.7299, 261.6509
609.2120, 265.1314
609.6941, 265.6743
610.1762, 262.5284
610.6583, 247.4494
611.1404, 239.8474
611.6226, 246.1102
612.1047, 256.2008
612.5868, 264.8687
613.0689, 270.6230
613.5510, 271.4796
614.0331, 264.3296
614.5153, 255.4816
614.9974, 257.1561
615.4795, 267.7581
615.9616, 272.0022
616.4437, 265.2879
616.9258, 256.5212
617.4080, 253.7629
617.8901, 256.5331
618.3722, 257.5558
618.8543, 255.0426
619.3364, 253.2779
619.8185, 254.1168
620.3007, 255.3982
620.7828, 254.4840
621.2649, 251.7829
621.7470, 250.5877
622.2291, 254.1015
622.7112, 259.0260
623.1934, 256.7090
623.6755, 246.9235
624.1576, 241.8848
624.6397, 245.8910
625.1218, 252.1094
625.6039, 253.8018
626.0861, 251.4263
626.5682, 251.8466
627.0503, 260.2428
627.5324, 265.1657
628.0145, 259.4150
628.4966, 250.7683
628.9788, 247.9727
629.4609, 251.4122
629.9430, 255.5704
630.4251, 256.5383
630.9072, 255.0524
631.3893, 252.2174
631.8715, 247.6839
632.3535, 245.9323
632.8356, 249.2303
633.3177, 253.5180
633.7999, 255.3043
634.2820, 254.7323
634.7641, 252.7766
635.2462, 246.1234
635.7283, 242.1755
636.2104, 246.2399
636.6926, 252.8325
637.1747, 255.9267
637.6568, 254.8186
638.1389, 251.7475
638.6210, 247.8619
639.1031, 244.0809
639.5853, 243.4526
640.0674, 246.4127
640.5495, 249.1264
641.0316, 251.8558
641.5137, 252.4986
641.9958, 247.1817
642.4780, 237.4953
642.9601, 231.6700
643.4422, 233.7863
643.9243, 235.5508
644.4064, 232.0407
644.8885, 227.9311
645.3707, 229.5197
645.8528, 236.3624
646.3349, 242.4216
646.8170, 243.3732
647.2991, 240.8590
647.7813, 238.4027
648.2634, 235.8667
648.7455, 235.3150
649.2276, 238.3361
649.7097, 241.3063
650.1918, 241.2123
650.6740, 238.5446
651.1561, 235.4252
651.6382, 230.2523
652.1203, 227.0203
652.6024, 226.5775
653.0845, 228.8054
653.5667, 236.1910
654.0488, 246.5546
654.5309, 252.2553
655.0130, 247.7394
655.4951, 238.8006
655.9772, 237.1366
656.4594, 242.9284
656.9415, 249.5349
657.4236, 257.8452
657.9057, 262.3136
658.3878, 256.3050
658.8699, 243.3155
659.3521, 237.3705
659.8342, 243.6560
660.3163, 247.6120
660.7984, 242.5971
661.2805, 237.1213
661.7626, 239.5461
662.2448, 247.5090
662.7269, 253.3129
663.2090, 253.0641
663.6911, 249.3634
664.1732, 244.8178
664.6553, 239.7358
665.1375, 237.1586
665.6196, 237.4790
666.1017, 240.0594
666.5838, 246.0970
667.0659, 253.2790
667.5480, 254.8545
668.0302, 246.9830
668.5123, 243.2783
668.9944, 250.7805
669.4765, 256.8346
669.9586, 251.4118
670.4407, 239.8888
670.9229, 232.7378
671.4050, 233.6328
671.8871, 237.7200
672.3692, 241.4929
672.8513, 244.2093
673.3334, 242.0011
673.8156, 234.4830
674.2977, 229.5758
674.7798, 231.2959
675.2619, 236.8624
675.7440, 241.8410
676.2261, 246.4917
676.7083, 249.5193
677.1904, 250.1234
677.6725, 250.1791
678.1546, 250.0718
678.6367, 249.8967
679.1188, 250.0364
679.6010, 250.4343
680.0831, 249.8586
680.5652, 247.7382
681.0473, 243.9209
681.5294, 234.3382
682.0115, 221.5116
682.4937, 222.0621
682.9758, 242.6555
683.4579, 265.3917
683.9400, 268.7581
684.4221, 252.5310
684.9042, 242.2371
685.3864, 239.0883
685.8685, 240.4420
686.3506, 252.1883
686.8327, 262.9861
687.3148, 261.0389
687.7969, 248.6962
688.2791, 240.8491
688.7612, 248.0698
689.2433, 256.4671
689.7254, 251.5671
690.2075, 240.1561
690.6896, 235.7952
691.1718, 240.4396
691.6539, 247.6843
692.1360, 252.9771
692.6181, 256.1378
693.1002, 255.1930
693.5823, 246.8703
694.0645, 246.4235
694.5466, 262.7419
695.0287, 278.3063
695.5108, 282.3969
695.9929, 277.9200
696.4750, 270.0958
696.9572, 256.7076
697.4393, 247.1047
697.9214, 247.9623
698.4035, 251.9462
698.8856, 252.2186
699.3677, 249.3598
699.8499, 247.1026
700.3320, 247.1924
700.8141, 248.0566
701.2962, 245.7879
701.7783, 241.0284
702.2604, 245.5333
702.7426, 262.7986
703.2247, 275.6069
703.7068, 275.7503
704.1889, 267.5944
704.6710, 256.4683
705.1531, 240.1596
705.6353, 232.2902
706.1174, 240.9196
706.5995, 249.5454
707.0816, 250.3116
707.5637, 247.9503
708.0458, 249.0253
708.5280, 254.3903
709.0101, 259.6665
709.4922, 262.3004
709.9743, 262.2914
710.4564, 258.0302
710.9385, 250.6020
711.4207, 246.1306
711.9028, 246.2886
712.3849, 248.4544
712.8670, 250.4864
713.3491, 252.2538
713.8312, 252.4724
714.3134, 249.5044
714.7955, 247.8783
715.2776, 249.4871
715.7597, 251.1929
716.2418, 251.2064
716.7239, 249.8292
717.2061, 247.6896
717.6882, 243.6886
718.1703, 242.1896
718.6524, 248.8440
719.1345, 257.7044
719.6166, 260.1927
720.0988, 257.1445
720.5809, 255.1815
721.0630, 257.6943
721.5451, 262.0510
722.0272, 263.9741
722.5093, 263.3971
722.9915, 262.3075
723.4736, 260.8234
723.9557, 258.3317
724.4378, 252.6989
724.9199, 247.3765
725.4020, 249.4879
725.8842, 260.3287
726.3663, 265.5855
726.8484, 259.6078
727.3305, 252.7859
727.8126, 247.3694
728.2947, 244.6430
728.7769, 248.1001
729.2590, 256.6327
729.7411, 261.7112
730.2232, 254.8847
730.7053, 244.3438
731.1874, 244.1336
731.6696, 251.8423
732.1517, 256.3655
732.6338, 255.3342
733.1159, 254.0039
733.5980, 256.9736
734.0801, 262.4797
734.5623, 262.7092
735.0444, 253.5520
735.5265, 248.3167
736.0086, 250.3030
736.4907, 253.6572
736.9728, 255.6401
737.4550, 257.1189
737.9371, 260.1598
738.4192, 265.7730
738.9013, 269.7694
739.3834, 268.8378
739.8655, 266.7745
740.3477, 267.0627
740.8298, 268.9891
741.3119, 270.4458
741.7940, 270.7378
742.2761, 270.7926
742.7582, 270.9843
743.2404, 271.8775
743.7225, 278.1919
744.2046, 290.8833
744.6867, 294.6928
745.1688, 282.7466
745.6509, 266.8990
746.1331, 259.0186
746.6152, 258.6857
747.0973, 258.1689
747.5794, 254.3206
748.0615, 254.7133
748.5436, 264.6573
749.0258, 274.9188
749.5079, 278.7552
749.9900, 277.7287
750.4721, 277.0502
750.9542, 278.7092
751.4363, 280.2644
751.9185, 279.5605
752.4006, 277.8737
752.8827, 277.5208
753.3648, 278.0217
753.8469, 276.1114
754.3290, 270.3049
754.8112, 264.9077
755.2933, 267.6182
755.7754, 277.9066
756.2575, 279.3760
756.7396, 268.3723
757.2217, 263.0289
757.7039, 272.8466
758.1860, 286.1391
758.6681, 289.1187
759.1502, 281.5125
759.6323, 276.5894
760.1144, 272.7635
760.5966, 273.8230
761.0787, 290.7475
761.5608, 304.7369
762.0429, 294.0221
762.5250, 266.1942
763.0071, 248.0100
763.4893, 252.6146
763.9714, 263.9053
764.4535, 268.2308
764.9356, 268.4913
765.4177, 269.9313
765.8998, 272.6873
766.3820, 275.1785
766.8641, 276.7761
767.3462, 275.4102
767.8283, 265.1999
768.3104, 245.8146
768.7925, 243.6121
769.2747, 266.5275
769.7568, 282.0488
770.2389, 274.0808
770.7210, 260.2521
771.2031, 261.8468
771.6852, 278.1489
772.1674, 288.5077
772.6495, 287.9335
773.1316, 286.9598
773.6137, 289.9061
774.0958, 291.9375
774.5779, 286.1703
775.0601, 275.9612
775.5422, 272.0742
776.0243, 280.3016
776.5064, 290.2045
776.9885, 291.8583
777.4706, 289.0054
777.9528, 286.4827
778.4349, 285.4159
778.9170, 290.4955
779.3991, 303.9494
779.8812, 314.9117
780.3633, 304.6295
780.8455, 275.1259
781.3276, 268.0463
781.8097, 290.6145
782.2918, 307.5207
782.7739, 306.4666
783.2560, 299.6519
783.7382, 297.2460
784.2203, 299.4430
784.7024, 307.0608
785.1845, 328.6915
785.6666, 343.4047
786.1487, 343.4269
786.6309, 340.4206
787.1130, 341.1711
787.5951, 345.4282
788.0772, 351.4899
788.5593, 359.1609
789.0414, 366.2971
789.5236, 371.4700
790.0057, 375.1862
790.4878, 375.7735
790.9699, 375.5380
791.4520, 380.9687
791.9341, 394.0284
792.4163, 411.4061
792.8984, 431.3701
793.3805, 451.8470
793.8626, 462.3676
794.3447, 461.7924
794.8268, 468.9987
795.3090, 490.5424
795.7911, 511.8476
796.2732, 520.8892
796.7552, 520.6567
797.2374, 522.8682
797.7195, 528.0482
798.2016, 534.7758
798.6837, 543.5292
799.1658, 553.1740
799.6479, 564.7349
800.1301, 576.1860
800.6122, 584.7149
801.0943, 589.7927
801.5764, 594.2769
802.0585, 600.2510
802.5406, 605.0651
803.0228, 608.4860
803.5049, 608.7649
803.9870, 600.5635
804.4691, 585.4102
804.9512, 574.4389
805.4333, 576.5203
805.9155, 582.3454
806.3976, 576.2595
806.8797, 560.4799
807.3618, 542.7047
807.8439, 523.9320
808.3260, 512.6730
808.8082, 514.8509
809.2903, 521.3189
809.7724, 514.9508
810.2545, 493.6278
810.7366, 479.1735
811.2188, 472.4098
811.7009, 471.1248
812.1830, 479.8901
812.6651, 489.1100
813.1472, 488.2452
813.6293, 478.7510
814.1115, 470.6159
814.5936, 460.5432
815.0757, 457.6237
815.5578, 470.5230
816.0399, 485.2006
816.5220, 491.3061
817.0042, 490.8797
817.4863, 489.8512
817.9684, 490.0653
818.4505, 490.4712
818.9326, 489.1963
819.4147, 488.4978
819.8969, 492.8201
820.3790, 499.8796
820.8611, 504.3044
821.3432, 504.3968
821.8253, 499.6918
822.3074, 488.7270
822.7896, 474.4930
823.2717, 464.3599
823.7538, 458.3564
824.2359, 456.0757
824.7180, 457.9731
825.2001, 460.5346
825.6823, 462.1736
826.1644, 462.2234
826.6465, 458.8811
827.1286, 450.7803
827.6107, 444.9662
828.0928, 444.5747
828.5750, 441.7634
829.0571, 431.7224
829.5392, 419.9976
830.0213, 411.0670
830.5034, 404.9998
830.9855, 401.4283
831.4677, 405.2089
831.9498, 404.9545
832.4319, 390.8140
832.9140, 376.5978
833.3961, 375.7470
833.8782, 384.0609
834.3604, 389.7220
834.8425, 388.6098
835.3246, 385.7792
835.8067, 384.9868
836.2888, 385.0334
836.7709, 383.8165
837.2531, 382.1066
837.7352, 383.1597
838.2173, 387.2861
838.6994, 389.3604
839.1815, 384.3647
839.6636, 375.8093
840.1458, 372.9792
840.6279, 375.5695
841.1100, 375.9611
841.5921, 372.9051
842.0742, 370.1607
842.5563, 369.2569
843.0385, 371.1478
843.5206, 378.6488
844.0027, 393.6326
844.4848, 400.5174
844.9669, 393.5435
845.4490, 389.0826
845.9312, 395.2240
846.4133, 402.0426
846.8954, 397.4864
847.3775, 385.1926
847.8596, 383.1332
848.3417, 404.8637
848.8239, 417.4388
849.3060, 406.0806
849.7881, 392.1616
850.2702, 389.4305
850.7523, 393.5581
851.2344, 396.4418
851.7166, 396.1658
852.1987, 394.0239
852.6808, 389.0595
853.1629, 384.1821
853.6450, 380.5622
854.1271, 379.4130
854.6093, 384.3741
855.0914, 394.3668
855.5735, 403.0146
856.0556, 406.6950
856.5377, 406.2657
857.0198, 400.9642
857.5020, 392.7247
857.9841, 389.1336
858.4662, 389.9904
858.9483, 387.2914
859.4304, 377.6515
859.9125, 369.5875
860.3947, 375.1424
860.8768, 390.4828
861.3589, 387.0041
861.8410, 359.4237
862.3231, 342.4771
862.8052, 344.4025
863.2874, 351.3704
863.7695, 355.9771
864.2516, 358.2658
864.7337, 358.1499
865.2158, 354.6218
865.6979, 351.8781
866.1801, 352.9348
866.6622, 350.9123
867.1443, 339.7723
867.6264, 328.0472
868.1085, 325.7167
868.5906, 330.9067
869.0728, 330.6348
869.5549, 316.9245
870.0370, 306.2184
870.5191, 303.6080
871.0012, 305.7985
871.4833, 313.1052
871.9655, 322.4123
872.4476, 328.3143
872.9297, 329.5458
873.4118, 330.4980
873.8939, 337.1103
874.3760, 341.8188
874.8582, 334.6732
875.3403, 321.5515
875.8224, 311.3666
876.3045, 305.8961
876.7866, 305.2676
877.2687, 310.0577
877.7509, 315.8191
878.2330, 315.5630
878.7151, 311.5584
879.1972, 309.2089
879.6793, 309.2516
880.1614, 317.8109
880.6436, 337.0012
881.1257, 350.3191
881.6078, 339.1817
882.0899, 311.6776
882.5720, 299.5672
883.0541, 304.0424
883.5363, 309.9362
884.0184, 315.9082
884.5005, 321.9497
884.9826, 328.5973
885.4647, 334.3645
885.9468, 336.1607
886.4290, 333.2685
886.9111, 333.0706
887.3932, 337.0267
887.8753, 340.9922
888.3574, 344.9163
888.8395, 347.7404
889.3217, 346.5191
889.8038, 343.5583
890.2859, 346.2320
890.7680, 357.5021
891.2501, 367.8105
891.7322, 378.5800
892.2144, 385.4198
892.6965, 381.4865
893.1786, 375.8330
893.6607, 378.5128
894.1428, 390.0800
894.6249, 405.3587
895.1071, 425.9153
895.5892, 444.8152
896.0713, 457.7733
896.5534, 468.4965
897.0355, 477.5086
897.5176, 487.8881
897.9998, 507.1536
898.4819, 537.0022
898.9640, 564.0743
899.4461, 574.8523
899.9282, 581.4930
900.4103, 594.8629
900.8925, 614.6198
901.3746, 642.5822
901.8567, 676.6954
902.3388, 707.6794
902.8209, 729.9773
903.3030, 752.8499
903.7852, 793.0661
904.2673, 841.6573
904.7494, 870.3533
905.2315, 883.2226
905.7136, 907.6982
906.1957, 950.7590
906.6779, 993.6777
907.1600, 1020.412
907.6421, 1036.250
908.1242, 1055.609
908.6063, 1078.155
909.0884, 1090.844
909.5706, 1092.361
910.0527, 1088.890
910.5348, 1083.543
911.0169, 1072.096
911.4990, 1048.645
911.9811, 1014.020
912.4633, 978.3953
912.9454, 942.2249
913.4275, 901.5921
913.9096, 852.5629
914.3917, 806.6638
914.8738, 774.0624
915.3560, 745.8085
915.8381, 702.8137
916.3202, 639.9098
916.8023, 593.5620
917.2844, 571.8257
917.7665, 553.9003
918.2487, 539.9498
918.7308, 524.6101
919.2129, 500.5995
919.6950, 472.5848
920.1771, 453.9602
920.6592, 449.2734
921.1414, 443.4463
921.6235, 433.8813
922.1056, 423.9883
922.5877, 415.8061
923.0698, 407.3461
923.5519, 395.7731
924.0341, 381.7178
924.5162, 369.2324
924.9983, 359.3354
925.4804, 350.9411
925.9625, 341.9665
926.4446, 335.9591
926.9268, 339.7664
927.4089, 346.1649
927.8910, 342.5794
928.3731, 328.0314
928.8552, 315.4239
929.3373, 311.8313
929.8195, 311.4146
930.3016, 311.9841
930.7837, 312.1717
931.2658, 308.3675
931.7479, 303.2295
932.2300, 304.9055
932.7122, 315.4487
933.1943, 323.3494
933.6764, 316.5043
934.1585, 304.8332
934.6406, 299.9973
935.1227, 298.8524
935.6049, 294.9372
936.0870, 288.5346
936.5691, 285.5648
937.0512, 288.9174
937.5333, 291.9202
938.0154, 285.0377
938.4976, 273.3512
938.9797, 265.4823
939.4618, 262.2657
939.9439, 270.0817
940.4260, 287.9002
940.9081, 297.1526
941.3903, 284.8244
941.8724, 265.8599
942.3545, 267.7251
942.8366, 284.0409
943.3187, 282.9220
943.8008, 265.9059
944.2830, 258.4040
944.7651, 267.4633
945.2472, 277.7422
945.7293, 276.4969
946.2114, 267.9390
946.6935, 261.3128
947.1757, 256.6593
947.6578, 256.9845
948.1399, 262.8615
948.6220, 266.2650
949.1041, 263.8340
949.5862, 261.5636
950.0684, 266.8718
950.5505, 276.2017
951.0326, 271.6096
951.5147, 249.7411
951.9968, 239.7845
952.4789, 246.0273
952.9611, 256.0394
953.4432, 266.9314
953.9253, 272.7200
954.4074, 263.4449
954.8895, 241.4072
955.3716, 234.2533
955.8538, 248.6159
956.3359, 255.0052
956.8180, 247.0846
957.3001, 238.0486
957.7822, 233.7414
958.2643, 233.0764
958.7465, 234.8362
959.2286, 239.1107
959.7107, 243.4413
960.1928, 250.0973
960.6749, 251.7979
961.1570, 244.8521
961.6391, 236.6209
962.1212, 230.0146
962.6033, 225.6870
963.0854, 225.4382
963.5676, 230.2423
964.0497, 232.7182
964.5318, 229.8338
965.0139, 229.2858
965.4960, 234.0976
965.9781, 239.6974
966.4603, 245.5278
966.9424, 249.4635
967.4245, 245.1087
967.9066, 228.2502
968.3887, 221.7236
968.8708, 237.7409
969.3530, 248.8452
969.8351, 245.9313
970.3172, 238.6878
970.7993, 232.7351
971.2814, 228.1979
971.7635, 224.9865
972.2457, 223.7455
972.7278, 221.3090
973.2099, 212.4271
973.6920, 208.5582
974.1741, 218.8761
974.6563, 231.1153
975.1384, 235.2274
975.6205, 232.4942
976.1026, 227.5448
976.5847, 219.2829
977.0668, 215.0139
977.5490, 219.5108
978.0311, 224.2743
978.5132, 223.8961
978.9953, 223.6537
979.4774, 232.3057
979.9595, 245.6723
980.4417, 248.3154
980.9238, 233.1052
981.4059, 220.0021
981.8880, 211.4341
982.3701, 210.1670
982.8522, 225.4088
983.3344, 242.8395
983.8165, 246.2618
984.2986, 237.6180
984.7807, 229.3045
985.2628, 223.8391
985.7449, 220.7565
986.2271, 221.2733
986.7092, 222.5887
987.1913, 223.9167
987.6734, 224.6010
988.1555, 222.6493
988.6376, 219.2798
989.1198, 219.9256
989.6019, 228.3179
990.0840, 234.5988
990.5661, 234.2267
991.0482, 231.1052
991.5303, 223.9324
992.0125, 217.9446
992.4946, 222.7505
992.9767, 235.3939
993.4588, 239.3323
993.9409, 225.6029
994.4230, 213.2319
994.9052, 211.3606
995.3873, 212.9493
995.8694, 214.2422
996.3515, 215.5820
996.8336, 218.2659
997.3157, 221.8871
997.7979, 224.0999
998.2800, 223.2802
998.7621, 223.3276
999.2442, 228.2453
999.7263, 232.2889
1000.208, 230.8725
1000.691, 226.5837
1001.173, 222.0954
1001.655, 218.1832
1002.137, 215.7971
1002.619, 215.4614
1003.101, 216.1014
1003.583, 217.3697
1004.065, 219.2724
1004.547, 221.4819
1005.030, 224.5319
1005.512, 231.1336
1005.994, 239.5173
1006.476, 241.7678
1006.958, 233.1791
1007.440, 224.5766
1007.922, 221.1846
1008.404, 219.1501
1008.887, 215.0211
1009.369, 211.3436
1009.851, 212.0189
1010.333, 216.4053
1010.815, 220.7214
1011.297, 224.6569
1011.779, 225.5615
1012.261, 218.8096
1012.743, 212.5833
1013.226, 213.8233
1013.708, 217.1514
1014.190, 214.1363
1014.672, 206.9650
1015.154, 207.1213
1015.636, 220.9245
1016.118, 230.8323
1016.600, 226.4550
1017.083, 220.3881
1017.565, 219.9459
1018.047, 221.2844
1018.529, 219.8945
1019.011, 216.2003
1019.493, 213.2168
1019.975, 211.9312
1020.457, 210.2494
1020.939, 204.5466
1021.422, 201.8625
1021.904, 210.0293
1022.386, 219.2367
1022.868, 218.7289
1023.350, 211.1820
1023.832, 205.5246
1024.314, 202.7849
1024.796, 205.3855
1025.279, 221.6685
1025.761, 233.5254
1026.243, 229.5148
1026.725, 221.7233
1027.207, 221.5266
1027.689, 225.6844
1028.171, 224.1725
1028.653, 214.0763
1029.135, 207.6461
1029.618, 211.5609
1030.100, 213.5234
1030.582, 207.4866
1031.064, 200.4571
1031.546, 196.0531
1032.028, 194.9463
1032.510, 199.1390
1032.992, 209.9024
1033.474, 216.8697
1033.957, 217.2461
1034.439, 216.1211
1034.921, 213.1534
1035.403, 210.3359
1035.885, 208.4874
1036.367, 207.7421
1036.849, 207.8642
1037.331, 208.6381
1037.814, 213.0451
1038.296, 227.6610
1038.778, 235.8294
1039.260, 233.1146
1039.742, 227.3055
1040.224, 219.1126
1040.706, 212.2119
1041.188, 213.5685
1041.671, 222.7878
1042.153, 223.4732
1042.635, 208.1131
1043.117, 199.9391
1043.599, 201.6455
1044.081, 208.9934
1044.563, 225.0184
1045.045, 239.8310
1045.527, 241.2309
1046.010, 231.1596
1046.492, 222.3941
1046.974, 213.1401
1047.456, 211.9915
1047.938, 223.5458
1048.420, 230.8584
1048.902, 226.6347
1049.384, 219.3068
1049.866, 217.0220
1050.349, 218.0391
1050.831, 215.2810
1051.313, 207.0926
1051.795, 207.9421
1052.277, 220.7692
1052.759, 226.3670
1053.241, 218.0576
1053.723, 207.1931
1054.205, 201.6145
1054.688, 201.5824
1055.170, 210.2199
1055.652, 227.0571
1056.134, 230.8765
1056.616, 221.3734
1057.098, 215.5229
1057.580, 216.9867
1058.062, 218.8046
1058.545, 216.7018
1059.027, 212.8643
1059.509, 210.1841
1059.991, 208.8194
1060.473, 210.9176
1060.955, 215.4085
1061.437, 213.9476
1061.919, 206.1734
1062.401, 202.3143
1062.884, 207.0580
1063.366, 211.4075
1063.848, 203.6800
1064.330, 190.8708
1064.812, 188.1421
1065.294, 192.4068
1065.776, 195.6875
1066.258, 197.6083
1066.740, 201.3393
1067.223, 207.4791
1067.705, 211.0737
1068.187, 206.9681
1068.669, 201.3130
1069.151, 202.9496
1069.633, 207.3674
1070.115, 207.1230
1070.597, 203.9210
1071.080, 203.0720
1071.562, 205.1963
1072.044, 206.7967
1072.526, 206.1198
1073.008, 204.0552
1073.490, 200.2375
1073.972, 196.3990
1074.454, 194.8709
1074.937, 193.9729
1075.419, 189.0287
1075.901, 182.3678
1076.383, 183.8641
1076.865, 198.2792
1077.347, 210.1096
1077.829, 211.9730
1078.311, 209.4658
1078.793, 200.7437
1079.276, 193.2928
1079.758, 195.7316
1080.240, 204.0818
1080.722, 209.8277
1081.204, 211.7777
1081.686, 209.2080
1082.168, 192.5647
1082.650, 185.0284
1083.132, 200.8505
1083.615, 217.2210
1084.097, 220.7282
1084.579, 217.3404
1085.061, 214.9247
1085.543, 213.5618
1086.025, 211.9677
1086.507, 209.9189
1086.989, 208.0886
1087.472, 206.5774
1087.954, 205.1044
1088.436, 203.3965
1088.918, 202.1240
1089.400, 202.8132
1089.882, 203.7941
1090.364, 198.3675
1090.846, 183.9724
1091.328, 179.6522
1091.811, 187.3817
1092.293, 195.3199
1092.775, 200.9865
1093.257, 205.3738
1093.739, 209.2663
1094.221, 211.8055
1094.703, 211.5982
1095.185, 208.7138
1095.667, 201.9862
1096.150, 192.1429
1096.632, 188.6226
1097.114, 192.3125
1097.596, 197.2157
1098.078, 200.7421
1098.560, 202.9891
1099.042, 203.8581
1099.524, 203.8750
1100.007, 204.0180
1100.489, 204.1119
1100.971, 203.7416
1101.453, 202.9317
1101.935, 201.2498
1102.417, 199.0573
1102.899, 199.5969
1103.381, 206.1309
1103.864, 209.8006
1104.346, 196.3237
1104.828, 181.2137
1105.310, 182.7482
1105.792, 192.9376
1106.274, 201.0458
1106.756, 205.3903
1107.238, 206.8786
1107.720, 205.6664
1108.203, 203.6408
1108.685, 201.8205
1109.167, 199.2135
1109.649, 192.4347
1110.131, 187.5552
1110.613, 191.7514
1111.095, 199.9794
1111.577, 203.9469
1112.059, 202.9564
1112.542, 200.1489
1113.024, 192.7657
1113.506, 188.6125
1113.988, 189.7895
1114.470, 192.4132
1114.952, 197.1925
1115.434, 200.6211
1115.916, 198.5320
1116.399, 192.9682
1116.881, 190.3045
1117.363, 190.4934
1117.845, 194.8314
1118.327, 205.5562
1118.809, 210.5225
1119.291, 206.6131
1119.773, 199.4483
1120.255, 191.6051
1120.738, 185.2607
1121.220, 183.6565
1121.702, 186.2411
1122.184, 192.8127
1122.666, 202.0653
1123.148, 201.8093
1123.630, 192.6320
1124.112, 189.7935
1124.594, 197.8486
1125.077, 205.2340
1125.559, 202.4984
1126.041, 196.2499
1126.523, 195.2747
1127.005, 197.1534
1127.487, 197.0166
1127.969, 196.8592
1128.451, 203.8624
1128.934, 215.6170
1129.416, 219.7206
1129.898, 211.0653
1130.380, 199.6312
1130.862, 187.6897
1131.344, 179.9260
1131.826, 181.3690
1132.308, 186.4232
1132.791, 192.1396
1133.273, 196.7431
1133.755, 197.7906
1134.237, 195.2165
1134.719, 192.2160
1135.201, 187.3540
1135.683, 185.5618
1136.165, 190.1344
1136.647, 194.2137
1137.130, 194.8260
1137.612, 194.9181
1138.094, 197.4745
1138.576, 200.9890
1139.058, 201.6542
1139.540, 199.3709
1140.022, 194.3601
1140.504, 185.0149
1140.986, 181.9897
1141.469, 187.8244
1141.951, 194.6322
1142.433, 198.8219
1142.915, 200.4891
1143.397, 199.1334
1143.879, 196.3857
1144.361, 197.4368
1144.843, 200.9203
1145.326, 200.3695
1145.808, 196.7251
1146.290, 196.1138
1146.772, 199.4525
1147.254, 202.3729
1147.736, 202.3568
1148.218, 201.4863
1148.700, 203.4301
1149.182, 203.9258
1149.665, 194.9235
1150.147, 184.2548
1150.629, 183.8489
1151.111, 190.0126
1151.593, 191.3706
1152.075, 186.0862
1152.557, 184.2887
1153.039, 193.2569
1153.521, 200.0625
1154.004, 199.8644
1154.486, 197.9936
1154.968, 198.6162
1155.450, 197.5018
1155.932, 186.0201
1156.414, 170.1960
1156.896, 168.1282
1157.378, 182.8197
1157.861, 194.0005
1158.343, 203.2068
1158.825, 202.2131
1159.307, 186.3299
1159.789, 174.6886
1160.271, 177.6188
1160.753, 183.1977
1161.235, 176.1381
1161.718, 164.2366
1162.200, 174.8144
1162.682, 201.4832
1163.164, 211.3727
1163.646, 205.7678
1164.128, 197.4292
1164.610, 190.1985
1165.092, 187.0156
1165.574, 189.5724
1166.057, 193.1824
1166.539, 192.8399
1167.021, 191.9125
1167.503, 193.5447
1167.985, 196.8421
1168.467, 202.9486
1168.949, 208.8786
1169.431, 208.5776
1169.913, 201.9133
1170.396, 195.9803
1170.878, 192.5283
1171.360, 190.4105
1171.842, 187.9854
1172.324, 188.6501
1172.806, 198.4920
1173.288, 206.7172
1173.770, 203.0262
1174.253, 194.5234
1174.735, 195.4547
1175.217, 205.6809
1175.699, 210.0877
1176.181, 207.6290
1176.663, 206.2860
1177.145, 207.0812
1177.627, 205.0999
1178.109, 198.4317
1178.592, 192.3561
1179.074, 191.1539
1179.556, 193.2012
1180.038, 197.1409
1180.520, 201.5305
1181.002, 203.0950
1181.484, 202.2153
1181.966, 199.3093
1182.448, 195.0221
1182.931, 189.8754
1183.413, 184.4419
1183.895, 183.2435
1184.377, 192.8275
1184.859, 200.0807
1185.341, 194.7342
1185.823, 187.6781
1186.305, 185.3669
1186.788, 186.0833
1187.270, 189.8255
1187.752, 194.3353
1188.234, 192.2689
1188.716, 181.6192
1189.198, 174.4517
1189.680, 170.4931
1190.162, 171.1910
1190.645, 178.4584
1191.127, 185.2530
1191.609, 188.7813
1192.091, 190.1986
1192.573, 190.4824
1193.055, 189.9901
1193.537, 189.5496
1194.019, 189.1078
1194.501, 187.3477
1194.984, 185.3617
1195.466, 190.3507
1195.948, 200.5177
1196.430, 200.2992
1196.912, 184.5784
1197.394, 173.8606
1197.876, 187.1353
1198.358, 203.9526
1198.840, 210.4196
1199.323, 210.8114
1199.805, 205.8484
1200.287, 199.2927
1200.769, 194.8485
1201.251, 192.7508
1201.733, 192.3302
1202.215, 193.8131
1202.697, 195.3079
1203.180, 195.4982
1203.662, 198.4756
1204.144, 207.4454
1204.626, 212.4875
1205.108, 208.0592
1205.590, 202.2944
1206.072, 203.8578
1206.554, 208.5613
1207.036, 204.4643
1207.519, 193.5784
1208.001, 189.7172
1208.483, 191.4468
1208.965, 189.8150
1209.447, 185.3094
1209.929, 188.5832
1210.411, 202.8084
1210.893, 215.6515
1211.375, 219.1455
1211.858, 216.5163
1212.340, 205.0204
1212.822, 194.1860
1213.304, 194.0319
1213.786, 197.4238
1214.268, 194.7399
1214.750, 188.3469
1215.232, 187.0120
1215.714, 192.4218
1216.197, 195.7194
1216.679, 195.1683
1217.161, 196.0618
1217.643, 199.9174
1218.125, 202.3085
1218.607, 202.0816
1219.089, 197.7423
1219.571, 186.9323
1220.054, 175.5263
1220.536, 175.6271
1221.018, 183.8768
1221.500, 189.4980
1221.982, 191.9163
1222.464, 186.0605
1222.946, 175.4060
1223.428, 173.4818
1223.911, 182.5843
1224.393, 190.8983
1224.875, 192.0483
1225.357, 191.7794
1225.839, 192.9027
1226.321, 194.4405
1226.803, 197.3459
1227.285, 198.9392
1227.767, 195.8594
1228.250, 190.4754
1228.732, 185.5916
1229.214, 181.8804
1229.696, 186.7126
1230.178, 204.5738
1230.660, 212.4632
1231.142, 209.0760
1231.624, 199.3426
1232.106, 183.7353
1232.589, 174.3980
1233.071, 178.1398
1233.553, 188.8167
1234.035, 202.0853
1234.517, 213.0909
1234.999, 212.0115
1235.481, 204.2863
1235.963, 196.5329
1236.446, 190.2424
1236.928, 187.3916
1237.410, 187.4060
1237.892, 187.9979
1238.374, 188.7128
1238.856, 188.0209
1239.338, 180.3529
1239.820, 179.0478
1240.302, 195.4915
1240.785, 207.2850
1241.267, 205.0329
1241.749, 196.4360
1242.231, 186.0795
1242.713, 177.6000
1243.195, 181.0501
1243.677, 194.3061
1244.159, 199.7991
##END=



