##NAMES=Willemite
##RRUFFID=R050652
##IDEAL CHEMISTRY=Zn^2+^_2_SiO_4_
##LOCALITY=Franklin Furnace, Sussex County, New Jersey, USA
##OWNER=RRUFF
##SOURCE=University of Arizona Mineral Museum
##DESCRIPTION=Parallel aggregate of colorless acicular crystals
##STATUS=The identification of this mineral has been confirmed by X-ray diffraction and chemical analysis
##URL=rruff.info/R050652
##MEASURED CHEMISTRY=(Zn_1.99_Mn_0.01_)_Î£=2_Si_1.00_O_4_
89.78156, 0.0000000E+00
90.26367, 352.8823
90.74579, 354.4041
91.22791, 353.5898
91.71002, 350.7340
92.19214, 348.4454
92.67426, 349.0815
93.15638, 351.9755
93.63850, 355.3946
94.12061, 359.3929
94.60273, 363.3981
95.08485, 365.7384
95.56696, 366.1977
96.04908, 366.3061
96.53120, 368.0089
97.01331, 371.2033
97.49543, 374.4277
97.97755, 376.9507
98.45966, 378.8045
98.94178, 381.0279
99.42390, 383.6874
99.90602, 386.6390
100.3881, 389.8418
100.8703, 393.5132
101.3524, 396.7174
101.8345, 398.9684
102.3166, 400.0727
102.7987, 400.8102
103.2808, 400.6268
103.7630, 400.1271
104.2451, 402.2906
104.7272, 408.9632
105.2093, 415.8876
105.6914, 420.0174
106.1735, 418.1151
106.6557, 418.8868
107.1378, 423.3391
107.6199, 431.5577
108.1020, 442.2321
108.5841, 455.8766
109.0662, 471.7954
109.5484, 489.5226
110.0305, 505.5818
110.5126, 527.0818
110.9947, 555.5130
111.4768, 591.8084
111.9590, 631.9717
112.4411, 672.7121
112.9232, 718.1808
113.4053, 772.4904
113.8874, 838.1506
114.3695, 911.7590
114.8517, 991.4870
115.3338, 1076.619
115.8159, 1168.811
116.2980, 1265.670
116.7801, 1370.737
117.2622, 1490.483
117.7444, 1627.421
118.2265, 1780.764
118.7086, 1948.951
119.1907, 2131.623
119.6728, 2332.321
120.1549, 2552.560
120.6371, 2792.506
121.1192, 3053.981
121.6013, 3344.562
122.0834, 3652.661
122.5655, 3964.400
123.0476, 4277.522
123.5298, 4590.924
124.0119, 4905.288
124.4940, 5220.291
124.9761, 5532.725
125.4582, 5844.383
125.9404, 6149.543
126.4225, 6434.116
126.9046, 6686.114
127.3867, 6916.159
127.8688, 7135.151
128.3509, 7341.563
128.8331, 7551.827
129.3152, 7776.908
129.7973, 8019.659
130.2794, 8287.794
130.7615, 8584.432
131.2436, 8909.458
131.7258, 9259.641
132.2079, 9635.678
132.6900, 10034.50
133.1721, 10458.53
133.6542, 10906.25
134.1364, 11358.87
134.6185, 11816.82
135.1006, 12281.07
135.5827, 12723.61
136.0648, 13145.58
136.5469, 13546.00
137.0291, 13923.08
137.5112, 14273.91
137.9933, 14603.14
138.4754, 14920.48
138.9575, 15226.30
139.4396, 15499.44
139.9218, 15729.30
140.4039, 15923.53
140.8860, 16115.45
141.3681, 16307.48
141.8502, 16490.63
142.3323, 16647.86
142.8145, 16763.85
143.2966, 16899.18
143.7787, 17065.04
144.2608, 17262.43
144.7429, 17458.65
145.2250, 17647.43
145.7072, 17843.09
146.1893, 18060.62
146.6714, 18308.28
147.1535, 18564.94
147.6356, 18825.68
148.1178, 19089.14
148.5999, 19359.05
149.0820, 19630.54
149.5641, 19909.61
150.0462, 20200.86
150.5283, 20522.66
151.0105, 20689.66
151.4926, 20936.96
151.9747, 20986.18
152.4568, 21034.99
152.9389, 21094.58
153.4210, 21152.58
153.9032, 21192.29
154.3853, 21207.83
154.8674, 21209.03
155.3495, 21196.46
155.8316, 21161.97
156.3137, 21133.12
156.7959, 21120.09
157.2780, 21114.63
157.7601, 21101.43
158.2422, 21067.18
158.7243, 21031.06
159.2065, 21002.13
159.6886, 20985.30
160.1707, 20968.38
160.6528, 20946.66
161.1349, 20921.63
161.6170, 20897.68
162.0992, 20874.73
162.5813, 20853.95
163.0634, 20835.97
163.5455, 20819.97
164.0276, 20807.65
164.5097, 20799.75
164.9919, 20796.08
165.4740, 20796.04
165.9561, 20806.04
166.4382, 20816.73
166.9203, 20819.26
167.4024, 20801.43
167.8846, 20785.07
168.3667, 20784.94
168.8488, 20799.27
169.3309, 20816.65
169.8130, 20833.04
170.2952, 20847.57
170.7773, 20858.92
171.2594, 20865.71
171.7415, 20869.65
172.2236, 20871.17
172.7057, 20870.23
173.1879, 20869.15
173.6700, 20871.13
174.1521, 20873.60
174.6342, 20872.50
175.1163, 20861.64
175.5984, 20848.16
176.0806, 20843.32
176.5627, 20847.12
177.0448, 20847.27
177.5269, 20831.46
178.0090, 20803.68
178.4911, 20772.93
178.9733, 20743.16
179.4554, 20713.28
179.9375, 20678.17
180.4196, 20637.20
180.9017, 20601.27
181.3838, 20586.63
181.8660, 20588.48
182.3481, 20588.83
182.8302, 20582.66
183.3123, 20569.46
183.7944, 20542.72
184.2766, 20499.26
184.7587, 20458.94
185.2408, 20449.89
185.7229, 20468.03
186.2050, 20487.50
186.6871, 20496.18
187.1693, 20496.04
187.6514, 20492.68
188.1335, 20485.14
188.6156, 20477.36
189.0977, 20474.06
189.5798, 20475.01
190.0620, 20479.92
190.5441, 20491.38
191.0262, 20507.57
191.5083, 20518.33
191.9904, 20523.23
192.4725, 20522.15
192.9547, 20513.21
193.4368, 20496.18
193.9189, 20478.64
194.4010, 20465.18
194.8831, 20455.63
195.3652, 20444.79
195.8474, 20431.18
196.3295, 20418.38
196.8116, 20415.80
197.2937, 20424.79
197.7758, 20431.87
198.2579, 20427.63
198.7401, 20411.72
199.2222, 20397.04
199.7043, 20383.29
200.1864, 20372.39
200.6685, 20370.98
201.1507, 20380.85
201.6328, 20390.79
202.1149, 20393.86
202.5970, 20389.38
203.0791, 20384.41
203.5612, 20381.18
204.0434, 20376.72
204.5255, 20360.91
205.0076, 20330.80
205.4897, 20300.00
205.9718, 20277.02
206.4539, 20263.03
206.9361, 20250.76
207.4182, 20239.51
207.9003, 20229.88
208.3824, 20223.64
208.8645, 20221.59
209.3466, 20221.13
209.8288, 20220.38
210.3109, 20218.65
210.7930, 20220.15
211.2751, 20227.12
211.7572, 20237.10
212.2393, 20241.02
212.7215, 20237.65
213.2036, 20230.68
213.6857, 20221.16
214.1678, 20206.83
214.6499, 20197.08
215.1320, 20193.33
215.6142, 20194.40
216.0963, 20196.68
216.5784, 20202.70
217.0605, 20204.97
217.5426, 20197.15
218.0247, 20174.63
218.5069, 20155.95
218.9890, 20143.10
219.4711, 20135.46
219.9532, 20129.71
220.4353, 20125.90
220.9175, 20124.12
221.3996, 20125.07
221.8817, 20130.86
222.3638, 20134.42
222.8459, 20135.86
223.3280, 20134.68
223.8102, 20127.62
224.2923, 20111.09
224.7744, 20093.76
225.2565, 20080.18
225.7386, 20068.10
226.2207, 20065.42
226.7029, 20078.34
227.1850, 20101.89
227.6671, 20109.07
228.1492, 20091.66
228.6313, 20069.49
229.1134, 20054.78
229.5956, 20051.34
230.0777, 20046.95
230.5598, 20041.84
231.0419, 20035.46
231.5240, 20023.79
232.0062, 20003.01
232.4883, 19982.66
232.9704, 19968.18
233.4525, 19959.92
233.9346, 19957.85
234.4167, 19966.59
234.8989, 19982.19
235.3810, 19984.84
235.8631, 19964.91
236.3452, 19944.29
236.8273, 19935.98
237.3094, 19947.01
237.7916, 19954.32
238.2737, 19956.36
238.7558, 19953.40
239.2379, 19946.81
239.7200, 19934.29
240.2021, 19920.82
240.6843, 19909.22
241.1664, 19901.48
241.6485, 19891.27
242.1306, 19878.01
242.6127, 19862.33
243.0948, 19846.38
243.5770, 19829.13
244.0591, 19813.83
244.5412, 19803.74
245.0233, 19805.53
245.5054, 19797.90
245.9876, 19775.11
246.4697, 19743.58
246.9518, 19723.14
247.4339, 19718.70
247.9160, 19717.98
248.3981, 19714.49
248.8803, 19703.97
249.3624, 19700.63
249.8445, 19707.34
250.3266, 19720.28
250.8087, 19729.31
251.2908, 19732.29
251.7730, 19733.82
252.2551, 19735.58
252.7372, 19737.07
253.2193, 19739.73
253.7014, 19745.11
254.1835, 19750.80
254.6657, 19750.53
255.1478, 19740.32
255.6299, 19731.23
256.1120, 19728.22
256.5941, 19733.61
257.0763, 19739.22
257.5584, 19748.77
258.0405, 19756.58
258.5226, 19749.16
259.0047, 19718.41
259.4868, 19689.32
259.9690, 19672.38
260.4511, 19670.74
260.9332, 19666.89
261.4153, 19659.09
261.8974, 19650.54
262.3795, 19647.00
262.8617, 19649.86
263.3438, 19654.03
263.8259, 19657.09
264.3080, 19658.07
264.7901, 19665.79
265.2722, 19685.46
265.7544, 19705.49
266.2365, 19706.53
266.7186, 19681.62
267.2007, 19658.95
267.6828, 19648.64
268.1649, 19651.58
268.6471, 19649.85
269.1292, 19642.24
269.6113, 19632.03
270.0934, 19623.66
270.5755, 19618.13
271.0576, 19610.33
271.5398, 19597.50
272.0219, 19579.81
272.5040, 19568.10
272.9861, 19563.56
273.4682, 19562.67
273.9503, 19562.13
274.4325, 19561.91
274.9146, 19562.18
275.3967, 19564.15
275.8788, 19566.91
276.3610, 19561.49
276.8431, 19545.19
277.3252, 19529.12
277.8073, 19523.97
278.2894, 19530.50
278.7715, 19541.26
279.2537, 19557.86
279.7358, 19577.26
280.2179, 19586.14
280.7000, 19583.72
281.1821, 19575.19
281.6642, 19562.72
282.1464, 19546.31
282.6285, 19532.35
283.1106, 19521.82
283.5927, 19514.28
284.0748, 19509.48
284.5569, 19507.57
285.0391, 19505.04
285.5212, 19497.22
286.0033, 19484.69
286.4854, 19477.06
286.9675, 19475.84
287.4496, 19478.94
287.9318, 19485.09
288.4139, 19494.34
288.8960, 19498.32
289.3781, 19488.00
289.8602, 19466.89
290.3423, 19453.02
290.8245, 19449.01
291.3066, 19450.46
291.7887, 19454.42
292.2708, 19460.12
292.7529, 19458.28
293.2350, 19437.71
293.7172, 19405.34
294.1993, 19383.54
294.6814, 19374.21
295.1635, 19370.92
295.6456, 19366.86
296.1277, 19362.16
296.6099, 19357.87
297.0920, 19354.03
297.5741, 19350.86
298.0562, 19349.68
298.5383, 19350.63
299.0204, 19351.01
299.5026, 19347.15
299.9847, 19340.50
300.4668, 19334.93
300.9489, 19335.12
301.4311, 19335.91
301.9132, 19328.28
302.3953, 19312.63
302.8774, 19297.93
303.3595, 19293.11
303.8416, 19294.04
304.3238, 19293.06
304.8059, 19285.04
305.2880, 19276.94
305.7701, 19277.81
306.2522, 19286.18
306.7343, 19293.17
307.2165, 19292.20
307.6986, 19286.57
308.1807, 19279.81
308.6628, 19270.19
309.1449, 19263.34
309.6270, 19266.43
310.1092, 19276.31
310.5913, 19283.17
311.0734, 19278.06
311.5555, 19269.20
312.0376, 19263.85
312.5197, 19263.95
313.0019, 19265.40
313.4840, 19266.24
313.9661, 19266.74
314.4482, 19267.50
314.9303, 19270.66
315.4124, 19273.09
315.8946, 19272.79
316.3767, 19269.35
316.8588, 19264.99
317.3409, 19262.34
317.8230, 19259.11
318.3051, 19252.17
318.7873, 19237.32
319.2694, 19221.58
319.7515, 19206.69
320.2336, 19192.61
320.7157, 19182.43
321.1978, 19179.20
321.6800, 19179.25
322.1621, 19179.26
322.6442, 19179.72
323.1263, 19178.63
323.6084, 19174.62
324.0905, 19167.88
324.5727, 19161.99
325.0548, 19154.85
325.5369, 19150.60
326.0190, 19151.85
326.5012, 19173.63
326.9833, 19183.98
327.4654, 19172.20
327.9475, 19145.05
328.4296, 19129.58
328.9117, 19132.47
329.3939, 19141.21
329.8760, 19151.58
330.3581, 19168.79
330.8402, 19177.19
331.3223, 19172.49
331.8044, 19159.67
332.2866, 19148.55
332.7687, 19137.27
333.2508, 19129.71
333.7329, 19128.38
334.2150, 19135.74
334.6971, 19136.18
335.1793, 19128.08
335.6614, 19114.70
336.1435, 19100.22
336.6256, 19084.91
337.1077, 19068.60
337.5898, 19051.23
338.0720, 19033.16
338.5541, 19018.35
339.0362, 19006.71
339.5183, 18999.71
340.0004, 19001.43
340.4825, 19014.29
340.9647, 19020.45
341.4468, 19015.14
341.9289, 19002.15
342.4110, 18993.75
342.8931, 18990.42
343.3752, 18987.58
343.8574, 18980.51
344.3395, 18969.38
344.8216, 18961.69
345.3037, 18957.16
345.7858, 18957.32
346.2679, 18968.41
346.7501, 18989.50
347.2322, 19007.38
347.7143, 19014.22
348.1964, 19012.21
348.6785, 19008.22
349.1607, 19002.22
349.6428, 18995.58
350.1249, 18991.51
350.6070, 18988.53
351.0891, 18981.51
351.5713, 18963.86
352.0534, 18943.55
352.5355, 18935.47
353.0176, 18939.28
353.4997, 18939.67
353.9818, 18918.05
354.4640, 18886.91
354.9461, 18865.94
355.4282, 18867.37
355.9103, 18872.93
356.3924, 18865.85
356.8745, 18848.82
357.3567, 18832.48
357.8388, 18823.17
358.3209, 18816.97
358.8030, 18810.31
359.2851, 18802.16
359.7672, 18794.88
360.2494, 18788.80
360.7315, 18784.52
361.2136, 18783.14
361.6957, 18786.98
362.1778, 18792.13
362.6599, 18798.32
363.1421, 18806.24
363.6242, 18807.87
364.1063, 18790.83
364.5884, 18770.05
365.0705, 18760.91
365.5526, 18778.34
366.0348, 18794.96
366.5169, 18805.64
366.9990, 18810.19
367.4811, 18809.72
367.9632, 18795.84
368.4453, 18782.62
368.9275, 18778.42
369.4096, 18798.82
369.8917, 18806.69
370.3738, 18793.89
370.8559, 18768.38
371.3380, 18752.96
371.8202, 18754.77
372.3023, 18756.90
372.7844, 18752.75
373.2665, 18740.77
373.7487, 18729.26
374.2308, 18718.31
374.7129, 18707.90
375.1950, 18697.37
375.6771, 18685.89
376.1592, 18677.29
376.6414, 18673.05
377.1235, 18672.90
377.6056, 18673.82
378.0877, 18676.54
378.5698, 18678.46
379.0519, 18676.85
379.5341, 18671.78
380.0162, 18667.33
380.4983, 18664.94
380.9804, 18662.75
381.4625, 18656.71
381.9446, 18646.74
382.4268, 18634.76
382.9089, 18619.75
383.3910, 18603.37
383.8731, 18591.76
384.3552, 18586.37
384.8373, 18580.90
385.3195, 18564.01
385.8016, 18540.32
386.2837, 18523.34
386.7658, 18524.24
387.2479, 18532.75
387.7300, 18538.07
388.2122, 18539.99
388.6943, 18536.22
389.1764, 18519.67
389.6585, 18498.23
390.1406, 18482.42
390.6227, 18477.90
391.1049, 18475.74
391.5870, 18470.87
392.0691, 18463.76
392.5512, 18455.97
393.0333, 18450.24
393.5154, 18442.62
393.9976, 18428.39
394.4797, 18402.88
394.9618, 18384.88
395.4439, 18386.74
395.9260, 18397.81
396.4081, 18403.90
396.8903, 18396.38
397.3724, 18389.37
397.8545, 18389.01
398.3366, 18395.96
398.8188, 18395.95
399.3009, 18382.91
399.7830, 18366.00
400.2651, 18350.62
400.7472, 18332.82
401.2293, 18322.76
401.7115, 18325.67
402.1936, 18336.03
402.6757, 18336.66
403.1578, 18322.90
403.6399, 18307.10
404.1220, 18293.56
404.6042, 18281.70
405.0863, 18275.85
405.5684, 18279.17
406.0505, 18283.48
406.5326, 18276.43
407.0147, 18256.20
407.4969, 18238.79
407.9790, 18229.76
408.4611, 18226.63
408.9432, 18218.61
409.4253, 18205.40
409.9074, 18192.11
410.3896, 18183.33
410.8717, 18178.10
411.3538, 18171.61
411.8359, 18162.74
412.3180, 18153.70
412.8001, 18149.17
413.2823, 18147.76
413.7644, 18143.58
414.2465, 18127.09
414.7286, 18108.79
415.2107, 18105.41
415.6928, 18118.11
416.1750, 18129.87
416.6571, 18127.70
417.1392, 18116.63
417.6213, 18103.25
418.1034, 18088.24
418.5855, 18073.28
419.0677, 18058.60
419.5498, 18044.66
420.0319, 18033.58
420.5140, 18025.68
420.9961, 18021.24
421.4782, 18021.75
421.9604, 18031.13
422.4425, 18035.46
422.9246, 18029.87
423.4067, 18018.06
423.8889, 18005.03
424.3710, 17989.78
424.8531, 17975.04
425.3352, 17960.85
425.8173, 17947.18
426.2994, 17937.26
426.7816, 17932.33
427.2637, 17930.00
427.7458, 17929.77
428.2279, 17935.68
428.7100, 17932.84
429.1921, 17916.43
429.6743, 17893.28
430.1564, 17882.53
430.6385, 17889.10
431.1206, 17888.80
431.6027, 17865.64
432.0848, 17821.19
432.5670, 17800.85
433.0491, 17808.90
433.5312, 17823.50
434.0133, 17820.58
434.4954, 17802.65
434.9775, 17786.04
435.4597, 17774.25
435.9418, 17766.78
436.4239, 17764.58
436.9060, 17766.99
437.3881, 17769.35
437.8702, 17770.18
438.3524, 17768.47
438.8345, 17760.73
439.3166, 17745.21
439.7987, 17732.14
440.2808, 17732.03
440.7629, 17739.04
441.2451, 17744.12
441.7272, 17746.60
442.2093, 17743.49
442.6914, 17731.11
443.1735, 17710.60
443.6556, 17689.61
444.1378, 17666.30
444.6199, 17646.71
445.1020, 17635.44
445.5841, 17637.46
446.0662, 17640.03
446.5483, 17646.29
447.0305, 17651.51
447.5126, 17647.07
447.9947, 17616.67
448.4768, 17596.89
448.9590, 17601.87
449.4411, 17632.36
449.9232, 17641.54
450.4053, 17617.98
450.8874, 17589.18
451.3695, 17576.72
451.8517, 17584.99
452.3338, 17588.30
452.8159, 17582.68
453.2980, 17572.53
453.7801, 17567.41
454.2622, 17567.69
454.7444, 17567.00
455.2265, 17560.82
455.7086, 17551.17
456.1907, 17548.21
456.6728, 17552.54
457.1549, 17556.63
457.6371, 17552.69
458.1192, 17543.25
458.6013, 17534.52
459.0834, 17529.23
459.5655, 17523.13
460.0476, 17509.90
460.5298, 17491.70
461.0119, 17475.67
461.4940, 17464.60
461.9761, 17457.40
462.4582, 17455.09
462.9403, 17458.27
463.4225, 17458.28
463.9046, 17450.72
464.3867, 17438.33
464.8688, 17423.92
465.3509, 17405.95
465.8330, 17388.54
466.3152, 17371.31
466.7973, 17355.20
467.2794, 17343.54
467.7615, 17339.30
468.2436, 17336.77
468.7257, 17334.96
469.2079, 17335.13
469.6900, 17329.62
470.1721, 17314.43
470.6542, 17297.79
471.1363, 17289.20
471.6184, 17291.07
472.1006, 17291.09
472.5827, 17286.68
473.0648, 17279.32
473.5469, 17273.64
474.0291, 17269.85
474.5112, 17265.88
474.9933, 17261.65
475.4754, 17256.58
475.9575, 17246.22
476.4396, 17229.62
476.9218, 17214.18
477.4039, 17208.95
477.8860, 17210.92
478.3681, 17213.18
478.8502, 17212.64
479.3323, 17212.33
479.8145, 17217.69
480.2966, 17226.37
480.7787, 17229.94
481.2608, 17221.09
481.7429, 17207.50
482.2250, 17193.70
482.7072, 17179.87
483.1893, 17167.51
483.6714, 17160.12
484.1535, 17153.24
484.6356, 17142.43
485.1177, 17124.63
485.5999, 17105.95
486.0820, 17084.50
486.5641, 17062.73
487.0462, 17049.14
487.5283, 17048.45
488.0104, 17050.25
488.4926, 17051.61
488.9747, 17053.30
489.4568, 17049.43
489.9389, 17037.90
490.4210, 17024.70
490.9031, 17016.90
491.3853, 17014.68
491.8674, 17012.33
492.3495, 17008.25
492.8316, 17003.60
493.3137, 17002.25
493.7958, 17003.60
494.2780, 17002.38
494.7601, 16990.51
495.2422, 16975.09
495.7243, 16971.73
496.2064, 16981.45
496.6885, 16992.45
497.1707, 16997.94
497.6528, 16998.08
498.1349, 16992.29
498.6170, 16973.56
499.0992, 16958.83
499.5813, 16963.77
500.0634, 16979.89
500.5455, 16986.47
501.0276, 16967.70
501.5097, 16946.16
501.9919, 16930.55
502.4740, 16922.21
502.9561, 16915.42
503.4382, 16911.44
503.9203, 16907.67
504.4024, 16902.44
504.8846, 16896.45
505.3667, 16887.94
505.8488, 16876.83
506.3309, 16863.34
506.8130, 16845.96
507.2951, 16822.53
507.7773, 16805.68
508.2594, 16803.13
508.7415, 16811.75
509.2236, 16813.17
509.7057, 16807.09
510.1878, 16798.30
510.6700, 16791.86
511.1521, 16785.95
511.6342, 16773.75
512.1163, 16752.82
512.5984, 16731.22
513.0806, 16714.74
513.5627, 16704.04
514.0448, 16700.49
514.5269, 16714.17
515.0090, 16727.24
515.4911, 16727.79
515.9733, 16716.53
516.4554, 16700.28
516.9375, 16668.54
517.4196, 16641.81
517.9017, 16635.10
518.3839, 16663.19
518.8660, 16678.75
519.3481, 16669.27
519.8302, 16648.13
520.3123, 16629.57
520.7944, 16617.61
521.2766, 16600.29
521.7587, 16570.96
522.2408, 16536.00
522.7229, 16522.43
523.2050, 16536.90
523.6871, 16549.35
524.1693, 16539.33
524.6514, 16509.89
525.1335, 16498.76
525.6156, 16508.10
526.0977, 16522.23
526.5798, 16526.23
527.0620, 16522.23
527.5441, 16516.66
528.0262, 16511.42
528.5083, 16503.94
528.9904, 16486.59
529.4725, 16464.34
529.9547, 16449.75
530.4368, 16453.35
530.9189, 16462.87
531.4010, 16471.75
531.8831, 16479.56
532.3652, 16485.29
532.8474, 16493.04
533.3295, 16495.60
533.8116, 16487.61
534.2937, 16457.50
534.7758, 16436.08
535.2579, 16430.71
535.7401, 16431.44
536.2222, 16423.60
536.7043, 16402.62
537.1864, 16384.28
537.6685, 16372.17
538.1506, 16365.58
538.6328, 16361.37
539.1149, 16359.77
539.5970, 16360.09
540.0791, 16364.83
540.5612, 16371.91
541.0433, 16368.40
541.5255, 16352.61
542.0076, 16337.55
542.4897, 16337.72
542.9718, 16347.48
543.4539, 16355.65
543.9360, 16358.28
544.4182, 16359.30
544.9003, 16362.76
545.3824, 16366.68
545.8645, 16366.88
546.3466, 16358.34
546.8287, 16348.44
547.3109, 16340.49
547.7930, 16334.73
548.2751, 16328.51
548.7572, 16320.19
549.2393, 16312.36
549.7214, 16306.57
550.2036, 16303.94
550.6857, 16301.71
551.1678, 16302.06
551.6499, 16300.94
552.1320, 16292.42
552.6141, 16275.91
553.0963, 16256.51
553.5784, 16234.73
554.0605, 16211.68
554.5426, 16189.58
555.0247, 16168.53
555.5068, 16149.33
555.9890, 16130.89
556.4711, 16115.24
556.9532, 16108.13
557.4353, 16109.63
557.9174, 16110.97
558.3995, 16105.54
558.8817, 16096.21
559.3638, 16085.92
559.8459, 16074.81
560.3281, 16063.91
560.8102, 16054.12
561.2923, 16044.81
561.7744, 16035.08
562.2565, 16022.67
562.7386, 16012.31
563.2208, 16006.51
563.7029, 16004.34
564.1850, 15998.01
564.6671, 15985.51
565.1492, 15972.79
565.6313, 15963.02
566.1135, 15956.62
566.5956, 15948.54
567.0777, 15938.26
567.5598, 15928.26
568.0419, 15921.39
568.5240, 15917.06
569.0062, 15911.87
569.4883, 15904.36
569.9704, 15897.63
570.4525, 15898.98
570.9346, 15904.64
571.4167, 15904.91
571.8989, 15889.63
572.3810, 15872.25
572.8631, 15861.52
573.3452, 15857.09
573.8273, 15854.62
574.3094, 15855.56
574.7916, 15855.77
575.2737, 15853.07
575.7558, 15846.88
576.2379, 15838.93
576.7200, 15828.30
577.2021, 15816.75
577.6843, 15804.63
578.1664, 15789.05
578.6485, 15782.29
579.1306, 15788.55
579.6127, 15800.56
580.0948, 15804.31
580.5770, 15799.75
581.0591, 15790.93
581.5412, 15776.80
582.0233, 15760.94
582.5054, 15754.21
582.9875, 15755.06
583.4697, 15750.92
583.9518, 15722.90
584.4339, 15691.13
584.9160, 15680.99
585.3981, 15697.77
585.8802, 15712.18
586.3624, 15709.16
586.8445, 15697.17
587.3266, 15683.95
587.8087, 15669.20
588.2908, 15655.90
588.7729, 15643.41
589.2551, 15632.88
589.7372, 15626.85
590.2193, 15628.37
590.7014, 15627.96
591.1835, 15622.33
591.6656, 15612.77
592.1478, 15607.58
592.6299, 15607.52
593.1120, 15605.25
593.5941, 15594.72
594.0762, 15578.06
594.5583, 15562.75
595.0405, 15549.04
595.5226, 15537.64
596.0047, 15532.18
596.4868, 15528.66
596.9689, 15520.30
597.4510, 15503.16
597.9332, 15488.08
598.4153, 15486.21
598.8974, 15489.54
599.3795, 15485.88
599.8616, 15465.52
600.3438, 15445.42
600.8259, 15429.33
601.3080, 15416.79
601.7901, 15406.19
602.2722, 15397.08
602.7543, 15390.59
603.2365, 15387.35
603.7186, 15387.13
604.2007, 15386.37
604.6828, 15384.41
605.1649, 15383.24
605.6470, 15386.29
606.1292, 15391.58
606.6113, 15391.05
607.0934, 15383.23
607.5755, 15372.35
608.0576, 15362.82
608.5398, 15353.36
609.0219, 15342.26
609.5040, 15330.64
609.9861, 15315.20
610.4683, 15289.06
610.9504, 15258.53
611.4325, 15236.56
611.9146, 15236.25
612.3967, 15236.00
612.8788, 15229.81
613.3610, 15218.35
613.8431, 15205.73
614.3252, 15190.07
614.8073, 15176.99
615.2894, 15169.84
615.7715, 15168.97
616.2537, 15167.04
616.7358, 15164.10
617.2179, 15158.90
617.7000, 15145.88
618.1821, 15128.71
618.6642, 15122.31
619.1464, 15130.67
619.6285, 15143.17
620.1106, 15153.79
620.5927, 15160.08
621.0748, 15157.96
621.5569, 15138.37
622.0391, 15117.55
622.5212, 15101.49
623.0033, 15089.78
623.4854, 15080.98
623.9675, 15077.92
624.4496, 15075.20
624.9318, 15072.42
625.4139, 15069.70
625.8960, 15062.63
626.3781, 15049.72
626.8602, 15036.62
627.3423, 15026.33
627.8245, 15018.89
628.3066, 15014.81
628.7887, 15014.42
629.2708, 15014.70
629.7529, 15012.75
630.2350, 15008.85
630.7172, 15003.52
631.1993, 14996.02
631.6814, 14988.65
632.1635, 14984.41
632.6456, 14981.08
633.1277, 14975.19
633.6099, 14964.53
634.0920, 14952.16
634.5741, 14936.39
635.0562, 14919.36
635.5383, 14908.43
636.0204, 14907.67
636.5026, 14908.03
636.9847, 14908.49
637.4668, 14908.80
637.9489, 14902.06
638.4310, 14887.40
638.9131, 14870.28
639.3953, 14853.62
639.8774, 14837.39
640.3595, 14820.95
640.8416, 14804.01
641.3237, 14789.39
641.8058, 14780.43
642.2880, 14775.31
642.7701, 14771.85
643.2522, 14769.57
643.7343, 14768.41
644.2164, 14770.71
644.6985, 14773.22
645.1807, 14771.66
645.6628, 14763.92
646.1449, 14753.20
646.6270, 14737.63
647.1091, 14719.92
647.5912, 14707.93
648.0734, 14703.78
648.5555, 14699.22
649.0376, 14690.93
649.5197, 14680.25
650.0018, 14673.75
650.4839, 14671.35
650.9661, 14668.78
651.4482, 14662.71
651.9303, 14654.86
652.4124, 14648.08
652.8945, 14642.54
653.3766, 14637.66
653.8588, 14633.20
654.3409, 14629.29
654.8230, 14626.35
655.3051, 14625.46
655.7872, 14622.70
656.2693, 14611.59
656.7515, 14601.31
657.2336, 14601.33
657.7158, 14619.25
658.1979, 14630.35
658.6800, 14631.59
659.1621, 14626.04
659.6442, 14617.47
660.1263, 14605.67
660.6085, 14596.33
661.0906, 14592.38
661.5727, 14590.15
662.0548, 14581.60
662.5369, 14568.63
663.0190, 14558.69
663.5012, 14563.50
663.9833, 14567.07
664.4654, 14553.06
664.9475, 14524.17
665.4296, 14501.87
665.9117, 14500.74
666.3939, 14501.99
666.8760, 14496.25
667.3581, 14482.40
667.8402, 14468.86
668.3223, 14451.41
668.8044, 14441.02
669.2866, 14452.29
669.7687, 14486.93
670.2508, 14496.48
670.7329, 14474.47
671.2150, 14443.73
671.6971, 14426.16
672.1793, 14419.83
672.6614, 14422.56
673.1435, 14438.65
673.6256, 14450.01
674.1077, 14435.24
674.5898, 14407.83
675.0720, 14388.97
675.5541, 14396.55
676.0362, 14400.69
676.5183, 14391.57
677.0004, 14373.37
677.4825, 14357.36
677.9647, 14344.06
678.4468, 14333.01
678.9289, 14324.88
679.4110, 14319.16
679.8931, 14311.65
680.3752, 14302.25
680.8574, 14295.16
681.3395, 14294.75
681.8216, 14297.76
682.3037, 14298.47
682.7858, 14296.58
683.2679, 14290.41
683.7501, 14272.82
684.2322, 14254.22
684.7143, 14244.58
685.1964, 14247.12
685.6785, 14245.42
686.1606, 14227.82
686.6428, 14209.62
687.1249, 14202.41
687.6070, 14214.81
688.0891, 14218.16
688.5712, 14209.60
689.0533, 14196.97
689.5355, 14190.67
690.0176, 14190.39
690.4997, 14186.34
690.9818, 14175.67
691.4639, 14164.29
691.9460, 14164.08
692.4282, 14169.25
692.9103, 14166.57
693.3924, 14141.95
693.8745, 14118.63
694.3566, 14109.48
694.8387, 14111.64
695.3209, 14118.58
695.8030, 14137.00
696.2851, 14150.30
696.7672, 14154.16
697.2493, 14149.69
697.7314, 14141.96
698.2136, 14129.49
698.6957, 14118.57
699.1778, 14112.76
699.6599, 14110.73
700.1420, 14106.96
700.6241, 14101.54
701.1063, 14094.73
701.5884, 14084.54
702.0705, 14074.41
702.5526, 14070.27
703.0347, 14072.50
703.5168, 14071.83
703.9990, 14061.23
704.4811, 14047.85
704.9632, 14036.71
705.4453, 14029.16
705.9274, 14021.02
706.4095, 14010.53
706.8917, 14001.31
707.3738, 13997.15
707.8560, 13998.81
708.3381, 13999.67
708.8202, 13999.79
709.3023, 13997.37
709.7844, 13988.16
710.2665, 13974.58
710.7487, 13963.12
711.2308, 13955.82
711.7129, 13950.32
712.1950, 13944.14
712.6771, 13938.64
713.1592, 13935.80
713.6414, 13938.21
714.1235, 13940.99
714.6056, 13945.27
715.0877, 13948.66
715.5698, 13945.27
716.0519, 13930.97
716.5341, 13920.88
717.0162, 13920.58
717.4983, 13925.40
717.9804, 13921.71
718.4625, 13909.90
718.9446, 13896.41
719.4268, 13884.74
719.9089, 13872.91
720.3910, 13855.75
720.8731, 13835.35
721.3552, 13819.82
721.8373, 13816.11
722.3195, 13816.16
722.8016, 13818.11
723.2837, 13821.80
723.7658, 13818.92
724.2479, 13804.55
724.7300, 13790.36
725.2122, 13781.94
725.6943, 13779.39
726.1764, 13777.64
726.6585, 13777.12
727.1406, 13774.36
727.6227, 13764.43
728.1049, 13750.50
728.5870, 13739.95
729.0691, 13733.34
729.5512, 13729.33
730.0333, 13730.28
730.5154, 13731.36
730.9976, 13728.01
731.4797, 13718.76
731.9618, 13707.33
732.4439, 13689.84
732.9260, 13673.80
733.4081, 13665.73
733.8903, 13669.16
734.3724, 13669.07
734.8545, 13664.25
735.3366, 13657.17
735.8187, 13648.50
736.3008, 13639.66
736.7830, 13638.25
737.2651, 13647.57
737.7472, 13658.84
738.2293, 13665.78
738.7114, 13668.20
739.1935, 13665.74
739.6757, 13655.95
740.1578, 13644.03
740.6399, 13628.13
741.1220, 13611.71
741.6041, 13600.66
742.0862, 13597.31
742.5684, 13593.60
743.0505, 13587.46
743.5326, 13580.84
744.0147, 13580.93
744.4968, 13586.73
744.9789, 13585.10
745.4611, 13568.15
745.9432, 13545.14
746.4253, 13525.25
746.9074, 13509.01
747.3895, 13498.01
747.8716, 13503.27
748.3538, 13503.94
748.8359, 13485.81
749.3180, 13453.90
749.8001, 13434.04
750.2822, 13432.79
750.7643, 13434.27
751.2465, 13435.57
751.7286, 13435.78
752.2107, 13428.40
752.6928, 13413.24
753.1749, 13400.24
753.6570, 13396.70
754.1392, 13398.05
754.6213, 13396.90
755.1034, 13393.54
755.5855, 13390.35
756.0676, 13388.34
756.5498, 13386.81
757.0319, 13386.05
757.5140, 13385.95
757.9962, 13382.02
758.4783, 13369.29
758.9604, 13359.18
759.4425, 13358.45
759.9246, 13366.63
760.4067, 13365.67
760.8889, 13354.40
761.3710, 13344.31
761.8531, 13348.70
762.3352, 13358.76
762.8173, 13356.45
763.2994, 13341.31
763.7816, 13324.80
764.2637, 13315.00
764.7458, 13306.19
765.2279, 13294.36
765.7100, 13278.48
766.1921, 13262.40
766.6743, 13242.88
767.1564, 13227.72
767.6385, 13223.53
768.1206, 13231.94
768.6027, 13235.54
769.0848, 13233.78
769.5670, 13229.63
770.0491, 13226.41
770.5312, 13222.46
771.0133, 13212.51
771.4954, 13195.04
771.9775, 13181.69
772.4597, 13185.30
772.9418, 13192.72
773.4239, 13192.20
773.9060, 13177.22
774.3881, 13166.64
774.8702, 13162.92
775.3524, 13161.87
775.8345, 13161.62
776.3166, 13162.91
776.7987, 13155.64
777.2808, 13137.79
777.7629, 13119.52
778.2451, 13111.37
778.7272, 13110.94
779.2093, 13114.85
779.6914, 13123.97
780.1735, 13130.34
780.6556, 13127.19
781.1378, 13119.89
781.6199, 13113.72
782.1020, 13112.73
782.5841, 13106.46
783.0662, 13090.08
783.5483, 13073.55
784.0305, 13069.82
784.5126, 13079.35
784.9947, 13084.66
785.4768, 13083.95
785.9589, 13077.64
786.4410, 13063.32
786.9232, 13044.48
787.4053, 13026.79
787.8874, 13011.01
788.3695, 12998.25
788.8516, 12989.14
789.3337, 12983.03
789.8159, 12979.38
790.2980, 12981.56
790.7801, 12979.89
791.2622, 12973.22
791.7443, 12963.81
792.2264, 12954.32
792.7086, 12944.69
793.1907, 12935.65
793.6728, 12927.07
794.1549, 12919.85
794.6370, 12914.88
795.1191, 12911.94
795.6013, 12911.29
796.0834, 12916.34
796.5655, 12917.08
797.0476, 12908.00
797.5297, 12893.60
798.0118, 12879.07
798.4940, 12861.91
798.9761, 12850.75
799.4582, 12847.20
799.9403, 12847.98
800.4224, 12849.73
800.9045, 12852.09
801.3867, 12853.34
801.8688, 12853.45
802.3509, 12851.05
802.8330, 12842.67
803.3151, 12831.57
803.7972, 12822.38
804.2794, 12816.34
804.7615, 12812.02
805.2436, 12811.54
805.7258, 12811.19
806.2079, 12806.22
806.6900, 12794.37
807.1721, 12787.28
807.6542, 12787.05
808.1364, 12789.51
808.6185, 12792.21
809.1006, 12793.15
809.5827, 12784.96
810.0648, 12763.22
810.5469, 12741.44
811.0291, 12729.78
811.5112, 12723.62
811.9933, 12717.42
812.4754, 12709.61
812.9575, 12702.62
813.4396, 12697.98
813.9218, 12692.86
814.4039, 12683.62
814.8860, 12669.94
815.3681, 12657.16
815.8502, 12645.75
816.3323, 12636.10
816.8145, 12628.37
817.2966, 12622.90
817.7787, 12620.92
818.2608, 12624.51
818.7429, 12625.85
819.2250, 12616.55
819.7072, 12605.86
820.1893, 12603.72
820.6714, 12617.70
821.1535, 12624.12
821.6356, 12621.48
822.1177, 12613.76
822.5999, 12603.99
823.0820, 12592.49
823.5641, 12580.87
824.0462, 12568.70
824.5283, 12560.37
825.0104, 12563.05
825.4926, 12570.27
825.9747, 12574.82
826.4568, 12574.98
826.9389, 12573.34
827.4210, 12569.01
827.9031, 12564.06
828.3853, 12560.46
828.8674, 12559.68
829.3495, 12551.97
829.8316, 12535.79
830.3137, 12519.58
830.7958, 12513.13
831.2780, 12512.68
831.7601, 12510.19
832.2422, 12504.86
832.7243, 12499.36
833.2064, 12494.79
833.6885, 12491.44
834.1707, 12490.99
834.6528, 12496.20
835.1349, 12492.19
835.6170, 12473.93
836.0991, 12455.16
836.5812, 12445.41
837.0634, 12444.05
837.5455, 12440.96
838.0276, 12435.93
838.5097, 12433.66
838.9918, 12440.22
839.4739, 12449.61
839.9561, 12458.17
840.4382, 12465.22
840.9203, 12461.46
841.4024, 12428.28
841.8845, 12398.65
842.3666, 12389.04
842.8488, 12398.98
843.3309, 12401.63
843.8130, 12396.30
844.2951, 12388.08
844.7772, 12378.65
845.2593, 12369.05
845.7415, 12361.47
846.2236, 12355.94
846.7057, 12352.33
847.1878, 12350.93
847.6699, 12351.30
848.1520, 12354.24
848.6342, 12359.29
849.1163, 12362.37
849.5984, 12361.49
850.0805, 12362.13
850.5626, 12365.75
851.0447, 12372.10
851.5269, 12380.69
852.0090, 12391.41
852.4911, 12404.11
852.9732, 12422.01
853.4553, 12438.32
853.9374, 12440.30
854.4196, 12435.92
854.9017, 12444.98
855.3839, 12484.63
855.8660, 12524.73
856.3481, 12562.97
856.8302, 12596.23
857.3123, 12613.24
857.7944, 12612.05
858.2766, 12624.87
858.7587, 12663.81
859.2408, 12712.15
859.7229, 12746.05
860.2050, 12770.86
860.6871, 12796.32
861.1693, 12823.25
861.6514, 12855.63
862.1335, 12897.85
862.6156, 12945.26
863.0977, 12990.29
863.5798, 13031.17
864.0620, 13075.32
864.5441, 13123.21
865.0262, 13175.76
865.5083, 13239.38
865.9904, 13309.75
866.4725, 13373.90
866.9547, 13429.42
867.4368, 13481.88
867.9189, 13536.79
868.4010, 13590.16
868.8831, 13640.19
869.3652, 13691.85
869.8474, 13726.45
870.3295, 13744.74
870.8116, 13744.83
871.2937, 13724.42
871.7758, 13683.80
872.2579, 13625.34
872.7401, 13548.49
873.2222, 13464.13
873.7043, 13380.38
874.1864, 13293.61
874.6685, 13198.00
875.1506, 13092.30
875.6328, 12991.44
876.1149, 12897.86
876.5970, 12812.54
877.0791, 12737.21
877.5612, 12671.18
878.0433, 12606.96
878.5255, 12544.61
879.0076, 12487.79
879.4897, 12439.43
879.9718, 12398.75
880.4539, 12371.05
880.9360, 12351.49
881.4182, 12323.19
881.9003, 12261.55
882.3824, 12209.62
882.8645, 12187.74
883.3466, 12185.40
883.8287, 12176.81
884.3109, 12160.80
884.7930, 12144.43
885.2751, 12129.93
885.7572, 12115.02
886.2393, 12094.26
886.7214, 12070.05
887.2036, 12048.75
887.6857, 12033.76
888.1678, 12020.07
888.6499, 12006.80
889.1320, 11993.10
889.6141, 11977.92
890.0963, 11961.76
890.5784, 11943.79
891.0605, 11924.20
891.5426, 11902.36
892.0247, 11871.21
892.5068, 11837.01
892.9890, 11820.77
893.4711, 11827.21
893.9532, 11835.90
894.4353, 11835.32
894.9174, 11829.63
895.3995, 11821.17
895.8817, 11809.01
896.3638, 11799.91
896.8459, 11794.52
897.3280, 11790.81
897.8101, 11786.47
898.2922, 11782.37
898.7744, 11785.25
899.2565, 11794.36
899.7386, 11803.08
900.2207, 11807.25
900.7028, 11809.14
901.1849, 11810.52
901.6671, 11811.19
902.1492, 11809.46
902.6313, 11803.22
903.1134, 11798.10
903.5955, 11795.54
904.0776, 11795.23
904.5598, 11797.04
905.0419, 11800.69
905.5240, 11802.99
906.0062, 11802.38
906.4883, 11800.96
906.9704, 11801.52
907.4525, 11802.40
907.9346, 11800.83
908.4167, 11799.26
908.8989, 11790.12
909.3810, 11770.33
909.8631, 11745.92
910.3452, 11723.51
910.8273, 11703.03
911.3094, 11685.38
911.7916, 11670.94
912.2737, 11656.26
912.7558, 11634.68
913.2379, 11613.05
913.7200, 11599.89
914.2021, 11598.33
914.6843, 11594.86
915.1664, 11588.43
915.6485, 11578.43
916.1306, 11562.92
916.6127, 11542.53
917.0948, 11527.88
917.5770, 11518.94
918.0591, 11512.86
918.5412, 11511.81
919.0233, 11509.62
919.5054, 11495.99
919.9875, 11474.47
920.4697, 11460.03
920.9518, 11464.90
921.4339, 11467.33
921.9160, 11461.92
922.3981, 11451.25
922.8802, 11441.69
923.3624, 11433.21
923.8445, 11423.69
924.3266, 11411.97
924.8087, 11400.38
925.2908, 11391.97
925.7729, 11385.11
926.2551, 11377.17
926.7372, 11366.38
927.2193, 11356.81
927.7014, 11349.59
928.1835, 11343.21
928.6656, 11335.87
929.1478, 11327.74
929.6299, 11323.98
930.1120, 11325.33
930.5941, 11325.21
931.0762, 11315.25
931.5583, 11302.65
932.0405, 11293.04
932.5226, 11287.20
933.0047, 11290.03
933.4868, 11316.04
933.9689, 11333.81
934.4510, 11328.77
934.9332, 11306.51
935.4153, 11297.29
935.8974, 11300.27
936.3795, 11301.97
936.8616, 11292.93
937.3438, 11283.19
937.8259, 11283.49
938.3080, 11290.48
938.7901, 11297.59
939.2722, 11310.29
939.7543, 11311.83
940.2365, 11295.17
940.7186, 11273.26
941.2007, 11265.22
941.6828, 11269.89
942.1649, 11274.30
942.6470, 11277.43
943.1292, 11275.06
943.6113, 11254.58
944.0934, 11232.36
944.5755, 11226.95
945.0576, 11245.21
945.5397, 11254.52
946.0219, 11248.81
946.5040, 11240.16
946.9861, 11234.80
947.4682, 11231.82
947.9503, 11227.33
948.4324, 11221.04
948.9146, 11210.64
949.3967, 11189.87
949.8788, 11168.94
950.3609, 11154.69
950.8430, 11146.26
951.3251, 11141.53
951.8073, 11142.44
952.2894, 11142.33
952.7715, 11140.31
953.2536, 11136.79
953.7357, 11135.48
954.2179, 11133.78
954.7000, 11117.91
955.1821, 11081.35
955.6642, 11049.82
956.1464, 11046.38
956.6285, 11053.04
957.1106, 11054.26
957.5927, 11048.46
958.0748, 11036.78
958.5569, 11015.73
959.0391, 10997.75
959.5212, 10993.44
960.0033, 10997.89
960.4854, 10997.11
960.9675, 10991.67
961.4496, 10985.43
961.9318, 10981.12
962.4139, 10975.68
962.8960, 10965.91
963.3781, 10954.10
963.8602, 10947.48
964.3423, 10948.89
964.8245, 10943.86
965.3066, 10928.60
965.7887, 10908.70
966.2708, 10887.24
966.7529, 10868.22
967.2350, 10861.57
967.7172, 10873.69
968.1993, 10882.93
968.6814, 10880.38
969.1635, 10872.48
969.6456, 10862.67
970.1277, 10850.53
970.6099, 10841.22
971.0920, 10834.65
971.5741, 10830.52
972.0562, 10830.92
972.5383, 10831.99
973.0204, 10827.50
973.5026, 10818.86
973.9847, 10812.35
974.4668, 10809.38
974.9489, 10810.11
975.4310, 10817.99
975.9131, 10826.93
976.3953, 10821.99
976.8774, 10804.44
977.3595, 10794.19
977.8416, 10797.40
978.3237, 10801.90
978.8058, 10798.93
979.2880, 10790.03
979.7701, 10775.61
980.2522, 10752.50
980.7343, 10735.36
981.2164, 10724.80
981.6985, 10719.58
982.1807, 10720.91
982.6628, 10726.70
983.1449, 10728.68
983.6270, 10726.76
984.1091, 10720.89
984.5912, 10707.46
985.0734, 10693.53
985.5555, 10681.70
986.0376, 10672.44
986.5197, 10666.53
987.0018, 10665.08
987.4839, 10664.02
987.9661, 10663.93
988.4482, 10660.83
988.9303, 10645.21
989.4124, 10624.01
989.8945, 10611.70
990.3766, 10612.47
990.8588, 10611.78
991.3409, 10602.71
991.8230, 10591.40
992.3051, 10580.61
992.7872, 10570.64
993.2693, 10565.90
993.7515, 10566.69
994.2336, 10563.35
994.7157, 10543.86
995.1978, 10523.26
995.6799, 10521.60
996.1620, 10531.89
996.6442, 10538.04
997.1263, 10531.28
997.6084, 10525.70
998.0905, 10523.12
998.5726, 10521.40
999.0547, 10517.31
999.5369, 10511.37
1000.019, 10508.42
1000.501, 10509.39
1000.983, 10506.32
1001.465, 10488.88
1001.947, 10468.77
1002.430, 10455.26
1002.912, 10449.05
1003.394, 10443.24
1003.876, 10438.58
1004.358, 10431.64
1004.840, 10418.95
1005.322, 10405.74
1005.804, 10405.31
1006.287, 10412.32
1006.769, 10413.32
1007.251, 10397.29
1007.733, 10383.86
1008.215, 10381.04
1008.697, 10381.98
1009.179, 10381.37
1009.661, 10379.27
1010.143, 10374.00
1010.626, 10365.31
1011.108, 10354.23
1011.590, 10338.36
1012.072, 10322.77
1012.554, 10311.48
1013.036, 10304.94
1013.518, 10304.50
1014.000, 10318.00
1014.483, 10323.79
1014.965, 10314.48
1015.447, 10297.67
1015.929, 10289.17
1016.411, 10286.64
1016.893, 10280.01
1017.375, 10263.88
1017.857, 10253.45
1018.339, 10266.21
1018.822, 10282.87
1019.304, 10285.53
1019.786, 10271.70
1020.268, 10262.86
1020.750, 10260.07
1021.232, 10254.79
1021.714, 10235.48
1022.196, 10213.88
1022.679, 10212.71
1023.161, 10224.86
1023.643, 10229.97
1024.125, 10216.24
1024.607, 10200.81
1025.089, 10184.58
1025.571, 10170.38
1026.053, 10163.41
1026.535, 10162.89
1027.018, 10161.02
1027.500, 10156.95
1027.982, 10152.13
1028.464, 10147.25
1028.946, 10142.45
1029.428, 10137.75
1029.910, 10133.15
1030.392, 10129.83
1030.875, 10128.67
1031.357, 10124.91
1031.839, 10115.76
1032.321, 10104.42
1032.803, 10094.32
1033.285, 10086.81
1033.767, 10085.81
1034.249, 10098.96
1034.731, 10105.53
1035.214, 10096.15
1035.696, 10082.76
1036.178, 10074.26
1036.660, 10070.68
1037.142, 10063.75
1037.624, 10053.64
1038.106, 10041.46
1038.588, 10023.36
1039.071, 10007.80
1039.553, 10002.70
1040.035, 10005.61
1040.517, 10007.71
1040.999, 10010.41
1041.481, 10005.92
1041.963, 9990.182
1042.445, 9974.766
1042.927, 9978.662
1043.410, 9992.712
1043.892, 9998.139
1044.374, 9991.294
1044.856, 9986.210
1045.338, 9995.646
1045.820, 9999.036
1046.302, 9982.917
1046.784, 9953.530
1047.266, 9947.000
1047.749, 9961.140
1048.231, 9972.013
1048.713, 9970.907
1049.195, 9961.591
1049.677, 9940.526
1050.159, 9915.929
1050.641, 9899.123
1051.123, 9891.946
1051.606, 9890.810
1052.088, 9897.821
1052.570, 9903.749
1053.052, 9901.202
1053.534, 9892.906
1054.016, 9881.801
1054.498, 9869.096
1054.980, 9859.471
1055.463, 9858.824
1055.945, 9855.985
1056.427, 9846.634
1056.909, 9835.458
1057.391, 9831.018
1057.873, 9832.360
1058.355, 9832.767
1058.837, 9831.412
1059.319, 9826.610
1059.802, 9812.609
1060.284, 9798.449
1060.766, 9791.144
1061.248, 9790.739
1061.730, 9794.116
1062.212, 9803.046
1062.694, 9806.686
1063.176, 9799.745
1063.658, 9787.871
1064.141, 9775.933
1064.623, 9765.704
1065.105, 9760.597
1065.587, 9764.721
1066.069, 9766.609
1066.551, 9764.733
1067.033, 9760.638
1067.515, 9754.110
1067.998, 9745.925
1068.480, 9740.841
1068.962, 9738.593
1069.444, 9738.347
1069.926, 9745.487
1070.408, 9747.996
1070.890, 9737.649
1071.372, 9720.243
1071.854, 9703.176
1072.337, 9686.236
1072.819, 9675.730
1073.301, 9673.192
1073.783, 9670.887
1074.265, 9661.466
1074.747, 9649.030
1075.229, 9635.663
1075.711, 9622.271
1076.193, 9616.219
1076.676, 9621.927
1077.158, 9624.736
1077.640, 9620.748
1078.122, 9611.876
1078.604, 9598.354
1079.086, 9583.128
1079.568, 9573.104
1080.051, 9571.042
1080.533, 9568.257
1081.015, 9562.190
1081.497, 9554.033
1081.979, 9543.510
1082.461, 9531.435
1082.943, 9521.862
1083.425, 9514.783
1083.907, 9510.368
1084.390, 9509.938
1084.872, 9510.496
1085.354, 9509.951
1085.836, 9509.421
1086.318, 9510.881
1086.800, 9516.000
1087.282, 9514.762
1087.764, 9506.114
1088.246, 9497.552
1088.729, 9497.494
1089.211, 9498.793
1089.693, 9491.701
1090.175, 9478.259
1090.657, 9467.459
1091.139, 9460.996
1091.621, 9457.310
1092.103, 9457.279
1092.586, 9457.792
1093.068, 9454.851
1093.550, 9449.245
1094.032, 9442.424
1094.514, 9434.601
1094.996, 9426.373
1095.478, 9416.399
1095.960, 9408.220
1096.443, 9403.229
1096.925, 9400.909
1097.407, 9401.014
1097.889, 9402.816
1098.371, 9399.933
1098.853, 9388.423
1099.335, 9379.954
1099.817, 9389.184
1100.299, 9400.338
1100.781, 9398.571
1101.264, 9383.426
1101.746, 9368.705
1102.228, 9354.190
1102.710, 9341.897
1103.192, 9333.564
1103.674, 9327.175
1104.156, 9320.186
1104.638, 9313.856
1105.121, 9310.487
1105.603, 9315.244
1106.085, 9312.786
1106.567, 9300.819
1107.049, 9288.479
1107.531, 9283.371
1108.013, 9282.899
1108.495, 9282.318
1108.978, 9281.501
1109.460, 9280.365
1109.942, 9277.919
1110.424, 9276.518
1110.906, 9277.663
1111.388, 9278.203
1111.870, 9273.373
1112.352, 9264.158
1112.834, 9254.385
1113.317, 9244.343
1113.799, 9236.139
1114.281, 9232.682
1114.763, 9229.489
1115.245, 9224.488
1115.727, 9218.283
1116.209, 9213.081
1116.691, 9208.812
1117.173, 9200.846
1117.656, 9187.547
1118.138, 9174.889
1118.620, 9166.661
1119.102, 9162.454
1119.584, 9165.321
1120.066, 9174.574
1120.548, 9170.107
1121.030, 9149.574
1121.513, 9131.534
1121.995, 9123.481
1122.477, 9119.435
1122.959, 9111.207
1123.441, 9102.268
1123.923, 9098.051
1124.405, 9102.415
1124.887, 9102.384
1125.370, 9096.355
1125.852, 9089.858
1126.334, 9085.859
1126.816, 9083.834
1127.298, 9083.995
1127.780, 9085.090
1128.262, 9084.030
1128.744, 9076.150
1129.226, 9071.703
1129.709, 9073.797
1130.191, 9075.969
1130.673, 9072.564
1131.155, 9064.495
1131.637, 9052.921
1132.119, 9039.130
1132.601, 9030.253
1133.083, 9036.870
1133.566, 9040.118
1134.048, 9030.699
1134.530, 9017.327
1135.012, 9012.878
1135.494, 9016.253
1135.976, 9013.561
1136.458, 9003.717
1136.940, 8995.378
1137.422, 9000.064
1137.905, 9002.726
1138.387, 8989.832
1138.869, 8968.954
1139.351, 8960.506
1139.833, 8965.146
1140.315, 8965.350
1140.797, 8957.693
1141.279, 8947.591
1141.761, 8936.235
1142.244, 8927.300
1142.726, 8925.470
1143.208, 8930.245
1143.690, 8931.106
1144.172, 8927.136
1144.654, 8924.757
1145.136, 8927.002
1145.618, 8928.296
1146.101, 8918.532
1146.583, 8905.503
1147.065, 8899.312
1147.547, 8903.328
1148.029, 8904.612
1148.511, 8903.124
1148.993, 8897.978
1149.475, 8887.765
1149.958, 8875.212
1150.440, 8862.862
1150.922, 8851.996
1151.404, 8845.018
1151.886, 8844.319
1152.368, 8844.404
1152.850, 8847.618
1153.332, 8845.874
1153.814, 8830.881
1154.297, 8809.252
1154.779, 8797.293
1155.261, 8792.721
1155.743, 8789.564
1156.225, 8786.065
1156.707, 8783.021
1157.189, 8781.232
1157.671, 8778.588
1158.153, 8772.462
1158.636, 8763.890
1159.118, 8756.625
1159.600, 8750.912
1160.082, 8747.487
1160.564, 8749.694
1161.046, 8750.470
1161.528, 8748.994
1162.010, 8744.253
1162.493, 8731.635
1162.975, 8713.585
1163.457, 8708.790
1163.939, 8717.024
1164.421, 8723.290
1164.903, 8716.276
1165.385, 8708.105
1165.867, 8703.907
1166.349, 8701.958
1166.832, 8699.914
1167.314, 8697.677
1167.796, 8694.867
1168.278, 8691.408
1168.760, 8687.212
1169.242, 8681.800
1169.724, 8676.009
1170.206, 8670.267
1170.688, 8664.526
1171.171, 8658.490
1171.653, 8652.180
1172.135, 8645.827
1172.617, 8639.396
1173.099, 8634.268
1173.581, 8635.940
1174.063, 8635.769
1174.545, 8623.026
1175.028, 8601.829
1175.510, 8594.065
1175.992, 8600.418
1176.474, 8601.642
1176.956, 8591.693
1177.438, 8579.790
1177.920, 8574.096
1178.402, 8570.835
1178.885, 8566.893
1179.367, 8562.060
1179.849, 8556.438
1180.331, 8550.135
1180.813, 8541.175
1181.295, 8527.185
1181.777, 8514.883
1182.259, 8513.023
1182.741, 8515.737
1183.224, 8516.704
1183.706, 8515.257
1184.188, 8514.007
1184.670, 8513.234
1185.152, 8510.162
1185.634, 8501.289
1186.116, 8493.473
1186.598, 8497.728
1187.081, 8506.334
1187.563, 8508.612
1188.045, 8502.063
1188.527, 8493.667
1189.009, 8483.025
1189.491, 8472.494
1189.973, 8461.157
1190.455, 8453.249
1190.938, 8459.431
1191.420, 8470.785
1191.902, 8471.944
1192.384, 8455.271
1192.866, 8444.885
1193.348, 8441.950
1193.830, 8440.080
1194.312, 8435.218
1194.794, 8429.010
1195.276, 8422.354
1195.759, 8416.222
1196.241, 8413.009
1196.723, 8416.364
1197.205, 8413.846
1197.687, 8403.881
1198.169, 8394.115
1198.651, 8392.345
1199.133, 8392.870
1199.616, 8387.114
1200.098, 8377.621
1200.580, 8371.294
1201.062, 8372.002
1201.544, 8368.849
1202.026, 8360.696
1202.508, 8351.205
1202.990, 8341.490
1203.473, 8333.853
1203.955, 8333.059
1204.437, 8336.988
1204.919, 8338.517
1205.401, 8336.762
1205.883, 8332.390
1206.365, 8325.239
1206.847, 8316.285
1207.329, 8309.979
1207.812, 8290.114
1208.294, 8293.873
1208.776, 8282.291
1209.258, 8272.784
1209.740, 8274.455
1210.222, 8255.315
1210.704, 8254.904
1211.186, 8259.048
1211.668, 8252.961
1212.151, 8243.107
1212.633, 8237.448
1213.115, 8235.729
1213.597, 8233.966
1214.079, 8231.179
1214.561, 8230.396
1215.043, 8232.777
1215.525, 8233.765
1216.008, 8226.411
1216.490, 8216.170
1216.972, 8208.909
1217.454, 8204.876
1217.936, 8203.836
1218.418, 8208.038
1218.900, 8205.355
1219.382, 8192.136
1219.865, 8178.492
1220.347, 8178.168
1220.829, 8181.821
1221.311, 8177.497
1221.793, 8176.962
1222.275, 8175.353
1222.757, 8167.490
1223.239, 8166.385
1223.721, 8153.005
1224.203, 8139.188
1224.686, 8143.169
1225.168, 8149.631
1225.650, 8138.247
1226.132, 8110.639
1226.614, 8101.087
1227.096, 8114.344
1227.578, 8119.998
1228.061, 8110.110
1228.543, 8097.958
1229.025, 8099.318
1229.507, 8103.956
1229.989, 8101.623
1230.471, 8092.320
1230.953, 8084.628
1231.435, 8078.736
1231.917, 8071.542
1232.400, 8061.774
1232.882, 8053.086
1233.364, 8050.204
1233.846, 8048.890
1234.328, 8045.834
1234.810, 8040.878
1235.292, 8033.789
1235.774, 8024.609
1236.256, 8015.362
1236.739, 8006.845
1237.221, 7997.524
1237.703, 7980.741
1238.185, 7967.239
1238.667, 7970.903
1239.149, 7985.976
1239.631, 7985.058
1240.113, 7968.924
1240.596, 7958.272
1241.078, 7959.166
1241.560, 7960.558
1242.042, 7952.623
1242.524, 7943.728
1243.006, 7939.315
1243.488, 7938.541
1243.970, 7939.850
1244.453, 7942.497
1244.935, 7939.831
1245.417, 7928.938
1245.899, 7920.214
1246.381, 7923.938
1246.863, 7927.347
1247.345, 7922.919
1247.827, 7913.286
1248.309, 7906.720
1248.792, 7902.795
1249.274, 7899.389
1249.756, 7896.073
1250.238, 7893.339
1250.720, 7894.192
1251.202, 7892.078
1251.684, 7882.611
1252.166, 7869.974
1252.648, 7866.540
1253.131, 7868.806
1253.613, 7865.154
1254.095, 7851.571
1254.577, 7842.648
1255.059, 7848.038
1255.541, 7850.871
1256.023, 7844.075
1256.505, 7832.857
1256.988, 7828.519
1257.470, 7827.958
1257.952, 7824.757
1258.434, 7817.610
1258.916, 7809.151
1259.398, 7798.433
1259.880, 7790.091
1260.362, 7785.927
1260.844, 7784.638
1261.327, 7785.970
1261.809, 7787.830
1262.291, 7786.269
1262.773, 7780.216
1263.255, 7777.587
1263.737, 7780.592
1264.219, 7779.781
1264.701, 7770.983
1265.183, 7760.073
1265.666, 7752.000
1266.148, 7747.404
1266.630, 7748.762
1267.112, 7756.249
1267.594, 7758.479
1268.076, 7754.965
1268.558, 7749.168
1269.040, 7741.381
1269.523, 7734.472
1270.005, 7732.156
1270.487, 7731.305
1270.969, 7730.117
1271.451, 7728.047
1271.933, 7720.650
1272.415, 7708.144
1272.897, 7698.191
1273.380, 7692.812
1273.862, 7689.879
1274.344, 7690.363
1274.826, 7690.349
1275.308, 7687.728
1275.790, 7682.555
1276.272, 7673.536
1276.754, 7661.742
1277.236, 7653.307
1277.719, 7649.987
1278.201, 7646.078
1278.683, 7636.253
1279.165, 7628.468
1279.647, 7627.142
1280.129, 7628.206
1280.611, 7622.294
1281.093, 7611.586
1281.576, 7601.739
1282.058, 7593.615
1282.540, 7586.109
1283.022, 7578.232
1283.504, 7572.042
1283.986, 7568.122
1284.468, 7565.961
1284.950, 7566.195
1285.432, 7566.929
1285.915, 7565.053
1286.397, 7560.226
1286.879, 7554.172
1287.361, 7546.173
1287.843, 7540.520
1288.325, 7538.388
1288.807, 7538.166
1289.289, 7538.812
1289.771, 7539.760
1290.254, 7542.199
1290.736, 7544.654
1291.218, 7538.258
1291.700, 7521.450
1292.182, 7510.483
1292.664, 7508.376
1293.146, 7509.099
1293.628, 7507.779
1294.111, 7507.122
1294.593, 7512.834
1295.075, 7519.057
1295.557, 7511.078
1296.039, 7490.483
1296.521, 7473.479
1297.003, 7462.549
1297.485, 7458.632
1297.968, 7472.583
1298.450, 7477.575
1298.932, 7459.558
1299.414, 7435.371
1299.896, 7433.077
1300.378, 7445.479
1300.860, 7449.696
1301.342, 7444.726
1301.824, 7439.885
##END=



