##NAMES=Witherite
##RRUFFID=R040040
##IDEAL CHEMISTRY=BaCO_3_
##LOCALITY=Cave-in-Rock, Hardin County, Illinois, USA
##OWNER=RRUFF
##SOURCE=University of Arizona Mineral Museum
##DESCRIPTION=Tan colored prismatic group of columnar crystals
##STATUS=The identification of this mineral has been confirmed by X-ray diffraction and chemical analysis
##URL=rruff.info/R040040
##MEASURED CHEMISTRY=(Ba_0.98_Sr_0.02_)_Î£=1_CO_3_; CO_2_ estimated by difference
116.1486, 38493.24
116.6307, 38420.07
117.1128, 38437.12
117.5950, 38616.20
118.0771, 38827.65
118.5592, 38969.74
119.0413, 39033.77
119.5234, 39084.90
120.0055, 39173.89
120.4877, 39292.54
120.9698, 39425.48
121.4519, 39574.16
121.9340, 39733.68
122.4161, 39888.92
122.8982, 40024.64
123.3804, 40179.63
123.8625, 40400.93
124.3446, 40673.70
124.8267, 40923.69
125.3088, 41067.86
125.7909, 41093.93
126.2731, 41186.00
126.7552, 41449.43
127.2373, 41731.59
127.7194, 41947.38
128.2015, 42086.45
128.6837, 42210.26
129.1658, 42411.41
129.6479, 42716.46
130.1300, 43057.30
130.6121, 43430.34
131.0942, 43825.34
131.5764, 44234.12
132.0585, 44650.73
132.5406, 45081.89
133.0227, 45545.37
133.5048, 46070.76
133.9869, 46599.29
134.4691, 47200.12
134.9512, 47796.33
135.4333, 48269.54
135.9154, 48550.77
136.3975, 48634.83
136.8796, 48513.23
137.3618, 48130.23
137.8439, 47644.44
138.3260, 47099.82
138.8081, 46507.13
139.2902, 45899.25
139.7723, 45281.17
140.2545, 44659.97
140.7366, 44127.53
141.2187, 43696.85
141.7008, 43354.36
142.1829, 43088.16
142.6650, 42901.54
143.1471, 42777.39
143.6293, 42706.56
144.1114, 42681.54
144.5935, 42698.89
145.0756, 42774.61
145.5577, 42894.38
146.0398, 43003.90
146.5220, 43054.14
147.0041, 43147.42
147.4862, 43366.92
147.9683, 43708.09
148.4504, 44085.16
148.9325, 44415.00
149.4147, 44690.74
149.8968, 45013.07
150.3789, 45412.71
150.8610, 45861.08
151.3431, 46368.32
151.8252, 46933.69
152.3074, 47510.16
152.7895, 48046.11
153.2716, 48617.12
153.7537, 48963.45
154.2358, 49086.91
154.7179, 49012.42
155.2001, 48732.36
155.6822, 48241.02
156.1643, 47593.43
156.6464, 46958.79
157.1285, 46356.54
157.6106, 45736.45
158.0928, 45048.49
158.5749, 44348.30
159.0570, 43715.08
159.5391, 43200.66
160.0212, 42791.83
160.5033, 42368.32
160.9855, 41908.61
161.4676, 41457.82
161.9497, 41020.15
162.4318, 40601.17
162.9139, 40210.48
163.3960, 39853.34
163.8782, 39533.26
164.3603, 39263.54
164.8424, 39059.00
165.3245, 38885.27
165.8066, 38726.74
166.2887, 38580.61
166.7709, 38445.94
167.2530, 38322.65
167.7351, 38210.93
168.2172, 38109.68
168.6993, 38021.70
169.1814, 37943.07
169.6636, 37867.11
170.1457, 37791.34
170.6278, 37724.86
171.1099, 37679.88
171.5920, 37652.75
172.0741, 37633.48
172.5563, 37618.90
173.0384, 37609.38
173.5205, 37608.21
174.0026, 37624.16
174.4847, 37636.61
174.9668, 37622.24
175.4490, 37583.50
175.9311, 37551.42
176.4132, 37547.98
176.8953, 37572.68
177.3774, 37608.03
177.8595, 37679.31
178.3417, 37736.87
178.8238, 37740.36
179.3059, 37687.70
179.7880, 37621.38
180.2701, 37588.11
180.7522, 37594.27
181.2344, 37606.67
181.7165, 37658.39
182.1986, 37690.66
182.6807, 37652.98
183.1628, 37533.82
183.6449, 37379.95
184.1271, 37269.61
184.6092, 37221.72
185.0913, 37184.02
185.5734, 37158.00
186.0555, 37134.04
186.5376, 37102.91
187.0198, 37060.82
187.5019, 37012.87
187.9840, 36970.73
188.4661, 36924.34
188.9482, 36899.68
189.4303, 36909.07
189.9125, 36937.04
190.3946, 36969.84
190.8767, 37001.61
191.3588, 37028.09
191.8409, 37029.09
192.3230, 36973.89
192.8052, 36927.33
193.2873, 36895.42
193.7694, 36880.24
194.2515, 36887.76
194.7336, 36924.87
195.2157, 36986.47
195.6979, 37022.23
196.1800, 37041.52
196.6621, 37033.25
197.1442, 36966.73
197.6263, 36862.86
198.1084, 36783.70
198.5906, 36774.97
199.0727, 36833.08
199.5548, 36877.64
200.0369, 36916.55
200.5190, 36937.11
201.0011, 36927.36
201.4833, 36888.98
201.9654, 36837.40
202.4475, 36774.83
202.9296, 36706.96
203.4117, 36668.52
203.8938, 36688.67
204.3760, 36721.45
204.8581, 36716.38
205.3402, 36668.37
205.8223, 36633.52
206.3044, 36679.21
206.7865, 36779.54
207.2687, 36839.26
207.7508, 36807.84
208.2329, 36738.31
208.7150, 36703.68
209.1971, 36714.57
209.6792, 36733.92
210.1614, 36729.42
210.6435, 36710.07
211.1256, 36696.58
211.6077, 36693.06
212.0898, 36700.66
212.5719, 36723.10
213.0541, 36763.32
213.5362, 36813.53
214.0183, 36873.71
214.5004, 36939.34
214.9825, 36998.98
215.4646, 37053.35
215.9468, 37098.40
216.4289, 37108.97
216.9110, 37047.31
217.3931, 37005.26
217.8752, 37050.71
218.3573, 37158.52
218.8395, 37255.55
219.3216, 37285.16
219.8037, 37253.06
220.2858, 37229.47
220.7679, 37217.21
221.2500, 37212.82
221.7322, 37216.72
222.2143, 37227.25
222.6964, 37239.82
223.1785, 37250.52
223.6606, 37259.18
224.1427, 37270.21
224.6249, 37285.80
225.1070, 37301.84
225.5891, 37319.22
226.0712, 37336.15
226.5533, 37348.37
227.0354, 37354.33
227.5176, 37355.73
227.9997, 37336.77
228.4818, 37279.70
228.9639, 37215.86
229.4460, 37157.46
229.9281, 37104.34
230.4103, 37048.54
230.8924, 36978.44
231.3745, 36885.02
231.8566, 36817.64
232.3387, 36798.34
232.8208, 36784.03
233.3030, 36760.09
233.7851, 36723.01
234.2672, 36673.11
234.7493, 36607.91
235.2314, 36519.18
235.7135, 36446.50
236.1957, 36391.65
236.6778, 36348.37
237.1599, 36318.47
237.6420, 36299.51
238.1241, 36283.89
238.6062, 36263.09
239.0884, 36235.56
239.5705, 36207.63
240.0526, 36170.55
240.5347, 36139.75
241.0168, 36125.11
241.4989, 36127.11
241.9811, 36140.95
242.4632, 36165.04
242.9453, 36215.56
243.4274, 36219.32
243.9095, 36135.85
244.3916, 36042.75
244.8738, 35986.85
245.3559, 35974.98
245.8380, 35986.60
246.3201, 36000.39
246.8022, 36021.02
247.2843, 36025.97
247.7665, 35995.96
248.2486, 35965.34
248.7307, 35964.44
249.2128, 35994.50
249.6949, 36028.69
250.1770, 36036.04
250.6592, 36006.54
251.1413, 35981.27
251.6234, 35966.00
252.1055, 35950.86
252.5876, 35919.95
253.0697, 35874.38
253.5519, 35840.04
254.0340, 35849.43
254.5161, 35919.13
254.9982, 35968.53
255.4803, 35985.26
255.9624, 35990.25
256.4445, 35996.06
256.9267, 36005.26
257.4088, 36021.02
257.8909, 36051.71
258.3730, 36104.88
258.8551, 36121.47
259.3372, 36068.91
259.8194, 36000.77
260.3015, 35958.32
260.7836, 35946.58
261.2657, 35950.24
261.7478, 35957.70
262.2299, 35970.08
262.7121, 35973.62
263.1942, 35961.51
263.6763, 35944.94
264.1584, 35925.02
264.6405, 35903.55
265.1227, 35901.48
265.6048, 35947.77
266.0869, 36046.70
266.5690, 36106.70
267.0511, 36104.57
267.5332, 36077.57
268.0154, 36048.27
268.4975, 36019.78
268.9796, 36000.89
269.4617, 36003.52
269.9438, 36027.02
270.4259, 36035.34
270.9081, 36009.71
271.3902, 35980.94
271.8723, 35976.17
272.3544, 35995.64
272.8365, 36018.18
273.3186, 36032.00
273.8008, 36034.66
274.2829, 36021.04
274.7650, 35954.03
275.2471, 35898.39
275.7292, 35924.41
276.2113, 36025.68
276.6935, 36106.96
277.1756, 36093.00
277.6577, 35998.04
278.1398, 35943.63
278.6219, 35970.13
279.1040, 36004.67
279.5862, 35987.55
280.0683, 35925.36
280.5504, 35877.74
281.0325, 35891.57
281.5146, 35947.65
281.9967, 35962.43
282.4789, 35884.88
282.9610, 35812.96
283.4431, 35833.14
283.9252, 35926.10
284.4073, 35974.88
284.8894, 35893.51
285.3716, 35736.16
285.8537, 35673.94
286.3358, 35768.80
286.8179, 35876.23
287.3000, 35921.66
287.7821, 35913.56
288.2643, 35882.39
288.7464, 35835.14
289.2285, 35778.37
289.7106, 35727.50
290.1927, 35677.64
290.6748, 35641.34
291.1570, 35633.08
291.6391, 35644.82
292.1212, 35651.13
292.6033, 35640.60
293.0854, 35621.86
293.5675, 35614.44
294.0497, 35625.75
294.5318, 35627.88
295.0139, 35596.70
295.4960, 35548.36
295.9781, 35523.05
296.4602, 35539.06
296.9424, 35572.18
297.4245, 35573.22
297.9066, 35530.51
298.3887, 35514.13
298.8708, 35579.61
299.3529, 35679.39
299.8351, 35723.50
300.3172, 35680.63
300.7993, 35604.99
301.2814, 35572.83
301.7635, 35586.21
302.2456, 35599.11
302.7278, 35609.34
303.2099, 35610.15
303.6920, 35584.48
304.1741, 35526.09
304.6562, 35466.93
305.1383, 35441.29
305.6205, 35449.65
306.1026, 35479.95
306.5847, 35559.41
307.0668, 35644.91
307.5489, 35696.80
308.0310, 35710.08
308.5132, 35687.46
308.9953, 35618.41
309.4774, 35501.20
309.9595, 35416.57
310.4416, 35375.73
310.9237, 35362.96
311.4059, 35380.84
311.8880, 35424.44
312.3701, 35455.56
312.8522, 35440.04
313.3343, 35380.70
313.8164, 35343.83
314.2986, 35339.18
314.7807, 35347.01
315.2628, 35362.71
315.7449, 35383.00
316.2270, 35396.62
316.7091, 35394.39
317.1913, 35380.20
317.6734, 35377.19
318.1555, 35402.50
318.6376, 35418.96
319.1197, 35409.27
319.6018, 35379.96
320.0840, 35346.76
320.5661, 35317.75
321.0482, 35289.52
321.5303, 35250.19
322.0124, 35179.14
322.4945, 35126.34
322.9767, 35104.05
323.4588, 35106.05
323.9409, 35129.46
324.4230, 35175.07
324.9051, 35227.19
325.3872, 35253.82
325.8694, 35239.33
326.3515, 35226.41
326.8336, 35219.23
327.3157, 35214.40
327.7978, 35210.01
328.2799, 35205.29
328.7621, 35197.41
329.2442, 35182.07
329.7263, 35156.57
330.2084, 35129.26
330.6905, 35080.07
331.1726, 35043.14
331.6548, 35063.86
332.1369, 35135.94
332.6190, 35193.02
333.1011, 35160.92
333.5832, 35015.75
334.0653, 34915.23
334.5475, 34863.86
335.0296, 34843.20
335.5117, 34858.99
335.9938, 34900.31
336.4759, 34942.16
336.9580, 34965.53
337.4402, 34970.68
337.9223, 34971.93
338.4044, 34973.69
338.8865, 34967.02
339.3686, 34939.41
339.8507, 34902.92
340.3329, 34880.45
340.8150, 34886.54
341.2971, 34911.49
341.7792, 34913.42
342.2613, 34883.45
342.7434, 34838.68
343.2256, 34757.27
343.7077, 34672.47
344.1898, 34623.86
344.6719, 34626.57
345.1540, 34657.30
345.6361, 34666.78
346.1183, 34630.70
346.6004, 34621.62
347.0825, 34682.73
347.5646, 34742.41
348.0467, 34738.03
348.5288, 34662.07
349.0110, 34567.85
349.4931, 34527.24
349.9752, 34558.05
350.4573, 34570.73
350.9394, 34526.41
351.4215, 34494.34
351.9037, 34528.57
352.3858, 34612.70
352.8679, 34676.48
353.3500, 34643.50
353.8321, 34518.04
354.3142, 34445.97
354.7964, 34467.47
355.2785, 34497.53
355.7606, 34503.26
356.2427, 34491.88
356.7248, 34480.02
357.2069, 34478.32
357.6891, 34481.75
358.1712, 34476.14
358.6533, 34459.91
359.1354, 34437.54
359.6175, 34414.73
360.0996, 34385.98
360.5818, 34340.93
361.0639, 34270.82
361.5460, 34196.97
362.0281, 34147.26
362.5102, 34122.61
362.9923, 34113.45
363.4745, 34145.18
363.9566, 34171.42
364.4387, 34137.02
364.9208, 34028.62
365.4029, 33920.20
365.8850, 33870.74
366.3672, 33871.19
366.8493, 33869.76
367.3314, 33851.13
367.8135, 33835.13
368.2956, 33847.80
368.7777, 33886.66
369.2599, 33917.59
369.7420, 33935.11
370.2241, 33933.54
370.7062, 33898.75
371.1883, 33825.97
371.6704, 33737.34
372.1526, 33637.40
372.6347, 33532.37
373.1168, 33459.07
373.5989, 33429.33
374.0810, 33427.18
374.5631, 33453.48
375.0453, 33502.81
375.5274, 33539.83
376.0095, 33545.54
376.4916, 33520.75
376.9737, 33475.20
377.4558, 33368.13
377.9380, 33288.36
378.4201, 33288.56
378.9022, 33336.43
379.3843, 33369.43
379.8664, 33362.10
380.3485, 33332.62
380.8307, 33320.71
381.3128, 33359.80
381.7949, 33353.21
382.2770, 33245.77
382.7591, 33116.84
383.2412, 33043.00
383.7234, 33037.83
384.2055, 33068.22
384.6876, 33100.20
385.1697, 33141.40
385.6518, 33148.67
386.1339, 33101.25
386.6161, 33045.54
387.0982, 32999.17
387.5803, 32963.77
388.0624, 32937.94
388.5445, 32922.21
389.0266, 32914.68
389.5088, 32894.84
389.9909, 32846.56
390.4730, 32803.86
390.9551, 32779.21
391.4372, 32761.14
391.9193, 32734.20
392.4015, 32691.45
392.8836, 32640.26
393.3657, 32593.09
393.8478, 32545.45
394.3299, 32514.18
394.8120, 32508.22
395.2942, 32513.11
395.7763, 32528.39
396.2584, 32550.53
396.7405, 32558.83
397.2226, 32526.35
397.7047, 32452.94
398.1869, 32384.28
398.6690, 32316.45
399.1511, 32263.39
399.6332, 32241.46
400.1153, 32240.78
400.5974, 32232.08
401.0796, 32183.45
401.5617, 32121.51
402.0438, 32118.76
402.5259, 32195.84
403.0080, 32251.38
403.4901, 32208.19
403.9723, 32114.16
404.4544, 32038.58
404.9365, 31993.97
405.4186, 31968.29
405.9007, 31957.63
406.3828, 31959.56
406.8650, 31963.64
407.3471, 31971.70
407.8292, 31972.20
408.3113, 31941.78
408.7934, 31874.88
409.2755, 31812.13
409.7577, 31755.57
410.2398, 31714.41
410.7219, 31709.70
411.2040, 31744.98
411.6861, 31788.27
412.1682, 31810.10
412.6504, 31807.77
413.1325, 31791.21
413.6146, 31753.96
414.0967, 31709.17
414.5788, 31660.59
415.0609, 31610.33
415.5431, 31562.48
416.0252, 31519.89
416.5073, 31481.36
416.9894, 31439.82
417.4715, 31358.14
417.9536, 31319.96
418.4358, 31392.35
418.9179, 31485.34
419.4000, 31493.37
419.8821, 31387.80
420.3642, 31234.69
420.8463, 31130.10
421.3285, 31081.44
421.8106, 31064.30
422.2927, 31126.57
422.7748, 31176.61
423.2569, 31154.20
423.7390, 31074.32
424.2212, 31000.65
424.7033, 30988.47
425.1854, 31024.65
425.6675, 31025.48
426.1496, 30970.03
426.6317, 30913.26
427.1139, 30863.68
427.5960, 30828.73
428.0781, 30822.38
428.5602, 30855.86
429.0423, 30901.61
429.5244, 30934.09
430.0066, 30953.81
430.4887, 30936.87
430.9708, 30852.18
431.4529, 30750.01
431.9350, 30689.48
432.4171, 30672.62
432.8993, 30658.50
433.3814, 30622.03
433.8635, 30576.90
434.3456, 30552.51
434.8277, 30555.48
435.3098, 30556.02
435.7920, 30521.67
436.2741, 30456.95
436.7562, 30421.69
437.2383, 30455.94
437.7204, 30485.12
438.2025, 30459.47
438.6847, 30391.89
439.1668, 30322.47
439.6489, 30270.79
440.1310, 30229.72
440.6131, 30179.71
441.0952, 30089.27
441.5774, 30034.57
442.0595, 30044.08
442.5416, 30075.96
443.0237, 30092.38
443.5058, 30086.96
443.9879, 30078.38
444.4701, 30093.03
444.9522, 30141.15
445.4343, 30138.43
445.9164, 30021.88
446.3985, 29917.47
446.8806, 29875.80
447.3628, 29874.33
447.8449, 29867.19
448.3270, 29828.49
448.8091, 29771.32
449.2912, 29727.32
449.7733, 29699.15
450.2555, 29677.08
450.7375, 29668.28
451.2197, 29658.62
451.7018, 29638.82
452.1839, 29607.47
452.6660, 29563.99
453.1481, 29489.60
453.6302, 29397.67
454.1124, 29361.57
454.5945, 29415.59
455.0766, 29468.66
455.5587, 29426.47
456.0408, 29318.99
456.5229, 29231.62
457.0051, 29186.57
457.4872, 29166.20
457.9693, 29170.19
458.4514, 29191.14
458.9335, 29185.77
459.4156, 29125.92
459.8978, 29036.19
460.3799, 28983.35
460.8620, 28975.14
461.3441, 28981.10
461.8262, 29006.69
462.3083, 29038.09
462.7905, 29068.00
463.2726, 29091.99
463.7547, 29094.36
464.2368, 29055.42
464.7189, 28969.10
465.2010, 28893.95
465.6832, 28819.88
466.1653, 28767.20
466.6474, 28757.57
467.1295, 28771.00
467.6116, 28776.55
468.0938, 28759.02
468.5759, 28723.61
469.0580, 28677.44
469.5401, 28609.41
470.0222, 28562.16
470.5043, 28574.69
470.9865, 28587.49
471.4686, 28553.57
471.9507, 28474.01
472.4328, 28398.52
472.9149, 28364.99
473.3970, 28365.70
473.8792, 28378.03
474.3613, 28408.45
474.8434, 28427.98
475.3255, 28406.39
475.8076, 28361.49
476.2897, 28331.48
476.7719, 28345.23
477.2540, 28345.52
477.7361, 28272.09
478.2182, 28151.04
478.7003, 28064.74
479.1824, 28045.71
479.6646, 28057.60
480.1467, 28042.55
480.6288, 27984.62
481.1109, 27951.93
481.5930, 27988.14
482.0751, 28019.41
482.5573, 27974.35
483.0394, 27868.17
483.5215, 27779.00
484.0036, 27766.41
484.4857, 27816.12
484.9678, 27833.85
485.4500, 27802.61
485.9321, 27758.66
486.4142, 27685.87
486.8963, 27614.29
487.3784, 27576.53
487.8605, 27579.39
488.3427, 27596.61
488.8248, 27602.87
489.3069, 27598.32
489.7890, 27575.39
490.2711, 27514.00
490.7532, 27461.13
491.2354, 27452.13
491.7175, 27470.11
492.1996, 27473.29
492.6817, 27428.10
493.1638, 27379.48
493.6459, 27396.76
494.1281, 27473.67
494.6102, 27519.51
495.0923, 27493.09
495.5744, 27426.18
496.0565, 27372.52
496.5386, 27333.93
497.0208, 27294.91
497.5029, 27245.32
497.9850, 27197.22
498.4671, 27162.05
498.9492, 27140.86
499.4313, 27132.21
499.9135, 27139.33
500.3956, 27158.86
500.8777, 27145.81
501.3598, 27052.65
501.8419, 26984.20
502.3240, 26983.38
502.8062, 27004.26
503.2883, 26989.20
503.7704, 26923.25
504.2525, 26846.34
504.7346, 26813.66
505.2167, 26833.41
505.6989, 26840.88
506.1810, 26830.02
506.6631, 26811.35
507.1452, 26785.12
507.6273, 26755.73
508.1094, 26732.86
508.5916, 26724.14
509.0737, 26719.40
509.5558, 26705.00
510.0379, 26681.16
510.5200, 26654.83
511.0021, 26629.25
511.4843, 26600.97
511.9664, 26557.40
512.4485, 26491.91
512.9306, 26455.26
513.4127, 26494.97
513.8948, 26547.24
514.3770, 26544.20
514.8591, 26486.38
515.3412, 26419.29
515.8233, 26374.05
516.3054, 26347.12
516.7875, 26316.84
517.2697, 26269.14
517.7518, 26235.73
518.2339, 26228.15
518.7160, 26231.33
519.1981, 26231.50
519.6802, 26225.49
520.1624, 26217.95
520.6445, 26215.44
521.1266, 26218.29
521.6087, 26213.02
522.0908, 26197.11
522.5729, 26176.38
523.0551, 26149.31
523.5372, 26120.70
524.0193, 26099.57
524.5014, 26091.80
524.9835, 26084.52
525.4656, 26057.98
525.9478, 26018.19
526.4299, 26001.67
526.9120, 26026.94
527.3941, 26054.61
527.8762, 26029.98
528.3583, 25950.21
528.8405, 25894.86
529.3226, 25881.77
529.8047, 25885.74
530.2868, 25909.94
530.7689, 25938.18
531.2510, 25926.57
531.7332, 25850.07
532.2153, 25738.05
532.6974, 25662.75
533.1795, 25643.04
533.6616, 25627.61
534.1437, 25619.79
534.6259, 25611.57
535.1080, 25601.64
535.5901, 25587.48
536.0722, 25561.51
536.5543, 25509.32
537.0364, 25446.69
537.5186, 25428.04
538.0007, 25463.99
538.4828, 25504.34
538.9649, 25543.39
539.4470, 25568.80
539.9291, 25562.46
540.4113, 25519.22
540.8934, 25472.45
541.3755, 25431.41
541.8576, 25399.80
542.3397, 25387.42
542.8218, 25394.67
543.3040, 25407.44
543.7861, 25419.65
544.2682, 25428.50
544.7503, 25408.87
545.2324, 25315.92
545.7145, 25254.17
546.1967, 25270.40
546.6788, 25314.51
547.1609, 25332.56
547.6430, 25313.08
548.1251, 25280.88
548.6072, 25264.95
549.0894, 25266.46
549.5715, 25249.58
550.0536, 25194.43
550.5357, 25149.93
551.0178, 25143.53
551.4999, 25153.84
551.9821, 25147.74
552.4642, 25110.41
552.9463, 25077.35
553.4284, 25092.16
553.9105, 25140.94
554.3926, 25167.73
554.8748, 25160.21
555.3569, 25135.07
555.8390, 25103.41
556.3211, 25065.13
556.8032, 25032.33
557.2853, 24999.39
557.7675, 24977.56
558.2496, 24984.67
558.7317, 25003.45
559.2138, 24995.27
559.6959, 24947.71
560.1780, 24901.85
560.6602, 24932.18
561.1423, 25077.58
561.6244, 25143.94
562.1065, 25051.56
562.5886, 24955.53
563.0707, 24902.24
563.5529, 24884.55
564.0350, 24886.70
564.5171, 24908.13
564.9992, 24929.11
565.4813, 24913.27
565.9634, 24864.17
566.4456, 24843.19
566.9277, 24875.40
567.4098, 24919.30
567.8919, 24929.29
568.3740, 24908.99
568.8561, 24887.67
569.3383, 24872.48
569.8204, 24854.52
570.3025, 24821.91
570.7846, 24781.93
571.2667, 24754.60
571.7488, 24748.57
572.2310, 24750.55
572.7131, 24735.56
573.1952, 24691.71
573.6773, 24663.01
574.1594, 24656.09
574.6415, 24656.87
575.1237, 24662.61
575.6058, 24671.24
576.0879, 24680.74
576.5700, 24691.37
577.0521, 24699.17
577.5342, 24697.81
578.0164, 24687.26
578.4985, 24670.64
578.9806, 24644.76
579.4627, 24619.11
579.9448, 24607.42
580.4269, 24607.64
580.9091, 24599.50
581.3912, 24572.21
581.8733, 24541.71
582.3554, 24514.95
582.8375, 24493.85
583.3196, 24480.11
583.8018, 24474.32
584.2839, 24480.16
584.7660, 24509.57
585.2481, 24588.12
585.7302, 24615.87
586.2123, 24550.36
586.6945, 24479.70
587.1766, 24435.15
587.6587, 24413.40
588.1408, 24401.71
588.6229, 24394.16
589.1050, 24394.44
589.5872, 24416.54
590.0693, 24459.00
590.5514, 24477.63
591.0335, 24458.21
591.5156, 24422.12
591.9977, 24379.71
592.4799, 24333.91
592.9620, 24314.33
593.4441, 24351.66
593.9262, 24389.95
594.4083, 24390.17
594.8904, 24368.45
595.3726, 24360.31
595.8547, 24378.03
596.3368, 24402.80
596.8189, 24405.81
597.3010, 24380.38
597.7831, 24364.95
598.2653, 24368.36
598.7474, 24372.96
599.2295, 24374.35
599.7116, 24373.12
600.1937, 24373.63
600.6758, 24379.89
601.1580, 24375.27
601.6401, 24328.66
602.1222, 24251.90
602.6043, 24207.76
603.0864, 24213.04
603.5685, 24224.89
604.0507, 24200.78
604.5328, 24147.72
605.0149, 24132.27
605.4970, 24200.29
605.9791, 24251.90
606.4612, 24247.32
606.9434, 24209.05
607.4255, 24153.82
607.9076, 24091.46
608.3897, 24047.42
608.8718, 24055.16
609.3539, 24113.09
609.8361, 24147.31
610.3182, 24146.44
610.8003, 24140.14
611.2824, 24133.88
611.7645, 24129.60
612.2466, 24133.36
612.7288, 24147.42
613.2109, 24150.97
613.6930, 24112.07
614.1751, 24059.42
614.6572, 24056.50
615.1393, 24107.06
615.6215, 24145.83
616.1036, 24129.00
616.5857, 24072.43
617.0678, 24033.41
617.5499, 24026.18
618.0320, 24016.99
618.5142, 24000.26
618.9963, 23984.30
619.4784, 23975.44
619.9605, 23973.47
620.4426, 23975.48
620.9247, 23980.98
621.4069, 23986.90
621.8890, 23982.52
622.3711, 23964.84
622.8532, 23956.49
623.3353, 23979.69
623.8174, 23997.24
624.2996, 23957.21
624.7817, 23864.87
625.2638, 23806.52
625.7459, 23828.48
626.2280, 23872.60
626.7101, 23909.03
627.1923, 23930.35
627.6744, 23913.54
628.1565, 23848.69
628.6386, 23775.03
629.1207, 23760.88
629.6028, 23828.77
630.0850, 23864.80
630.5671, 23847.34
631.0492, 23818.46
631.5313, 23776.73
632.0134, 23736.22
632.4955, 23721.08
632.9777, 23742.81
633.4598, 23768.13
633.9419, 23759.15
634.4240, 23727.09
634.9061, 23714.98
635.3882, 23732.04
635.8704, 23739.42
636.3525, 23700.34
636.8346, 23626.09
637.3167, 23589.92
637.7988, 23632.18
638.2809, 23653.97
638.7631, 23618.80
639.2452, 23569.56
639.7273, 23552.37
640.2094, 23565.74
640.6915, 23569.92
641.1736, 23528.65
641.6558, 23459.36
642.1379, 23424.33
642.6200, 23428.14
643.1021, 23448.89
643.5842, 23504.21
644.0663, 23551.70
644.5485, 23535.59
645.0306, 23458.21
645.5127, 23403.98
645.9948, 23408.81
646.4769, 23434.69
646.9590, 23458.31
647.4412, 23478.17
647.9233, 23496.67
648.4054, 23514.67
648.8875, 23524.16
649.3696, 23513.24
649.8517, 23481.06
650.3339, 23431.04
650.8160, 23316.88
651.2981, 23241.67
651.7802, 23267.86
652.2623, 23340.93
652.7444, 23381.64
653.2266, 23366.20
653.7087, 23343.19
654.1908, 23356.18
654.6729, 23387.71
655.1550, 23397.97
655.6371, 23382.96
656.1193, 23363.89
656.6014, 23355.57
657.0835, 23352.93
657.5656, 23337.12
658.0477, 23289.26
658.5298, 23254.02
659.0120, 23238.45
659.4941, 23229.74
659.9762, 23220.66
660.4583, 23210.45
660.9404, 23201.62
661.4225, 23197.65
661.9047, 23191.02
662.3868, 23159.89
662.8689, 23105.67
663.3510, 23080.75
663.8331, 23106.48
664.3152, 23141.16
664.7974, 23144.80
665.2795, 23118.24
665.7616, 23093.49
666.2437, 23060.85
666.7258, 23042.25
667.2079, 23059.62
667.6901, 23088.90
668.1722, 23102.58
668.6543, 23094.21
669.1364, 23070.05
669.6185, 23030.98
670.1006, 22981.40
670.5828, 22948.61
671.0649, 22935.37
671.5470, 22929.44
672.0291, 22928.54
672.5112, 22931.97
672.9933, 22939.62
673.4755, 22951.57
673.9576, 22962.40
674.4397, 22979.77
674.9218, 22987.33
675.4039, 22961.59
675.8860, 22916.59
676.3682, 22888.41
676.8503, 22890.97
677.3324, 22902.88
677.8145, 22890.77
678.2966, 22850.07
678.7787, 22823.80
679.2609, 22823.35
679.7430, 22821.17
680.2251, 22794.66
680.7072, 22766.08
681.1893, 22769.42
681.6714, 22815.31
682.1536, 22855.96
682.6357, 22863.61
683.1178, 22851.12
683.5999, 22820.68
684.0820, 22781.16
684.5641, 22778.58
685.0463, 22842.43
685.5284, 22938.86
686.0105, 22985.06
686.4926, 22947.12
686.9747, 22939.19
687.4568, 22978.45
687.9390, 23030.77
688.4211, 23097.54
688.9032, 23164.35
689.3853, 23204.37
689.8674, 23205.11
690.3495, 23193.97
690.8317, 23198.28
691.3138, 23206.87
691.7959, 23192.84
692.2780, 23153.32
692.7601, 23105.84
693.2422, 23064.22
693.7244, 23023.15
694.2065, 22960.70
694.6886, 22848.38
695.1707, 22761.94
695.6528, 22711.35
696.1349, 22678.31
696.6171, 22656.24
697.0992, 22642.11
697.5813, 22632.82
698.0634, 22628.45
698.5455, 22624.76
699.0276, 22624.85
699.5098, 22622.46
699.9919, 22589.25
700.4740, 22518.00
700.9561, 22438.21
701.4382, 22369.06
701.9203, 22312.71
702.4025, 22286.59
702.8846, 22327.56
703.3667, 22350.06
703.8488, 22341.95
704.3309, 22318.28
704.8130, 22286.32
705.2952, 22248.97
705.7773, 22208.56
706.2594, 22162.60
706.7415, 22120.59
707.2236, 22097.06
707.7057, 22090.06
708.1879, 22091.47
708.6700, 22101.64
709.1521, 22106.66
709.6342, 22091.31
710.1163, 22056.68
710.5984, 22031.57
711.0806, 22034.55
711.5627, 22021.98
712.0448, 21964.25
712.5269, 21905.28
713.0090, 21890.55
713.4911, 21915.08
713.9733, 21934.43
714.4554, 21920.24
714.9375, 21885.49
715.4196, 21847.10
715.9017, 21805.85
716.3839, 21763.84
716.8660, 21718.34
717.3481, 21689.03
717.8302, 21702.52
718.3123, 21758.55
718.7944, 21782.28
719.2766, 21754.48
719.7587, 21722.21
720.2408, 21687.49
720.7229, 21655.98
721.2050, 21634.99
721.6871, 21622.99
722.1693, 21609.01
722.6514, 21582.47
723.1335, 21553.49
723.6156, 21540.61
724.0977, 21541.81
724.5798, 21543.08
725.0620, 21541.68
725.5441, 21534.89
726.0262, 21519.65
726.5083, 21495.90
726.9904, 21468.10
727.4725, 21428.85
727.9547, 21394.98
728.4368, 21368.79
728.9189, 21349.28
729.4010, 21335.49
729.8831, 21327.43
730.3652, 21326.36
730.8474, 21336.62
731.3295, 21350.46
731.8116, 21358.27
732.2937, 21360.02
732.7758, 21355.61
733.2579, 21345.01
733.7401, 21327.92
734.2222, 21302.44
734.7043, 21269.32
735.1864, 21242.64
735.6685, 21231.13
736.1506, 21214.87
736.6328, 21186.40
737.1149, 21156.56
737.5970, 21135.78
738.0791, 21122.47
738.5612, 21106.03
739.0433, 21081.26
739.5255, 21050.22
740.0076, 20997.41
740.4897, 20939.30
740.9718, 20942.82
741.4539, 21023.43
741.9360, 21104.86
742.4182, 21118.88
742.9003, 21071.40
743.3824, 21012.12
743.8645, 20920.79
744.3466, 20852.85
744.8287, 20821.99
745.3109, 20809.04
745.7930, 20810.27
746.2751, 20819.81
746.7572, 20819.50
747.2393, 20787.49
747.7214, 20765.99
748.2036, 20815.77
748.6857, 20893.88
749.1678, 20911.38
749.6499, 20856.77
750.1320, 20779.62
750.6141, 20714.60
751.0963, 20662.35
751.5784, 20625.82
752.0605, 20604.99
752.5426, 20600.45
753.0247, 20631.04
753.5068, 20657.85
753.9890, 20655.29
754.4711, 20630.58
754.9532, 20603.60
755.4353, 20575.83
755.9174, 20550.92
756.3995, 20530.86
756.8817, 20514.54
757.3638, 20504.79
757.8459, 20498.56
758.3280, 20482.83
758.8101, 20448.64
759.2922, 20406.14
759.7744, 20374.62
760.2565, 20353.74
760.7386, 20353.61
761.2207, 20393.72
761.7028, 20417.10
762.1849, 20364.89
762.6671, 20274.84
763.1492, 20248.17
763.6313, 20327.68
764.1134, 20375.58
764.5955, 20338.32
765.0776, 20277.52
765.5598, 20225.20
766.0419, 20189.57
766.5240, 20183.71
767.0061, 20214.19
767.4882, 20246.48
767.9703, 20227.20
768.4525, 20168.00
768.9346, 20135.35
769.4167, 20135.43
769.8988, 20144.21
770.3809, 20154.83
770.8630, 20160.80
771.3452, 20149.01
771.8273, 20114.75
772.3094, 20075.40
772.7915, 20008.85
773.2736, 19961.85
773.7557, 19973.30
774.2379, 20006.54
774.7200, 20011.30
775.2021, 19976.38
775.6842, 19931.20
776.1663, 19889.93
776.6484, 19856.09
777.1306, 19834.28
777.6127, 19824.81
778.0948, 19834.56
778.5769, 19867.73
779.0590, 19897.84
779.5411, 19889.53
780.0233, 19841.77
780.5054, 19801.65
780.9875, 19763.21
781.4696, 19742.94
781.9517, 19761.84
782.4338, 19787.35
782.9160, 19792.22
783.3981, 19777.38
783.8802, 19762.99
784.3623, 19751.99
784.8444, 19747.74
785.3265, 19765.44
785.8087, 19785.90
786.2908, 19773.13
786.7729, 19725.65
787.2550, 19677.50
787.7371, 19655.91
788.2192, 19652.11
788.7014, 19638.54
789.1835, 19612.38
789.6656, 19609.95
790.1477, 19655.84
790.6298, 19686.01
791.1119, 19637.02
791.5941, 19529.75
792.0762, 19462.27
792.5583, 19451.16
793.0404, 19452.26
793.5225, 19475.41
794.0046, 19494.62
794.4868, 19485.83
794.9689, 19458.85
795.4510, 19439.41
795.9331, 19439.03
796.4152, 19443.33
796.8973, 19441.99
797.3795, 19432.95
797.8616, 19400.25
798.3437, 19345.84
798.8258, 19320.66
799.3079, 19355.05
799.7900, 19413.92
800.2722, 19435.11
800.7543, 19415.80
801.2364, 19370.00
801.7185, 19248.65
802.2006, 19168.86
802.6827, 19204.64
803.1649, 19275.87
803.6470, 19290.92
804.1291, 19240.89
804.6112, 19197.65
805.0933, 19202.42
805.5754, 19209.70
806.0576, 19172.56
806.5397, 19118.45
807.0218, 19104.53
807.5039, 19138.59
807.9860, 19170.16
808.4681, 19149.18
808.9503, 19096.32
809.4324, 19084.91
809.9145, 19118.66
810.3966, 19123.82
810.8787, 19072.88
811.3608, 19019.62
811.8430, 19013.24
812.3251, 19046.43
812.8072, 19065.37
813.2893, 19078.87
813.7714, 19066.04
814.2535, 18995.26
814.7357, 18925.14
815.2178, 18893.02
815.6999, 18892.63
816.1820, 18904.90
816.6641, 18925.83
817.1462, 18944.85
817.6284, 18957.90
818.1105, 18961.51
818.5926, 18945.10
819.0747, 18912.12
819.5568, 18880.96
820.0389, 18860.23
820.5211, 18845.88
821.0032, 18833.47
821.4852, 18823.60
821.9673, 18802.59
822.4495, 18761.33
822.9316, 18732.11
823.4137, 18731.37
823.8958, 18745.00
824.3779, 18758.60
824.8600, 18772.55
825.3422, 18775.92
825.8243, 18753.88
826.3064, 18737.23
826.7885, 18746.49
827.2706, 18761.73
827.7527, 18754.30
828.2349, 18727.78
828.7170, 18718.59
829.1991, 18761.66
829.6812, 18810.38
830.1633, 18792.15
830.6454, 18727.23
831.1276, 18681.47
831.6097, 18665.00
832.0918, 18658.80
832.5739, 18650.90
833.0560, 18642.02
833.5381, 18635.83
834.0203, 18637.55
834.5024, 18621.97
834.9845, 18567.26
835.4666, 18525.46
835.9487, 18526.17
836.4308, 18554.09
836.9130, 18596.80
837.3951, 18662.53
837.8772, 18692.76
838.3593, 18655.40
838.8414, 18596.46
839.3235, 18519.36
839.8057, 18449.58
840.2878, 18430.96
840.7699, 18467.25
841.2520, 18505.38
841.7341, 18499.62
842.2162, 18470.94
842.6984, 18452.04
843.1805, 18443.78
843.6626, 18459.61
844.1447, 18503.77
844.6268, 18533.66
845.1089, 18508.12
845.5911, 18443.33
846.0732, 18416.67
846.5553, 18450.77
847.0374, 18460.86
847.5195, 18417.90
848.0016, 18375.61
848.4838, 18372.87
848.9659, 18390.21
849.4480, 18389.85
849.9301, 18364.41
850.4122, 18334.79
850.8943, 18292.00
851.3765, 18261.07
851.8586, 18276.22
852.3407, 18309.57
852.8228, 18304.34
853.3049, 18248.68
853.7870, 18201.81
854.2692, 18238.81
854.7513, 18307.63
855.2334, 18300.96
855.7155, 18234.50
856.1976, 18183.93
856.6797, 18169.53
857.1619, 18171.67
857.6440, 18172.48
858.1261, 18174.14
858.6082, 18192.60
859.0903, 18241.51
859.5724, 18262.31
860.0546, 18235.27
860.5367, 18195.71
861.0188, 18157.80
861.5009, 18126.08
861.9830, 18113.32
862.4651, 18128.81
862.9473, 18141.00
863.4294, 18150.57
863.9115, 18148.73
864.3936, 18116.86
864.8757, 18075.19
865.3578, 18058.73
865.8400, 18075.07
866.3221, 18094.55
866.8042, 18096.35
867.2863, 18087.95
867.7684, 18074.86
868.2505, 18060.36
868.7327, 18056.02
869.2148, 18063.81
869.6969, 18071.32
870.1790, 18067.46
870.6611, 18055.26
871.1432, 18044.87
871.6254, 18036.18
872.1075, 18029.68
872.5896, 18025.68
873.0717, 18023.12
873.5538, 18021.83
874.0359, 18021.27
874.5181, 18020.80
875.0002, 18026.63
875.4823, 18018.18
875.9644, 17986.44
876.4465, 17950.66
876.9286, 17917.03
877.4108, 17884.76
877.8929, 17846.58
878.3750, 17802.97
878.8571, 17781.24
879.3392, 17803.13
879.8214, 17843.11
880.3035, 17895.64
880.7856, 17945.89
881.2677, 17970.16
881.7498, 17966.03
882.2319, 17944.20
882.7141, 17909.24
883.1962, 17869.80
883.6783, 17836.35
884.1604, 17810.95
884.6425, 17811.28
885.1246, 17840.54
885.6068, 17873.57
886.0889, 17899.43
886.5710, 17914.48
887.0531, 17910.11
887.5352, 17882.05
888.0173, 17858.67
888.4995, 17840.22
888.9816, 17825.97
889.4637, 17817.85
889.9458, 17812.29
890.4279, 17806.84
890.9100, 17801.30
891.3922, 17793.26
891.8743, 17767.73
892.3564, 17758.79
892.8385, 17792.39
893.3206, 17834.58
893.8027, 17858.01
894.2849, 17863.53
894.7670, 17862.49
895.2491, 17859.31
895.7312, 17851.27
896.2133, 17831.94
896.6954, 17808.52
897.1776, 17790.89
897.6597, 17779.45
898.1418, 17773.56
898.6239, 17772.80
899.1060, 17775.52
899.5881, 17781.20
900.0703, 17788.27
900.5524, 17792.40
901.0345, 17794.18
901.5166, 17776.38
901.9987, 17728.94
902.4808, 17685.22
902.9630, 17675.33
903.4451, 17689.55
903.9272, 17685.21
904.4093, 17633.77
904.8914, 17624.79
905.3735, 17723.97
905.8557, 17790.48
906.3378, 17736.68
906.8199, 17629.39
907.3020, 17556.69
907.7841, 17525.35
908.2662, 17530.37
908.7484, 17614.87
909.2305, 17684.15
909.7126, 17679.16
910.1947, 17641.22
910.6768, 17613.35
911.1589, 17602.76
911.6411, 17603.34
912.1232, 17615.03
912.6053, 17629.11
913.0874, 17641.75
913.5695, 17648.43
914.0516, 17631.89
914.5338, 17599.07
915.0159, 17590.03
915.4980, 17623.72
915.9801, 17662.21
916.4622, 17644.63
916.9443, 17582.73
917.4265, 17556.82
917.9086, 17568.36
918.3907, 17582.73
918.8728, 17589.59
919.3549, 17600.36
919.8370, 17633.61
920.3192, 17679.21
920.8013, 17661.42
921.2834, 17532.93
921.7655, 17456.13
922.2476, 17472.80
922.7297, 17507.70
923.2119, 17525.86
923.6940, 17532.78
924.1761, 17538.07
924.6582, 17543.98
925.1403, 17539.71
925.6224, 17510.74
926.1046, 17486.63
926.5867, 17485.35
927.0688, 17492.00
927.5509, 17484.40
928.0330, 17465.40
928.5151, 17464.49
928.9973, 17510.65
929.4794, 17552.55
929.9615, 17549.84
930.4436, 17523.11
930.9257, 17482.98
931.4078, 17443.79
931.8900, 17447.14
932.3721, 17510.69
932.8542, 17573.66
933.3363, 17552.97
933.8184, 17483.71
934.3005, 17462.95
934.7827, 17483.34
935.2648, 17485.41
935.7469, 17452.73
936.2290, 17427.33
936.7111, 17451.31
937.1932, 17504.59
937.6754, 17510.24
938.1575, 17460.41
938.6396, 17429.97
939.1217, 17430.01
939.6038, 17439.90
940.0859, 17452.91
940.5681, 17464.25
941.0502, 17464.08
941.5323, 17449.47
942.0144, 17439.21
942.4965, 17440.46
942.9786, 17436.11
943.4608, 17418.10
943.9429, 17396.99
944.4250, 17376.38
944.9071, 17359.28
945.3892, 17358.53
945.8713, 17397.08
946.3535, 17414.83
946.8356, 17372.38
947.3177, 17327.40
947.7998, 17321.89
948.2819, 17340.57
948.7640, 17353.81
949.2462, 17354.53
949.7283, 17355.10
950.2104, 17368.20
950.6925, 17378.98
951.1746, 17368.46
951.6567, 17349.21
952.1389, 17342.05
952.6210, 17348.47
953.1031, 17359.85
953.5852, 17373.02
954.0673, 17378.63
954.5494, 17349.85
955.0316, 17307.13
955.5137, 17310.05
955.9958, 17355.86
956.4779, 17406.62
956.9600, 17448.38
957.4421, 17473.77
957.9243, 17472.89
958.4064, 17449.79
958.8885, 17420.00
959.3706, 17382.81
959.8527, 17353.36
960.3348, 17335.02
960.8170, 17320.42
961.2991, 17305.42
961.7812, 17289.89
962.2633, 17272.88
962.7454, 17252.08
963.2275, 17240.46
963.7097, 17241.59
964.1918, 17245.51
964.6739, 17253.27
965.1560, 17258.63
965.6381, 17257.13
966.1202, 17248.19
966.6024, 17226.57
967.0845, 17166.68
967.5666, 17131.98
968.0487, 17145.27
968.5308, 17168.05
969.0129, 17185.50
969.4951, 17195.61
969.9772, 17192.28
970.4593, 17172.60
970.9414, 17169.74
971.4235, 17218.19
971.9056, 17258.52
972.3878, 17256.62
972.8699, 17232.48
973.3520, 17204.95
973.8341, 17177.54
974.3162, 17147.80
974.7983, 17111.70
975.2805, 17084.05
975.7626, 17080.10
976.2447, 17087.76
976.7268, 17097.46
977.2089, 17105.75
977.6910, 17104.07
978.1732, 17092.06
978.6553, 17086.81
979.1374, 17108.71
979.6195, 17135.84
980.1016, 17128.22
980.5837, 17097.23
981.0659, 17075.94
981.5480, 17067.16
982.0301, 17055.73
982.5122, 17033.45
982.9943, 17012.63
983.4764, 17010.78
983.9586, 17026.39
984.4407, 17053.27
984.9228, 17091.47
985.4049, 17136.32
985.8870, 17190.87
986.3691, 17207.05
986.8513, 17135.68
987.3334, 17014.33
987.8155, 16960.47
988.2976, 16985.41
988.7797, 17003.73
989.2618, 17014.35
989.7440, 17007.26
990.2261, 16965.61
990.7082, 16927.39
991.1903, 16947.97
991.6724, 17025.02
992.1545, 17056.52
992.6367, 17024.12
993.1188, 16981.97
993.6009, 16915.68
994.0830, 16866.93
994.5651, 16869.85
995.0472, 16903.88
995.5294, 16928.65
996.0115, 16944.06
996.4936, 16950.98
996.9757, 16948.39
997.4578, 16938.72
997.9399, 16910.55
998.4221, 16885.73
998.9042, 16887.19
999.3863, 16908.38
999.8684, 16922.29
1000.351, 16920.67
1000.833, 16919.51
1001.315, 16918.98
1001.797, 16924.72
1002.279, 16954.28
1002.761, 16984.23
1003.243, 16972.79
1003.725, 16922.03
1004.207, 16892.87
1004.690, 16924.08
1005.172, 16965.61
1005.654, 17005.61
1006.136, 17027.86
1006.618, 16999.32
1007.100, 16942.71
1007.582, 16914.14
1008.064, 16929.92
1008.547, 16942.35
1009.029, 16907.57
1009.511, 16861.24
1009.993, 16833.98
1010.475, 16823.94
1010.957, 16833.98
1011.439, 16858.19
1011.921, 16876.76
1012.403, 16879.88
1012.886, 16873.46
1013.368, 16862.33
1013.850, 16847.07
1014.332, 16822.23
1014.814, 16794.47
1015.296, 16788.97
1015.778, 16808.30
1016.260, 16822.29
1016.742, 16806.46
1017.225, 16779.38
1017.707, 16776.63
1018.189, 16790.22
1018.671, 16789.33
1019.153, 16773.71
1019.635, 16758.29
1020.117, 16748.49
1020.599, 16750.57
1021.082, 16774.85
1021.564, 16811.25
1022.046, 16821.47
1022.528, 16808.18
1023.010, 16815.29
1023.492, 16849.17
1023.974, 16880.96
1024.456, 16898.04
1024.938, 16893.94
1025.421, 16850.71
1025.903, 16774.48
1026.385, 16746.51
1026.867, 16772.87
1027.349, 16790.36
1027.831, 16785.25
1028.313, 16777.00
1028.795, 16779.61
1029.278, 16786.01
1029.760, 16778.24
1030.242, 16752.56
1030.724, 16746.94
1031.206, 16771.68
1031.688, 16779.17
1032.170, 16749.83
1032.652, 16713.26
1033.135, 16692.18
1033.617, 16686.37
1034.099, 16697.66
1034.581, 16738.51
1035.063, 16758.76
1035.545, 16746.84
1036.027, 16736.84
1036.509, 16739.01
1036.991, 16751.43
1037.474, 16779.87
1037.956, 16819.99
1038.438, 16826.32
1038.920, 16782.72
1039.402, 16735.36
1039.884, 16664.74
1040.366, 16620.17
1040.848, 16639.58
1041.330, 16686.78
1041.813, 16716.65
1042.295, 16729.04
1042.777, 16727.03
1043.259, 16694.40
1043.741, 16671.52
1044.223, 16667.38
1044.705, 16668.41
1045.187, 16669.26
1045.670, 16669.66
1046.152, 16669.40
1046.634, 16668.56
1047.116, 16666.72
1047.598, 16660.26
1048.080, 16657.76
1048.562, 16650.59
1049.044, 16657.91
1049.526, 16702.10
1050.009, 16769.06
1050.491, 16818.53
1050.973, 16829.63
1051.455, 16898.80
1051.937, 17092.14
1052.419, 17282.17
1052.901, 17422.21
1053.383, 17542.16
1053.865, 17646.23
1054.348, 17755.22
1054.830, 17919.83
1055.312, 18143.09
1055.794, 18440.20
1056.276, 18845.49
1056.758, 19288.84
1057.240, 19681.65
1057.722, 20134.69
1058.205, 20815.17
1058.687, 21675.50
1059.169, 22510.35
1059.651, 23471.30
1060.133, 23904.24
1060.615, 23370.86
1061.097, 22506.89
1061.579, 21486.33
1062.062, 20476.19
1062.544, 19632.65
1063.026, 18971.28
1063.508, 18421.66
1063.990, 17995.76
1064.472, 17625.00
1064.954, 17277.50
1065.436, 16982.69
1065.918, 16766.20
1066.401, 16613.04
1066.883, 16510.45
1067.365, 16450.92
1067.847, 16401.79
1068.329, 16343.62
1068.811, 16304.78
1069.293, 16306.93
1069.775, 16324.32
1070.257, 16342.88
1070.740, 16360.04
1071.222, 16375.95
1071.704, 16390.15
1072.186, 16397.46
1072.668, 16400.26
1073.150, 16389.81
1073.632, 16347.72
1074.114, 16303.53
1074.596, 16280.10
1075.079, 16274.52
1075.561, 16283.98
1076.043, 16306.36
1076.525, 16313.09
1077.007, 16270.37
1077.489, 16236.03
1077.971, 16250.01
1078.453, 16275.67
1078.936, 16285.36
1079.418, 16278.56
1079.900, 16254.31
1080.382, 16212.70
1080.864, 16188.85
1081.346, 16221.12
1081.828, 16247.29
1082.310, 16225.95
1082.792, 16190.66
1083.275, 16174.23
1083.757, 16169.87
1084.239, 16152.65
1084.721, 16115.75
1085.203, 16092.82
1085.685, 16103.84
1086.167, 16126.08
1086.649, 16162.76
1087.131, 16192.04
1087.614, 16190.46
1088.096, 16165.30
1088.578, 16132.64
1089.060, 16094.55
1089.542, 16074.69
1090.024, 16102.49
1090.506, 16126.57
1090.988, 16113.03
1091.471, 16089.62
1091.953, 16083.03
1092.435, 16089.32
1092.917, 16092.64
1093.399, 16088.71
1093.881, 16087.54
1094.363, 16101.50
1094.845, 16108.23
1095.328, 16096.42
1095.810, 16072.85
1096.292, 16032.26
1096.774, 15987.74
1097.256, 15972.84
1097.738, 16000.18
1098.220, 16015.56
1098.702, 15993.54
1099.184, 15966.44
1099.667, 15938.78
1100.149, 15920.21
1100.631, 15921.65
1101.113, 15938.29
1101.595, 15959.27
1102.077, 15984.40
1102.559, 16003.88
1103.041, 16025.43
1103.523, 16027.89
1104.006, 15987.51
1104.488, 15939.08
1104.970, 15906.86
1105.452, 15890.83
1105.934, 15889.00
1106.416, 15905.52
1106.898, 15912.46
1107.380, 15894.50
1107.863, 15880.27
1108.345, 15879.58
1108.827, 15884.67
1109.309, 15889.68
1109.791, 15895.75
1110.273, 15909.52
1110.755, 15937.15
1111.237, 15944.65
1111.719, 15926.71
1112.202, 15891.54
1112.684, 15802.72
1113.166, 15734.37
1113.648, 15759.83
1114.130, 15837.39
1114.612, 15868.19
1115.094, 15835.43
1115.576, 15828.50
1116.058, 15892.58
1116.541, 15912.46
1117.023, 15824.93
1117.505, 15741.38
1117.987, 15742.20
1118.469, 15788.27
1118.951, 15800.65
1119.433, 15772.48
1119.915, 15761.93
1120.398, 15780.08
1120.880, 15792.79
1121.362, 15794.54
1121.844, 15788.41
1122.326, 15767.54
1122.808, 15749.29
1123.290, 15770.19
1123.772, 15833.58
1124.255, 15861.54
1124.737, 15844.09
1125.219, 15823.02
1125.701, 15807.08
1126.183, 15777.22
1126.665, 15712.21
1127.147, 15649.12
1127.629, 15649.45
1128.111, 15709.07
1128.594, 15750.16
1129.076, 15771.08
1129.558, 15784.29
1130.040, 15791.57
1130.522, 15790.42
1131.004, 15779.12
1131.486, 15759.24
1131.968, 15727.07
1132.450, 15691.32
1132.933, 15715.52
1133.415, 15798.87
1133.897, 15825.78
1134.379, 15782.45
1134.861, 15748.17
1135.343, 15757.19
1135.825, 15784.39
1136.307, 15805.95
1136.790, 15818.57
1137.272, 15808.52
1137.754, 15779.96
1138.236, 15752.53
1138.718, 15729.61
1139.200, 15723.77
1139.682, 15738.76
1140.164, 15757.88
1140.646, 15765.52
1141.129, 15769.74
1141.611, 15792.38
1142.093, 15820.92
1142.575, 15809.58
1143.057, 15773.11
1143.539, 15782.05
1144.021, 15847.93
1144.503, 15903.62
1144.985, 15900.86
1145.468, 15870.42
1145.950, 15838.35
1146.432, 15809.49
1146.914, 15792.82
1147.396, 15785.05
1147.878, 15778.62
1148.360, 15772.25
1148.842, 15768.22
1149.325, 15767.09
1149.807, 15771.42
1150.289, 15792.82
1150.771, 15811.22
1151.253, 15807.00
1151.735, 15788.15
1152.217, 15760.67
1152.699, 15730.83
1153.182, 15714.34
1153.664, 15719.04
1154.146, 15722.57
1154.628, 15707.45
1155.110, 15696.40
1155.592, 15703.64
1156.074, 15719.98
1156.556, 15742.30
1157.038, 15764.35
1157.521, 15768.46
1158.003, 15745.52
1158.485, 15746.98
1158.967, 15823.90
1159.449, 15870.81
1159.931, 15826.84
1160.413, 15774.08
1160.895, 15770.48
1161.377, 15795.10
1161.860, 15803.99
1162.342, 15793.58
1162.824, 15801.93
1163.306, 15860.53
1163.788, 15879.33
1164.270, 15821.48
1164.752, 15769.61
1165.234, 15766.20
1165.717, 15785.00
1166.199, 15796.85
1166.681, 15800.25
1167.163, 15773.08
1167.645, 15696.79
1168.127, 15681.47
1168.609, 15752.97
1169.091, 15795.90
1169.573, 15758.74
1170.056, 15713.90
1170.538, 15728.67
1171.020, 15795.93
1171.502, 15929.42
1171.984, 16117.05
1172.466, 16122.51
1172.948, 15946.87
1173.430, 15812.60
1173.912, 15777.95
1174.395, 15786.74
1174.877, 15803.47
1175.359, 15817.89
1175.841, 15806.67
1176.323, 15783.32
1176.805, 15787.77
1177.287, 15810.68
1177.769, 15820.39
1178.252, 15814.31
1178.734, 15808.31
1179.216, 15809.83
1179.698, 15818.05
1180.180, 15842.24
1180.662, 15863.27
1181.144, 15856.95
1181.626, 15835.40
1182.109, 15807.21
1182.591, 15781.43
1183.073, 15779.89
1183.555, 15806.23
1184.037, 15821.40
1184.519, 15784.93
1185.001, 15758.90
1185.483, 15791.76
1185.965, 15830.14
1186.448, 15835.22
1186.930, 15817.28
1187.412, 15788.63
1187.894, 15753.91
1188.376, 15734.03
1188.858, 15746.26
1189.340, 15748.67
1189.822, 15726.39
1190.304, 15705.12
1190.787, 15684.11
1191.269, 15678.07
1191.751, 15710.29
1192.233, 15765.53
1192.715, 15793.48
1193.197, 15788.85
1193.679, 15778.15
1194.161, 15751.78
1194.644, 15753.02
1195.126, 15803.54
1195.608, 15842.58
1196.090, 15829.18
1196.572, 15789.33
1197.054, 15762.67
1197.536, 15749.83
1198.018, 15765.17
1198.500, 15806.16
1198.983, 15804.83
1199.465, 15755.91
1199.947, 15734.04
1200.429, 15769.77
1200.911, 15805.81
1201.393, 15779.42
1201.875, 15730.88
1202.357, 15742.85
1202.839, 15784.49
1203.322, 15785.88
1203.804, 15755.68
1204.286, 15728.52
1204.768, 15714.05
1205.250, 15712.01
1205.732, 15725.10
1206.214, 15738.05
1206.696, 15742.63
1207.179, 15737.72
1207.661, 15703.15
1208.143, 15672.06
1208.625, 15700.36
1209.107, 15767.80
1209.589, 15804.98
1210.071, 15793.29
1210.553, 15771.98
1211.036, 15731.12
1211.518, 15711.87
1212.000, 15745.52
1212.482, 15784.62
1212.964, 15803.80
1213.446, 15806.21
1213.928, 15790.37
1214.410, 15758.39
1214.892, 15761.71
1215.375, 15824.62
1215.857, 15855.89
1216.339, 15842.50
1216.821, 15821.72
1217.303, 15804.23
1217.785, 15791.31
1218.267, 15786.57
1218.749, 15782.19
1219.231, 15748.22
1219.714, 15689.64
1220.196, 15691.58
1220.678, 15747.83
1221.160, 15784.60
1221.642, 15787.85
1222.124, 15767.01
1222.606, 15726.16
1223.088, 15701.28
1223.571, 15759.24
1224.053, 15832.15
1224.535, 15783.51
1225.017, 15689.90
1225.499, 15697.05
1225.981, 15774.35
1226.463, 15805.41
1226.945, 15767.68
1227.427, 15739.57
1227.910, 15764.28
1228.392, 15799.57
1228.874, 15840.06
1229.356, 15864.34
1229.838, 15846.19
1230.320, 15813.37
1230.802, 15795.44
1231.284, 15791.85
1231.766, 15792.81
1232.249, 15801.85
1232.731, 15799.56
1233.213, 15789.49
1233.695, 15758.59
1234.177, 15678.08
1234.659, 15626.29
1235.141, 15656.43
1235.623, 15723.05
1236.106, 15763.62
1236.588, 15780.55
1237.070, 15789.41
1237.552, 15790.04
1238.034, 15788.02
1238.516, 15783.85
1238.998, 15785.34
1239.480, 15794.60
1239.963, 15799.82
1240.445, 15790.28
1240.927, 15781.70
1241.409, 15812.05
1241.891, 15850.02
1242.373, 15818.88
1242.855, 15757.59
1243.337, 15756.05
1243.819, 15806.28
1244.302, 15838.94
1244.784, 15830.51
1245.266, 15818.47
1245.748, 15834.94
1246.230, 15839.61
1246.712, 15796.76
1247.194, 15750.07
1247.676, 15722.46
1248.158, 15717.83
1248.641, 15752.59
1249.123, 15818.41
1249.605, 15849.12
1250.087, 15826.09
1250.569, 15804.58
1251.051, 15779.69
1251.533, 15766.34
1252.015, 15767.45
1252.498, 15785.15
1252.980, 15828.02
1253.462, 15870.77
1253.944, 15868.53
1254.426, 15828.69
1254.908, 15789.75
1255.390, 15754.84
1255.872, 15762.38
1256.354, 15809.27
1256.837, 15843.58
1257.319, 15848.42
1257.801, 15840.72
1258.283, 15831.99
1258.765, 15820.17
1259.247, 15791.93
1259.729, 15769.01
1260.211, 15788.80
1260.693, 15824.94
1261.176, 15831.05
1261.658, 15815.36
1262.140, 15826.02
1262.622, 15879.24
1263.104, 15901.53
1263.586, 15826.03
1264.068, 15780.39
1264.550, 15834.51
1265.033, 15885.39
1265.515, 15870.17
1265.997, 15831.22
1266.479, 15807.01
1266.961, 15800.77
1267.443, 15837.69
1267.925, 15937.17
1268.407, 15951.52
1268.890, 15868.47
1269.372, 15819.86
1269.854, 15835.01
1270.336, 15871.08
1270.818, 15905.57
1271.300, 15924.31
1271.782, 15901.19
1272.264, 15861.17
1272.746, 15851.67
1273.229, 15862.82
1273.711, 15880.52
1274.193, 15900.38
1274.675, 15921.69
1275.157, 15940.40
1275.639, 15935.00
1276.121, 15882.07
1276.603, 15854.86
1277.085, 15918.17
##END=



