##NAMES=Wittichenite
##RRUFFID=R050327
##IDEAL CHEMISTRY=Cu_3_BiS_3_
##LOCALITY=Grube Daniel, Wittichen, Schwarzwald, Germany
##OWNER=RRUFF
##SOURCE=Marcus Origlieri
##DESCRIPTION=Tin-white metallic blebs
##STATUS=The identification of this mineral has been confirmed by X-ray diffraction and chemical analysis
##URL=rruff.info/R050327
##MEASURED CHEMISTRY=Cu_3.00_Bi_1.00_S_3.00_
123.939, 384.069
124.421, 434.564
124.903, 494.925
125.385, 565.977
125.867, 648.122
126.349, 742.116
126.831, 856.740
127.313, 975.691
127.796, 1097.143
128.278, 1220.731
128.760, 1347.872
129.242, 1478.872
129.724, 1614.208
130.206, 1750.269
130.688, 1925.935
131.170, 2065.820
131.652, 2151.658
132.135, 2181.752
132.617, 2154.833
133.099, 2065.747
133.581, 1908.726
134.063, 1748.425
134.545, 1574.211
135.027, 1406.089
135.509, 1252.080
135.992, 1113.421
136.474, 989.284
136.956, 878.329
137.438, 781.532
137.920, 712.544
138.402, 687.094
138.884, 675.454
139.366, 654.303
139.848, 622.501
140.331, 598.913
140.813, 605.026
141.295, 648.517
141.777, 685.069
142.259, 705.477
142.741, 723.118
143.223, 752.102
143.705, 794.865
144.188, 839.806
144.670, 872.668
145.152, 892.023
145.634, 916.187
146.116, 950.723
146.598, 990.119
147.080, 1031.130
147.562, 1075.077
148.044, 1111.303
148.527, 1122.962
149.009, 1111.757
149.491, 1094.656
149.973, 1077.536
150.455, 1056.882
150.937, 1024.242
151.419, 974.356
151.901, 921.280
152.383, 883.281
152.866, 859.413
153.348, 834.872
153.830, 795.570
154.312, 751.554
154.794, 730.010
155.276, 745.192
155.758, 769.773
156.240, 769.688
156.723, 745.325
157.205, 724.650
157.687, 725.983
158.169, 743.365
158.651, 755.422
159.133, 756.956
159.615, 751.988
160.097, 742.688
160.579, 728.766
161.062, 720.069
161.544, 730.377
162.026, 754.896
162.508, 763.268
162.990, 741.327
163.472, 708.082
163.954, 681.175
164.436, 661.140
164.919, 643.457
165.401, 624.028
165.883, 603.251
166.365, 587.208
166.847, 579.200
167.329, 575.050
167.811, 572.420
168.293, 571.163
168.775, 568.427
169.258, 560.367
169.740, 547.027
170.222, 536.875
170.704, 537.102
171.186, 536.363
171.668, 523.826
172.150, 498.815
172.632, 475.008
173.115, 468.118
173.597, 479.427
174.079, 483.990
174.561, 469.282
175.043, 452.193
175.525, 444.716
176.007, 447.939
176.489, 452.730
176.971, 450.089
177.454, 439.384
177.936, 427.356
178.418, 412.968
178.900, 399.135
179.382, 386.677
179.864, 375.870
180.346, 368.341
180.828, 367.349
181.311, 374.126
181.793, 378.382
182.275, 375.366
182.757, 371.398
183.239, 369.519
183.721, 370.214
184.203, 372.571
184.685, 376.694
185.167, 383.387
185.650, 386.796
186.132, 382.942
186.614, 377.619
187.096, 374.044
187.578, 372.489
188.060, 370.595
188.542, 363.307
189.024, 347.978
189.507, 342.499
189.989, 334.239
190.471, 343.099
190.953, 347.803
191.435, 348.575
191.917, 333.636
192.399, 338.984
192.881, 336.202
193.363, 333.086
193.846, 341.290
194.328, 328.636
194.810, 336.660
195.292, 336.429
195.774, 339.977
196.256, 335.344
196.738, 333.238
197.220, 339.314
197.702, 340.860
198.185, 335.286
198.667, 339.073
199.149, 326.134
199.631, 329.232
200.113, 320.379
200.595, 330.619
201.077, 336.225
201.559, 337.444
202.042, 321.143
202.524, 327.467
203.006, 324.723
203.488, 321.608
203.970, 331.116
204.452, 317.363
204.934, 326.671
205.416, 326.773
205.898, 331.089
206.381, 326.281
206.863, 324.291
207.345, 331.428
207.827, 333.511
208.309, 327.653
208.791, 332.236
209.273, 318.165
209.755, 321.979
210.238, 314.746
210.720, 326.233
211.202, 333.176
211.684, 335.819
212.166, 321.284
212.648, 328.931
213.130, 327.688
213.612, 326.081
214.094, 336.850
214.577, 324.813
215.059, 335.386
215.541, 336.934
216.023, 342.612
216.505, 339.346
216.987, 338.842
217.469, 347.286
217.951, 350.775
218.434, 346.479
218.916, 352.420
219.398, 340.071
219.880, 343.771
220.362, 354.397
220.844, 347.475
221.326, 366.227
221.808, 360.261
222.290, 353.281
222.773, 380.715
223.255, 344.734
223.737, 371.622
224.219, 373.414
224.701, 369.389
225.183, 376.694
225.665, 385.003
226.147, 392.004
226.629, 393.596
227.112, 386.060
227.594, 375.557
228.076, 361.085
228.558, 385.747
229.040, 400.910
229.522, 407.084
230.004, 377.344
230.486, 393.979
230.969, 392.029
231.451, 389.317
231.933, 412.479
232.415, 387.963
232.897, 410.715
233.379, 414.598
233.861, 414.108
234.343, 424.681
234.825, 444.955
235.307, 465.151
235.790, 471.651
236.272, 462.347
236.754, 456.225
237.236, 463.576
237.718, 472.578
238.200, 473.055
238.682, 463.187
239.165, 452.163
239.647, 446.844
240.129, 447.220
240.611, 455.148
241.093, 479.685
241.575, 503.967
242.057, 512.132
242.539, 503.932
243.021, 495.725
243.503, 500.938
243.986, 517.065
244.468, 529.560
244.950, 536.203
245.432, 538.484
245.914, 534.527
246.396, 525.775
246.878, 523.549
247.361, 537.712
247.843, 562.799
248.325, 585.835
248.807, 608.400
249.289, 622.218
249.771, 611.435
250.253, 584.270
250.735, 568.656
251.217, 581.013
251.699, 608.825
252.182, 633.269
252.664, 652.871
253.146, 671.371
253.628, 693.712
254.110, 717.095
254.592, 733.391
255.074, 731.583
255.556, 727.749
256.039, 743.223
256.521, 778.275
257.003, 805.552
257.485, 803.404
257.967, 781.606
258.449, 774.252
258.931, 789.531
259.413, 812.393
259.896, 838.391
260.378, 865.612
260.860, 883.877
261.342, 886.867
261.824, 878.843
262.306, 871.304
262.788, 859.120
263.270, 855.387
263.752, 870.361
264.235, 897.357
264.717, 922.049
265.199, 939.325
265.681, 951.946
266.163, 965.773
266.645, 983.737
267.127, 996.034
267.609, 996.626
268.091, 992.125
268.574, 989.723
269.056, 991.257
269.538, 997.260
270.020, 1009.606
270.502, 1033.983
270.984, 1048.317
271.466, 1039.833
271.948, 1029.667
272.431, 1038.746
272.913, 1067.337
273.395, 1095.664
273.877, 1103.329
274.359, 1085.872
274.841, 1076.936
275.323, 1077.398
275.805, 1083.981
276.288, 1096.415
276.770, 1113.789
277.252, 1134.940
277.734, 1160.057
278.216, 1188.495
278.698, 1208.673
279.180, 1211.270
279.662, 1215.954
280.144, 1227.881
280.626, 1244.639
281.109, 1262.549
281.591, 1279.802
282.073, 1296.140
282.555, 1310.579
283.037, 1323.504
283.519, 1333.752
284.001, 1339.916
284.483, 1344.222
284.966, 1348.447
285.448, 1353.217
285.930, 1358.765
286.412, 1367.006
286.894, 1383.047
287.376, 1387.916
287.858, 1367.511
288.340, 1345.816
288.823, 1341.271
289.305, 1353.852
289.787, 1365.685
290.269, 1357.034
290.751, 1326.370
291.233, 1296.826
291.715, 1269.706
292.197, 1243.314
292.679, 1216.566
293.162, 1189.863
293.644, 1164.198
294.126, 1140.386
294.608, 1118.193
295.090, 1097.436
295.572, 1079.576
296.054, 1060.015
296.536, 1037.182
297.018, 1011.097
297.501, 981.226
297.983, 945.331
298.465, 907.530
298.947, 871.341
299.429, 835.677
299.911, 810.838
300.393, 810.447
300.875, 819.188
301.358, 814.929
301.840, 792.046
302.322, 765.135
302.804, 741.263
303.286, 721.220
303.768, 710.567
304.250, 715.843
304.732, 723.740
305.215, 711.089
305.697, 674.752
306.179, 646.582
306.661, 644.069
307.143, 653.135
307.625, 652.754
308.107, 638.832
308.589, 620.786
309.071, 611.057
309.553, 611.599
310.036, 592.502
310.518, 522.247
311.000, 456.068
311.482, 442.404
311.964, 473.547
312.446, 501.878
312.928, 492.100
313.410, 448.440
313.893, 422.629
314.375, 426.331
314.857, 431.141
315.339, 428.445
315.821, 421.918
316.303, 418.763
316.785, 422.411
317.267, 428.992
317.750, 429.014
318.232, 418.296
318.714, 406.484
319.196, 390.928
319.678, 376.370
320.160, 367.285
320.642, 364.274
321.124, 363.518
321.606, 358.848
322.089, 346.779
322.571, 345.700
323.053, 375.037
323.535, 398.048
324.017, 394.470
324.499, 370.599
324.981, 346.890
325.463, 338.210
325.945, 341.787
326.428, 342.419
326.910, 336.364
327.392, 334.073
327.874, 342.763
328.356, 356.087
328.838, 366.598
329.320, 372.990
329.802, 372.635
330.284, 357.230
330.767, 324.812
331.249, 301.446
331.731, 301.062
332.213, 309.931
332.695, 311.720
333.177, 304.406
333.659, 299.737
334.142, 311.655
334.624, 331.830
335.106, 334.839
335.588, 312.323
336.070, 283.430
336.552, 268.869
337.034, 267.310
337.516, 264.624
337.998, 255.301
338.480, 245.928
338.963, 244.471
339.445, 250.223
339.927, 253.512
340.409, 246.753
340.891, 231.777
341.373, 223.471
341.855, 227.659
342.337, 230.718
342.819, 226.355
343.302, 218.540
343.784, 214.481
344.266, 217.144
344.748, 222.837
345.230, 223.894
345.712, 214.600
346.194, 210.184
346.677, 212.871
347.159, 218.391
347.641, 227.368
348.123, 237.609
348.605, 241.179
349.087, 227.073
349.569, 193.064
350.051, 175.010
350.533, 188.706
351.016, 202.700
351.498, 205.155
351.980, 201.594
352.462, 188.456
352.944, 202.424
353.426, 209.811
353.908, 210.973
354.390, 187.262
354.872, 195.670
355.355, 191.205
355.837, 186.213
356.319, 199.141
356.801, 179.048
357.283, 191.691
357.765, 191.267
358.247, 196.823
358.729, 189.429
359.211, 186.035
359.694, 195.595
360.176, 197.983
360.658, 189.097
361.140, 195.034
361.622, 174.488
362.104, 177.181
362.586, 189.901
363.069, 177.214
363.551, 162.706
364.033, 152.119
364.515, 146.037
364.997, 147.265
365.479, 163.693
365.961, 177.042
366.443, 180.444
366.925, 177.923
367.408, 174.791
367.890, 172.887
368.372, 172.103
368.854, 172.503
369.336, 175.554
369.818, 176.227
370.300, 174.632
370.782, 171.013
371.264, 176.322
371.747, 179.465
372.229, 180.556
372.711, 173.454
373.193, 176.932
373.675, 176.170
374.157, 175.235
374.639, 180.202
375.121, 174.292
375.603, 179.165
376.086, 179.734
376.568, 182.273
377.050, 180.546
377.532, 180.137
378.014, 183.994
378.496, 185.489
378.978, 183.271
379.460, 185.935
379.943, 179.876
380.425, 181.472
380.907, 186.371
381.389, 184.367
381.871, 187.109
382.353, 188.044
382.835, 180.764
383.317, 187.770
383.799, 188.598
384.282, 183.082
384.764, 185.417
385.246, 159.788
385.728, 136.275
386.210, 127.272
386.692, 130.093
387.174, 143.491
387.656, 167.810
388.138, 191.865
388.621, 194.597
389.103, 156.722
389.585, 138.246
390.067, 159.862
390.549, 182.721
391.031, 177.514
391.513, 148.310
391.996, 120.760
392.478, 116.908
392.960, 133.486
393.442, 138.227
393.924, 116.168
394.406, 104.581
394.888, 121.306
395.370, 148.649
395.852, 166.370
396.335, 167.698
396.817, 162.327
397.299, 161.822
397.781, 166.225
398.263, 168.570
398.745, 167.959
399.227, 164.416
399.709, 157.152
400.191, 146.767
400.674, 136.999
401.156, 124.810
401.638, 116.438
402.120, 125.693
402.602, 151.803
403.084, 168.404
403.566, 156.607
404.048, 125.170
404.530, 107.626
405.013, 106.477
405.495, 113.066
405.977, 136.805
406.459, 162.311
406.941, 166.265
407.423, 144.131
407.905, 114.779
408.387, 101.667
408.870, 107.942
409.352, 115.973
409.834, 128.813
410.316, 140.198
410.798, 148.682
411.280, 153.735
411.762, 153.666
412.244, 146.558
412.727, 137.000
413.209, 137.589
413.691, 153.179
414.173, 163.694
414.655, 159.355
415.137, 151.351
415.619, 145.479
416.101, 142.658
416.583, 145.123
417.065, 160.895
417.548, 182.427
418.030, 188.831
418.512, 176.186
418.994, 160.493
419.476, 152.105
419.958, 149.960
420.440, 148.227
420.922, 148.135
421.405, 146.922
421.887, 142.039
422.369, 144.204
422.851, 144.659
423.333, 143.494
423.815, 135.861
424.297, 136.581
424.779, 133.953
425.262, 131.188
425.744, 133.084
426.226, 126.391
426.708, 128.212
427.190, 126.635
427.672, 126.614
428.154, 123.224
428.636, 120.874
429.118, 121.894
429.601, 121.048
430.083, 115.558
430.565, 109.386
431.047, 101.132
431.529, 94.421
432.011, 90.102
432.493, 92.277
432.975, 112.628
433.457, 142.029
433.940, 149.148
434.422, 126.402
434.904, 101.482
435.386, 95.847
435.868, 104.358
436.350, 106.162
436.832, 91.157
437.314, 78.668
437.797, 82.685
438.279, 95.302
438.761, 99.340
439.243, 88.936
439.725, 75.720
440.207, 77.000
440.689, 98.132
441.171, 117.427
441.654, 112.931
442.136, 117.250
442.618, 119.429
443.100, 119.584
443.582, 111.650
444.064, 114.160
444.546, 112.485
445.028, 110.638
445.510, 114.619
445.992, 107.861
446.475, 111.750
446.957, 110.610
447.439, 110.457
447.921, 121.891
448.403, 128.198
448.885, 112.729
449.367, 87.514
449.849, 73.942
450.332, 73.344
450.814, 85.904
451.296, 120.291
451.778, 165.458
452.260, 182.254
452.742, 149.370
453.224, 120.899
453.706, 116.393
454.189, 123.429
454.671, 126.788
455.153, 123.185
455.635, 118.391
456.117, 118.385
456.599, 123.295
457.081, 131.562
457.563, 156.270
458.045, 170.052
458.528, 151.534
459.010, 122.672
459.492, 119.351
459.974, 157.316
460.456, 200.078
460.938, 187.011
461.420, 117.001
461.902, 78.633
462.384, 100.030
462.867, 135.133
463.349, 147.304
463.831, 140.957
464.313, 132.342
464.795, 121.426
465.277, 113.701
465.759, 115.991
466.241, 126.165
466.724, 137.133
467.206, 146.815
467.688, 152.532
468.170, 148.335
468.652, 124.392
469.134, 111.151
469.616, 121.581
470.098, 131.493
470.581, 121.203
471.063, 96.298
471.545, 76.617
472.027, 75.609
472.509, 88.596
472.991, 101.386
473.473, 114.942
473.955, 126.003
474.437, 112.499
474.919, 109.215
475.402, 114.153
475.884, 117.095
476.366, 118.149
476.848, 111.659
477.330, 114.910
477.812, 114.257
478.294, 113.444
478.776, 118.067
479.259, 112.674
479.741, 117.210
480.223, 117.783
480.705, 120.169
481.187, 118.628
481.669, 118.300
482.151, 121.901
482.633, 123.326
483.116, 121.333
483.598, 123.835
484.080, 120.095
484.562, 125.331
485.044, 126.283
485.526, 114.346
486.008, 111.877
486.490, 137.240
486.972, 166.504
487.455, 170.896
487.937, 144.257
488.419, 117.395
488.901, 122.262
489.383, 148.440
489.865, 159.997
490.347, 151.799
490.829, 137.571
491.311, 122.646
491.794, 109.584
492.276, 107.741
492.758, 133.604
493.240, 150.071
493.722, 138.258
494.204, 112.644
494.686, 88.989
495.168, 72.054
495.651, 65.386
496.133, 74.910
496.615, 101.863
497.097, 117.942
497.579, 116.294
498.061, 111.668
498.543, 102.020
499.025, 94.054
499.508, 99.513
499.990, 122.506
500.472, 141.995
500.954, 129.443
501.436, 93.733
501.918, 78.169
502.400, 92.015
502.882, 111.242
503.364, 119.087
503.846, 117.098
504.329, 115.303
504.811, 115.719
505.293, 114.281
505.775, 106.650
506.257, 97.269
506.739, 92.248
507.221, 93.123
507.703, 98.267
508.186, 107.141
508.668, 120.488
509.150, 116.884
509.632, 121.016
510.114, 123.269
510.596, 123.746
511.078, 117.125
511.560, 119.670
512.042, 118.541
512.525, 117.261
513.007, 121.096
513.489, 115.507
513.971, 119.261
514.453, 119.285
514.935, 121.016
515.417, 119.051
515.899, 118.228
516.382, 121.102
516.864, 121.929
517.346, 119.538
517.828, 117.502
518.310, 126.953
518.792, 130.476
519.274, 126.996
519.756, 121.098
520.239, 116.355
520.721, 112.921
521.203, 118.130
521.685, 143.023
522.167, 159.138
522.649, 152.877
523.131, 138.005
523.613, 128.583
524.096, 127.490
524.578, 128.991
525.060, 129.853
525.542, 130.075
526.024, 128.994
526.506, 126.443
526.988, 125.491
527.470, 128.637
527.952, 134.756
528.435, 139.233
528.917, 146.752
529.399, 146.351
529.881, 129.232
530.363, 108.478
530.845, 93.624
531.327, 86.780
531.809, 88.718
532.291, 102.722
532.774, 124.037
533.256, 129.602
533.738, 112.809
534.220, 98.870
534.702, 92.873
535.184, 94.536
535.666, 107.724
536.148, 132.292
536.630, 150.842
537.113, 151.828
537.595, 145.190
538.077, 141.900
538.559, 141.946
539.041, 141.981
539.523, 140.571
540.005, 137.445
540.487, 131.610
540.969, 119.443
541.452, 111.991
541.934, 112.772
542.416, 114.547
542.898, 112.115
543.380, 107.584
543.862, 107.440
544.344, 116.455
544.826, 126.969
545.309, 122.306
545.791, 102.676
546.273, 98.304
546.755, 123.061
547.237, 150.837
547.719, 153.255
548.201, 134.111
548.683, 120.744
549.166, 121.476
549.648, 123.223
550.130, 117.264
550.612, 108.428
551.094, 106.722
551.576, 114.541
552.058, 122.705
552.540, 118.524
553.023, 100.658
553.505, 91.026
553.987, 88.630
554.469, 96.754
554.951, 131.044
555.433, 168.375
555.915, 177.622
556.397, 149.602
556.879, 117.589
557.362, 105.314
557.844, 104.694
558.326, 100.706
558.808, 91.899
559.290, 82.126
559.772, 72.442
560.254, 64.778
560.736, 66.357
561.218, 90.431
561.701, 105.994
562.183, 105.597
562.665, 101.988
563.147, 104.812
563.629, 113.031
564.111, 120.095
564.593, 122.835
565.075, 120.372
565.557, 105.907
566.040, 77.921
566.522, 66.550
567.004, 86.744
567.486, 115.396
567.968, 126.371
568.450, 121.510
568.932, 118.722
569.414, 125.493
569.896, 129.705
570.379, 118.366
570.861, 101.598
571.343, 99.702
571.825, 118.237
572.307, 141.385
572.789, 149.027
573.271, 140.416
573.753, 132.329
574.236, 126.405
574.718, 118.387
575.200, 100.695
575.682, 82.991
576.164, 78.333
576.646, 90.634
577.128, 103.521
577.610, 106.018
578.093, 104.419
578.575, 110.082
579.057, 122.341
579.539, 127.773
580.021, 116.993
580.503, 97.369
580.985, 90.961
581.467, 115.322
581.950, 120.836
582.432, 86.865
582.914, 54.887
583.396, 48.711
583.878, 63.066
584.360, 82.705
584.842, 104.603
585.324, 119.566
585.806, 110.282
586.289, 82.030
586.771, 62.287
587.253, 56.949
587.735, 59.930
588.217, 66.956
588.699, 77.865
589.181, 88.798
589.663, 109.193
590.145, 117.737
590.628, 92.514
591.110, 63.802
591.592, 68.375
592.074, 106.183
592.556, 141.851
593.038, 146.289
593.520, 126.476
594.002, 98.159
594.484, 57.219
594.967, 39.387
595.449, 70.100
595.931, 113.831
596.413, 117.681
596.895, 80.697
597.377, 57.960
597.859, 68.570
598.341, 84.848
598.823, 91.232
599.306, 91.509
599.788, 93.734
600.270, 100.761
600.752, 110.622
601.234, 124.129
601.716, 141.559
602.198, 140.652
602.680, 111.458
603.162, 84.170
603.645, 67.807
604.127, 63.504
604.609, 78.741
605.091, 120.805
605.573, 148.568
606.055, 132.079
606.537, 103.430
607.019, 94.591
607.502, 103.928
607.984, 116.601
608.466, 125.395
608.948, 129.176
609.430, 124.662
609.912, 109.075
610.394, 94.941
610.876, 77.443
611.359, 68.115
611.841, 74.750
612.323, 92.029
612.805, 111.867
613.287, 135.748
613.769, 131.225
614.251, 136.529
614.733, 139.447
615.216, 140.108
615.698, 131.751
616.180, 135.039
616.662, 133.660
617.144, 132.090
617.626, 137.017
618.108, 129.972
618.590, 134.796
619.072, 134.882
619.555, 137.136
620.037, 134.695
620.519, 133.704
621.001, 137.410
621.483, 138.516
621.965, 135.534
622.447, 133.003
622.929, 78.753
623.411, 58.121
623.894, 81.457
624.376, 109.732
624.858, 110.405
625.340, 87.857
625.822, 71.051
626.304, 53.364
626.786, 53.009
627.268, 89.458
627.750, 127.307
628.233, 142.410
628.715, 136.423
629.197, 123.913
629.679, 108.323
630.161, 93.684
630.643, 81.269
631.125, 73.398
631.607, 82.778
632.089, 113.245
632.572, 139.395
633.054, 134.053
633.536, 99.852
634.018, 83.255
634.500, 101.380
634.982, 113.576
635.464, 112.378
635.946, 105.439
636.429, 96.698
636.911, 87.642
637.393, 81.124
637.875, 78.308
638.357, 79.204
638.839, 87.258
639.321, 99.639
639.803, 104.624
640.286, 98.799
640.768, 87.899
641.250, 76.840
641.732, 65.694
642.214, 60.440
642.696, 60.722
643.178, 67.929
643.660, 94.802
644.143, 119.450
644.625, 118.078
645.107, 93.397
645.589, 73.911
646.071, 77.969
646.553, 93.716
647.035, 112.395
647.517, 130.835
647.999, 134.166
648.482, 117.252
648.964, 96.373
649.446, 88.601
649.928, 93.943
650.410, 100.574
650.892, 116.992
651.374, 122.500
651.856, 102.687
652.338, 79.310
652.821, 70.896
653.303, 77.766
653.785, 88.282
654.267, 99.666
654.749, 108.860
655.231, 111.009
655.713, 107.958
656.195, 105.007
656.677, 103.585
657.160, 103.751
657.642, 105.715
658.124, 109.415
658.606, 114.015
659.088, 128.517
659.570, 128.907
660.052, 92.386
660.534, 55.502
661.016, 52.466
661.499, 79.253
661.981, 99.325
662.463, 90.722
662.945, 74.992
663.427, 70.885
663.909, 74.482
664.391, 76.815
664.873, 75.841
665.356, 74.776
665.838, 76.207
666.320, 80.414
666.802, 90.739
667.284, 112.815
667.766, 128.490
668.248, 130.939
668.730, 128.292
669.213, 125.840
669.695, 123.278
670.177, 118.016
670.659, 104.148
671.141, 93.218
671.623, 97.129
672.105, 106.887
672.587, 104.448
673.070, 89.396
673.552, 82.913
674.034, 104.781
674.516, 143.669
674.998, 156.769
675.480, 137.828
675.962, 119.985
676.444, 107.673
676.926, 99.561
677.409, 92.943
677.891, 89.301
678.373, 95.036
678.855, 121.206
679.337, 142.556
679.819, 153.987
680.301, 153.359
680.783, 130.010
681.265, 90.602
681.748, 59.347
682.230, 51.812
682.712, 59.650
683.194, 70.369
683.676, 83.912
684.158, 88.116
684.640, 78.163
685.122, 68.110
685.604, 68.777
686.087, 76.876
686.569, 79.344
687.051, 73.734
687.533, 67.409
688.015, 57.858
688.497, 50.853
688.979, 51.724
689.461, 58.162
689.943, 63.754
690.426, 65.340
690.908, 69.038
691.390, 88.846
691.872, 116.426
692.354, 120.472
692.836, 97.999
693.318, 73.648
693.800, 60.159
694.283, 54.421
694.765, 49.913
695.247, 45.819
695.729, 45.159
696.211, 51.095
696.693, 56.772
697.175, 57.440
697.657, 57.357
698.140, 64.820
698.622, 82.008
699.104, 93.497
699.586, 86.394
700.068, 70.256
700.550, 52.465
701.032, 36.172
701.514, 31.555
701.997, 42.419
702.479, 61.140
702.961, 79.661
703.443, 98.013
703.925, 105.267
704.407, 95.990
704.889, 87.020
705.371, 82.781
705.853, 81.639
706.336, 82.798
706.818, 86.076
707.300, 88.410
707.782, 89.888
708.264, 89.377
708.746, 84.356
709.228, 77.868
709.710, 74.080
710.192, 73.587
710.675, 74.551
711.157, 76.000
711.639, 77.201
712.121, 76.291
712.603, 73.262
713.085, 68.532
713.567, 62.796
714.049, 68.356
714.531, 71.173
715.014, 71.397
715.496, 61.255
715.978, 64.497
716.460, 62.376
716.942, 60.035
717.424, 65.161
717.906, 56.527
718.388, 61.534
718.870, 61.097
719.353, 63.151
719.835, 59.809
720.317, 58.133
720.799, 61.856
721.281, 56.586
721.763, 40.872
722.245, 36.554
722.727, 46.218
723.210, 63.530
723.692, 76.138
724.174, 82.122
724.656, 94.457
725.138, 123.863
725.620, 142.221
726.102, 126.025
726.584, 98.812
727.067, 88.595
727.549, 98.585
728.031, 105.801
728.513, 102.594
728.995, 96.029
729.477, 88.754
729.959, 81.937
730.441, 75.461
730.924, 70.130
731.406, 70.808
731.888, 86.086
732.370, 107.110
732.852, 105.375
733.334, 81.611
733.816, 72.749
734.298, 91.170
734.780, 112.680
735.263, 114.741
735.745, 99.652
736.227, 88.732
736.709, 87.714
737.191, 82.540
737.673, 62.589
738.155, 47.313
738.637, 51.599
739.119, 70.098
739.602, 89.212
740.084, 106.218
740.566, 118.159
741.048, 124.983
741.530, 124.322
742.012, 104.806
742.494, 73.218
742.976, 58.076
743.458, 73.581
743.941, 100.425
744.423, 106.746
744.905, 92.170
745.387, 88.552
745.869, 100.782
746.351, 106.562
746.833, 91.737
747.315, 71.551
747.797, 70.923
748.280, 93.820
748.762, 100.532
749.244, 70.415
749.726, 47.804
750.208, 52.270
750.690, 67.624
751.172, 77.546
751.654, 80.586
752.137, 84.732
752.619, 99.053
753.101, 109.864
753.583, 95.777
754.065, 66.917
754.547, 46.116
755.029, 37.544
755.511, 41.329
755.994, 59.450
756.476, 84.185
756.958, 94.134
757.440, 85.483
757.922, 81.160
758.404, 83.794
758.886, 88.628
759.368, 96.759
759.851, 103.919
760.333, 99.791
760.815, 78.409
761.297, 70.375
761.779, 100.660
762.261, 123.791
762.743, 108.299
763.225, 74.690
763.707, 51.336
764.190, 44.664
764.672, 45.811
765.154, 50.627
765.636, 57.515
766.118, 64.011
766.600, 70.473
767.082, 79.787
767.564, 92.344
768.046, 101.051
768.529, 99.452
769.011, 89.614
769.493, 78.492
769.975, 63.490
770.457, 57.399
770.939, 66.519
771.421, 77.625
771.903, 84.704
772.385, 87.473
772.868, 83.196
773.350, 64.260
773.832, 59.698
774.314, 95.545
774.796, 126.174
775.278, 118.176
775.760, 89.416
776.242, 69.677
776.724, 66.355
777.207, 66.160
777.689, 54.320
778.171, 42.011
778.653, 53.799
779.135, 80.710
779.617, 87.900
780.099, 67.187
780.581, 41.953
781.064, 31.716
781.546, 36.013
782.028, 57.218
782.510, 102.904
782.992, 131.856
783.474, 135.782
783.956, 127.090
784.438, 107.184
784.920, 81.905
785.403, 68.062
785.885, 68.302
786.367, 73.203
786.849, 91.909
787.331, 104.291
787.813, 91.150
788.295, 68.807
788.778, 62.436
789.260, 76.875
789.742, 94.652
790.224, 111.513
790.706, 120.151
791.188, 104.798
791.670, 75.965
792.152, 58.475
792.634, 57.399
793.117, 62.294
793.599, 64.504
794.081, 67.033
794.563, 82.065
795.045, 111.131
795.527, 123.621
796.009, 111.954
796.491, 104.664
796.973, 111.270
797.456, 114.502
797.938, 114.543
798.420, 101.831
798.902, 105.586
799.384, 102.742
799.866, 99.628
800.348, 105.701
800.830, 94.844
801.312, 100.771
801.795, 99.998
802.277, 102.292
802.759, 97.946
803.241, 95.476
803.723, 77.511
804.205, 48.850
804.687, 53.985
805.169, 89.982
805.652, 112.953
806.134, 93.514
806.616, 61.065
807.098, 66.018
807.580, 97.578
808.062, 106.852
808.544, 89.845
809.026, 68.387
809.508, 51.648
809.991, 41.724
810.473, 43.966
810.955, 60.269
811.437, 63.862
811.919, 42.827
812.401, 35.269
812.883, 68.943
813.365, 104.090
813.847, 93.804
814.330, 46.961
814.812, 21.224
815.294, 34.138
815.776, 51.464
816.258, 69.691
816.740, 86.064
817.222, 100.945
817.705, 111.916
818.187, 113.248
818.669, 102.304
819.151, 89.419
819.633, 79.335
820.115, 73.628
820.597, 77.321
821.079, 86.878
821.561, 92.493
822.044, 91.556
822.526, 88.688
823.008, 87.267
823.490, 88.386
823.972, 98.878
824.454, 118.451
824.936, 125.189
825.418, 113.577
825.901, 97.962
826.383, 86.943
826.865, 80.636
827.347, 80.039
827.829, 88.104
828.311, 93.878
828.793, 90.175
829.275, 94.876
829.757, 97.537
830.240, 98.268
830.722, 91.286
831.204, 94.263
831.686, 93.249
832.168, 92.071
832.650, 96.450
833.132, 90.590
833.614, 94.881
834.096, 95.119
834.579, 97.213
835.061, 95.290
835.543, 94.608
836.025, 97.943
836.507, 99.053
836.989, 96.668
837.471, 98.879
837.953, 92.879
838.435, 94.084
838.918, 98.398
839.400, 94.835
839.882, 96.451
840.364, 68.746
840.846, 73.411
841.328, 109.083
841.810, 123.201
842.292, 100.918
842.774, 78.668
843.257, 87.009
843.739, 113.728
844.221, 116.095
844.703, 79.548
845.185, 63.194
845.667, 81.450
846.149, 98.323
846.631, 92.757
847.114, 80.520
847.596, 87.213
848.078, 115.138
848.560, 128.466
849.042, 110.560
849.524, 95.050
850.006, 91.230
850.488, 94.583
850.971, 108.649
851.453, 126.162
851.935, 124.830
852.417, 89.246
852.899, 58.915
853.381, 68.017
853.863, 87.029
854.345, 81.362
854.828, 60.159
855.310, 49.998
855.792, 58.177
856.274, 70.171
856.756, 74.763
857.238, 72.779
857.720, 58.398
858.202, 38.015
858.684, 45.366
859.167, 84.348
859.649, 111.492
860.131, 96.304
860.613, 58.572
861.095, 41.476
861.577, 46.731
862.059, 41.468
862.541, 19.135
863.023, 14.015
863.506, 47.271
863.988, 88.194
864.470, 97.186
864.952, 74.998
865.434, 68.325
865.916, 94.434
866.398, 106.899
866.880, 84.280
867.362, 62.655
867.845, 64.415
868.327, 80.915
868.809, 95.871
869.291, 110.689
869.773, 112.639
870.255, 84.471
870.737, 59.355
871.219, 54.475
871.701, 61.634
872.184, 74.464
872.666, 89.383
873.148, 96.849
873.630, 89.099
874.112, 78.302
874.594, 70.336
875.076, 66.576
875.558, 73.609
876.041, 86.169
876.523, 87.984
877.005, 72.937
877.487, 54.328
877.969, 42.121
878.451, 37.649
878.933, 48.268
879.415, 69.781
879.898, 85.613
880.380, 91.992
880.862, 91.502
881.344, 85.277
881.826, 76.334
882.308, 72.179
882.790, 72.758
883.272, 71.301
883.755, 67.297
884.237, 61.070
884.719, 50.703
885.201, 44.322
885.683, 53.881
886.165, 78.874
886.647, 98.255
887.129, 113.232
887.611, 119.209
888.094, 111.141
888.576, 99.971
889.058, 91.141
889.540, 84.877
890.022, 82.571
890.504, 86.950
890.986, 86.687
891.468, 78.666
891.950, 69.345
892.433, 56.177
892.915, 46.085
893.397, 45.351
893.879, 54.029
894.361, 70.033
894.843, 102.299
895.325, 125.243
895.807, 123.967
896.289, 114.208
896.772, 105.999
897.254, 99.454
897.736, 92.843
898.218, 85.662
898.700, 77.770
899.182, 67.389
899.664, 57.910
900.146, 50.423
900.628, 46.907
901.111, 54.088
901.593, 68.959
902.075, 78.924
902.557, 77.527
903.039, 74.686
903.521, 79.747
904.003, 82.890
904.485, 84.217
904.968, 78.295
905.450, 81.734
905.932, 81.422
906.414, 80.956
906.896, 85.714
907.378, 80.845
907.860, 85.520
908.342, 86.385
908.825, 88.994
909.307, 87.828
909.789, 87.827
910.271, 91.603
910.753, 93.288
911.235, 91.687
911.717, 94.407
912.199, 89.407
912.682, 91.181
913.164, 95.878
913.646, 94.466
914.128, 97.255
914.610, 98.444
915.092, 92.364
915.574, 98.926
916.056, 100.020
916.538, 95.501
917.021, 101.630
917.503, 97.885
917.985, 97.664
918.467, 100.095
918.949, 99.762
919.431, 103.788
919.913, 103.614
920.395, 103.065
920.877, 104.153
921.360, 100.601
921.842, 105.658
922.324, 104.835
922.806, 106.934
923.288, 106.769
923.770, 104.241
924.252, 100.713
924.734, 99.118
925.216, 97.727
925.699, 94.144
926.181, 92.186
926.663, 95.787
927.145, 103.072
927.627, 111.770
928.109, 121.627
928.591, 123.886
929.073, 106.349
929.555, 88.244
930.038, 85.105
930.520, 88.184
931.002, 86.331
931.484, 79.377
931.966, 72.545
932.448, 67.806
932.930, 65.474
933.412, 66.427
933.895, 69.445
934.377, 70.992
934.859, 74.061
935.341, 92.052
935.823, 122.157
936.305, 132.606
936.787, 95.559
937.269, 50.192
937.752, 53.136
938.234, 83.340
938.716, 100.144
939.198, 102.076
939.680, 94.641
940.162, 80.786
940.644, 71.276
941.126, 78.831
941.609, 93.907
942.091, 94.129
942.573, 82.746
943.055, 71.260
943.537, 61.900
944.019, 64.130
944.501, 83.056
944.983, 102.737
945.465, 98.382
945.948, 77.459
946.430, 82.269
946.912, 111.464
947.394, 122.593
947.876, 106.877
948.358, 88.894
948.840, 84.131
949.322, 86.690
949.804, 86.253
950.287, 82.828
950.769, 73.633
951.251, 56.257
951.733, 52.388
952.215, 70.733
952.697, 91.165
953.179, 97.709
953.661, 94.541
954.143, 93.396
954.626, 93.853
955.108, 100.230
955.590, 118.011
956.072, 123.481
956.554, 103.472
957.036, 78.484
957.518, 66.854
958.000, 68.104
958.482, 82.066
958.965, 123.302
959.447, 136.242
959.929, 102.242
960.411, 71.595
960.893, 65.153
961.375, 71.663
961.857, 80.266
962.339, 90.582
962.822, 93.949
963.304, 82.294
963.786, 78.951
964.268, 97.503
964.750, 108.774
965.232, 86.694
965.714, 56.174
966.196, 56.979
966.679, 92.263
967.161, 116.204
967.643, 124.493
968.125, 128.083
968.607, 132.866
969.089, 128.448
969.571, 97.522
970.053, 57.861
970.536, 42.047
971.018, 54.730
971.500, 67.531
971.982, 82.055
972.464, 90.826
972.946, 86.191
973.428, 80.712
973.910, 87.109
974.392, 98.319
974.875, 96.697
975.357, 76.636
975.839, 63.294
976.321, 61.507
976.803, 66.434
977.285, 84.315
977.767, 101.443
978.249, 104.776
978.731, 97.892
979.214, 93.261
979.696, 95.280
980.178, 90.092
980.660, 68.091
981.142, 45.552
981.624, 18.395
982.106, 2.948
982.588, 25.898
983.070, 74.847
983.553, 103.914
984.035, 94.490
984.517, 92.076
984.999, 121.324
985.481, 150.006
985.963, 168.763
986.445, 172.048
986.927, 140.818
987.409, 87.580
987.892, 64.337
988.374, 97.746
988.856, 129.912
989.338, 142.429
989.820, 142.700
990.302, 124.459
990.784, 103.720
991.266, 105.123
991.749, 124.482
992.231, 128.696
992.713, 99.480
993.195, 71.932
993.677, 53.888
994.159, 49.983
994.641, 74.931
995.123, 109.098
995.606, 129.280
996.088, 132.162
996.570, 120.293
997.052, 82.768
997.534, 56.084
998.016, 62.753
998.498, 80.770
998.980, 105.054
999.463, 124.038
999.945, 117.552
1000.427, 88.074
1000.909, 66.345
1001.391, 62.749
1001.873, 71.975
1002.355, 110.485
1002.837, 141.913
1003.319, 129.393
1003.802, 95.968
1004.284, 77.393
1004.766, 77.562
1005.248, 77.152
1005.730, 66.941
1006.212, 57.936
1006.694, 58.992
1007.176, 59.663
1007.658, 44.570
1008.141, 27.526
1008.623, 32.674
1009.105, 60.664
1009.587, 88.112
1010.069, 117.811
1010.551, 124.627
1011.033, 67.014
1011.515, 12.300
1011.997, 21.063
1012.480, 61.197
1012.962, 81.847
1013.444, 77.225
1013.926, 73.941
1014.408, 84.450
1014.890, 93.100
1015.372, 91.612
1015.854, 87.739
1016.337, 79.997
1016.819, 77.383
1017.301, 101.624
1017.783, 99.578
1018.265, 103.064
1018.747, 105.208
1019.229, 106.081
1019.711, 101.877
1020.193, 104.229
1020.676, 103.954
1021.158, 103.571
1021.640, 106.845
1022.122, 103.380
1022.604, 106.596
1023.086, 107.146
1023.568, 108.915
1024.050, 108.042
1024.533, 107.986
1025.015, 110.573
1025.497, 111.696
1025.979, 110.518
1026.461, 112.365
1026.943, 108.808
1027.425, 109.993
1027.907, 113.225
1028.390, 112.181
1028.872, 114.077
1029.354, 114.852
1029.836, 110.539
1030.318, 115.076
1030.800, 113.369
1031.282, 108.995
1031.764, 114.134
1032.246, 116.964
1032.729, 117.608
1033.211, 109.523
1033.693, 112.710
1034.175, 111.380
1034.657, 109.865
1035.139, 114.639
1035.621, 107.823
1036.103, 112.498
1036.585, 112.585
1037.068, 114.772
1037.550, 112.413
1038.032, 111.459
1038.514, 115.051
1038.996, 116.126
1039.478, 113.244
1039.960, 115.564
1040.442, 108.590
1040.925, 109.772
1041.407, 114.472
1041.889, 111.819
1042.371, 114.223
1042.853, 114.700
1043.335, 106.426
1043.817, 113.372
1044.299, 113.736
1044.781, 107.341
1045.264, 113.765
1045.746, 108.302
1046.228, 109.038
1046.710, 79.019
1047.192, 54.364
1047.674, 66.775
1048.156, 99.433
1048.638, 112.904
1049.120, 104.166
1049.603, 102.758
1050.085, 111.644
1050.567, 116.674
1051.049, 114.023
1051.531, 109.850
1052.013, 107.151
1052.495, 107.522
1052.977, 115.813
1053.460, 131.467
1053.942, 132.061
1054.424, 116.085
1054.906, 96.871
1055.388, 74.913
1055.870, 64.978
1056.352, 76.681
1056.834, 96.594
1057.317, 106.108
1057.799, 107.042
1058.281, 108.634
1058.763, 110.754
1059.245, 110.898
1059.727, 108.770
1060.209, 104.857
1060.691, 99.338
1061.173, 92.301
1061.656, 83.207
1062.138, 73.665
1062.620, 65.721
1063.102, 60.990
1063.584, 69.405
1064.066, 89.118
1064.548, 106.980
1065.030, 118.232
1065.512, 121.130
1065.995, 113.193
1066.477, 99.270
1066.959, 81.618
1067.441, 66.006
1067.923, 69.674
1068.405, 85.852
1068.887, 92.338
1069.369, 85.186
1069.852, 76.398
1070.334, 73.058
1070.816, 72.112
1071.298, 72.504
1071.780, 71.785
1072.262, 63.196
1072.744, 53.014
1073.226, 51.332
1073.708, 59.520
1074.191, 78.169
1074.673, 110.454
1075.155, 131.008
1075.637, 113.846
1076.119, 88.840
1076.601, 70.468
1077.083, 62.849
1077.565, 77.884
1078.047, 105.378
1078.530, 120.978
1079.012, 118.772
1079.494, 104.788
1079.976, 57.246
1080.458, 30.510
1080.940, 69.875
1081.422, 115.266
1081.904, 116.343
1082.386, 93.866
1082.869, 89.546
1083.351, 107.627
1083.833, 114.470
1084.315, 87.014
1084.797, 76.460
1085.279, 113.655
1085.761, 140.050
1086.243, 112.684
1086.726, 73.908
1087.208, 74.417
1087.690, 108.047
1088.172, 130.469
1088.654, 141.212
1089.136, 140.979
1089.618, 124.629
1090.100, 108.267
1090.583, 93.249
1091.065, 88.482
1091.547, 105.475
1092.029, 133.768
1092.511, 144.419
1092.993, 136.109
1093.475, 125.603
1093.957, 112.078
1094.439, 105.950
1094.922, 110.562
1095.404, 109.854
1095.886, 92.601
1096.368, 73.223
1096.850, 76.508
1097.332, 95.183
1097.814, 92.838
1098.296, 75.886
1098.778, 88.332
1099.261, 129.958
1099.743, 156.165
1100.225, 149.251
1100.707, 129.621
1101.189, 112.001
1101.671, 101.418
1102.153, 112.001
1102.635, 131.930
1103.118, 141.425
1103.600, 139.902
1104.082, 128.653
1104.564, 109.779
1105.046, 91.808
1105.528, 80.067
1106.010, 68.220
1106.492, 40.235
1106.974, 20.933
1107.457, 43.879
1107.939, 82.890
1108.421, 104.390
1108.903, 107.519
1109.385, 105.508
1109.867, 101.655
1110.349, 94.563
1110.831, 77.153
1111.313, 65.200
1111.796, 66.793
1112.278, 74.276
1112.760, 88.317
1113.242, 101.308
1113.724, 96.566
1114.206, 71.808
1114.688, 60.847
1115.170, 68.813
1115.653, 83.371
1116.135, 113.440
1116.617, 133.113
1117.099, 127.906
1117.581, 113.568
1118.063, 104.897
1118.545, 101.558
1119.027, 103.614
1119.510, 112.993
1119.992, 112.470
1120.474, 99.606
1120.956, 98.646
1121.438, 118.344
1121.920, 121.267
1122.402, 78.776
1122.884, 27.291
1123.366, 32.030
1123.849, 76.080
1124.331, 92.769
1124.813, 87.866
1125.295, 84.576
1125.777, 86.027
1126.259, 89.454
1126.741, 93.607
1127.223, 97.104
1127.705, 98.047
1128.188, 99.130
1128.670, 108.924
1129.152, 116.866
1129.634, 99.163
1130.116, 72.183
1130.598, 72.918
1131.080, 101.040
1131.562, 120.593
1132.045, 115.729
1132.527, 106.442
1133.009, 102.772
1133.491, 97.243
1133.973, 78.584
1134.455, 62.315
1134.937, 64.350
1135.419, 79.928
1135.901, 98.910
1136.384, 121.783
1136.866, 133.495
1137.348, 120.053
1137.830, 116.810
1138.312, 137.280
1138.794, 151.137
1139.276, 140.349
1139.758, 124.538
1140.240, 127.726
1140.723, 143.160
1141.205, 139.260
1141.687, 113.077
1142.169, 93.211
1142.651, 79.931
1143.133, 80.916
1143.615, 98.926
1144.097, 110.491
1144.580, 99.675
1145.062, 81.433
1145.544, 78.732
1146.026, 85.429
1146.508, 83.664
1146.990, 77.493
1147.472, 78.538
1147.954, 86.674
1148.437, 95.840
1148.919, 104.144
1149.401, 114.612
1149.883, 132.326
1150.365, 145.780
1150.847, 143.255
1151.329, 133.928
1151.811, 123.652
1152.293, 113.967
1152.776, 107.199
1153.258, 102.231
1153.740, 94.900
1154.222, 84.191
1154.704, 71.638
1155.186, 40.576
1155.668, 31.909
1156.150, 86.647
1156.632, 132.678
1157.115, 116.266
1157.597, 77.409
1158.079, 70.759
1158.561, 93.028
1159.043, 115.122
1159.525, 143.055
1160.007, 135.975
1160.489, 83.140
1160.972, 51.349
1161.454, 61.899
1161.936, 87.945
1162.418, 112.578
1162.900, 126.396
1163.382, 100.746
1163.864, 54.857
1164.346, 64.614
1164.828, 110.285
1165.311, 125.493
1165.793, 111.025
1166.275, 110.123
1166.757, 135.465
1167.239, 153.289
1167.721, 135.452
1168.203, 112.643
1168.685, 112.513
1169.167, 117.276
1169.650, 108.044
1170.132, 95.212
1170.614, 96.792
1171.096, 108.746
1171.578, 109.923
1172.060, 92.601
1172.542, 84.140
1173.024, 98.833
1173.507, 108.398
1173.989, 107.401
1174.471, 99.744
1174.953, 80.883
1175.435, 64.816
1175.917, 71.971
1176.399, 95.543
1176.881, 99.352
1177.364, 80.700
1177.846, 75.604
1178.328, 85.333
1178.810, 101.805
1179.292, 122.856
1179.774, 117.242
1180.256, 122.818
1180.738, 125.677
1181.220, 125.966
1181.703, 115.985
1182.185, 119.265
1182.667, 117.231
1183.149, 114.979
1183.631, 120.126
1184.113, 111.639
1184.595, 116.668
1185.077, 115.314
1185.559, 98.685
1186.042, 92.807
1186.524, 109.483
1187.006, 120.296
1187.488, 100.878
1187.970, 78.438
1188.452, 77.780
1188.934, 91.292
1189.416, 101.236
1189.899, 107.385
1190.381, 115.439
1190.863, 129.045
1191.345, 131.234
1191.827, 116.287
1192.309, 111.856
1192.791, 130.520
1193.273, 139.250
1193.755, 108.892
1194.238, 65.619
1194.720, 58.244
1195.202, 77.315
1195.684, 94.502
1196.166, 109.267
1196.648, 121.606
1197.130, 129.967
1197.612, 128.314
1198.094, 115.666
1198.577, 99.470
1199.059, 77.628
1199.541, 69.733
1200.023, 110.863
1200.505, 145.909
1200.987, 121.821
1201.469, 81.451
1201.951, 74.292
1202.434, 89.687
1202.916, 88.462
1203.398, 63.088
1203.880, 62.609
1204.362, 106.313
1204.844, 128.235
1205.326, 116.130
1205.808, 100.173
1206.291, 87.800
1206.773, 91.313
1207.255, 126.319
1207.737, 168.194
1208.219, 159.641
1208.701, 114.373
1209.183, 85.482
1209.665, 73.055
1210.147, 84.427
1210.630, 112.484
1211.112, 130.452
1211.594, 129.783
1212.076, 119.446
1212.558, 98.949
1213.040, 85.489
1213.522, 91.955
1214.004, 108.533
1214.486, 147.461
1214.969, 176.596
1215.451, 147.067
1215.933, 85.401
1216.415, 63.325
1216.897, 88.871
1217.379, 101.394
1217.861, 90.956
1218.343, 97.009
1218.826, 130.637
1219.308, 149.064
1219.790, 136.088
1220.272, 115.417
1220.754, 105.510
1221.236, 98.179
1221.718, 71.115
1222.200, 39.153
1222.682, 62.412
1223.165, 111.363
1223.647, 92.544
1224.129, 28.944
1224.611, 26.427
1225.093, 100.563
1225.575, 154.000
1226.057, 128.291
1226.539, 108.813
1227.021, 161.419
1227.504, 202.129
1227.986, 179.189
1228.468, 134.620
1228.950, 88.870
1229.432, 54.333
1229.914, 53.194
1230.396, 81.508
1230.878, 94.604
1231.361, 88.117
1231.843, 92.753
1232.325, 110.803
1232.807, 126.776
1233.289, 136.943
1233.771, 141.044
1234.253, 138.790
1234.735, 133.847
1235.218, 130.373
1235.700, 126.838
1236.182, 120.761
1236.664, 113.245
1237.146, 106.694
1237.628, 99.551
1238.110, 83.414
1238.592, 63.389
1239.074, 63.635
1239.557, 96.091
1240.039, 117.151
1240.521, 108.449
1241.003, 101.445
1241.485, 101.221
1241.967, 104.458
1242.449, 111.664
1242.931, 117.552
1243.413, 115.566
1243.896, 110.965
1244.378, 121.403
1244.860, 142.927
1245.342, 142.195
1245.824, 122.449
1246.306, 90.636
1246.788, 55.018
1247.270, 47.193
1247.753, 73.768
1248.235, 98.856
1248.717, 99.025
1249.199, 96.484
1249.681, 115.550
1250.163, 125.396
1250.645, 93.519
1251.127, 55.430
1251.609, 44.210
1252.092, 50.106
1252.574, 51.504
1253.056, 48.951
1253.538, 52.159
1254.020, 62.790
1254.502, 69.689
1254.984, 71.456
1255.466, 82.617
1255.948, 106.386
1256.431, 132.326
1256.913, 155.039
1257.395, 161.835
1257.877, 129.663
1258.359, 92.270
1258.841, 103.279
##END=



