##NAMES=Xonotlite
##RRUFFID=R120029
##IDEAL CHEMISTRY=Ca_6_Si_6_O_17_(OH)_2_
##LOCALITY=Kalahari manganese field, Northern Cape Province, South Africa
##OWNER=RRUFF
##SOURCE=Donald Doell
##DESCRIPTION=Colorless lathlike crystals
##STATUS=The identification of this mineral has been confirmed by single-crystal X-ray diffraction.
##URL=rruff.info/R120029
147.5291, 86.57504
148.0112, 86.75416
148.4933, 87.71655
148.9754, 88.50874
149.4575, 89.01577
149.9396, 89.55399
150.4218, 89.92516
150.9039, 90.44356
151.3860, 91.61283
151.8681, 93.86584
152.3502, 97.02227
152.8323, 99.37796
153.3145, 99.12139
153.7966, 99.83174
154.2787, 102.6666
154.7608, 107.0555
155.2429, 111.7643
155.7250, 115.8102
156.2072, 119.0795
156.6893, 123.3102
157.1714, 128.8181
157.6535, 134.7886
158.1356, 141.0650
158.6177, 147.5552
159.0999, 154.1530
159.5820, 160.7684
160.0641, 167.4359
160.5462, 174.0087
161.0283, 180.3534
161.5104, 186.6643
161.9926, 193.4124
162.4747, 200.6216
162.9568, 207.3489
163.4389, 213.1716
163.9210, 218.0178
164.4031, 219.0326
164.8853, 214.8345
165.3674, 206.7473
165.8495, 196.2759
166.3316, 183.0401
166.8137, 168.8647
167.2958, 154.6284
167.7780, 140.5486
168.2601, 128.1501
168.7422, 118.5506
169.2243, 111.3214
169.7064, 104.9472
170.1885, 99.33878
170.6707, 94.64774
171.1528, 90.98650
171.6349, 88.22510
172.1170, 85.80579
172.5991, 83.15530
173.0812, 80.22649
173.5634, 78.07723
174.0455, 77.27158
174.5276, 76.92125
175.0097, 76.68748
175.4918, 76.56648
175.9739, 76.74728
176.4561, 77.53997
176.9382, 79.23772
177.4203, 80.56785
177.9024, 81.66112
178.3845, 82.34132
178.8666, 82.31502
179.3488, 81.64662
179.8309, 80.75174
180.3130, 80.16683
180.7951, 79.85941
181.2772, 80.03821
181.7593, 80.72457
182.2415, 81.80199
182.7236, 83.36805
183.2057, 85.38685
183.6878, 87.44844
184.1699, 88.85946
184.6520, 88.75711
185.1342, 89.82696
185.6163, 93.06909
186.0984, 97.09984
186.5805, 100.5341
187.0626, 102.9690
187.5447, 104.6949
188.0269, 106.0879
188.5090, 107.1509
188.9911, 108.0027
189.4732, 108.2467
189.9553, 108.3559
190.4374, 109.1468
190.9196, 110.8970
191.4017, 113.3553
191.8838, 116.3964
192.3659, 120.0769
192.8480, 123.4285
193.3301, 125.6829
193.8123, 127.1640
194.2944, 129.1629
194.7765, 132.3584
195.2586, 135.7304
195.7407, 137.9487
196.2228, 138.9808
196.7050, 140.4127
197.1871, 143.4243
197.6692, 147.9698
198.1513, 153.0593
198.6334, 158.9669
199.1155, 165.0063
199.5977, 170.5423
200.0798, 175.5960
200.5619, 180.8569
201.0440, 187.3031
201.5261, 195.2689
202.0082, 202.4330
202.4904, 209.0041
202.9725, 214.3140
203.4546, 218.0648
203.9367, 220.1736
204.4188, 220.6090
204.9009, 219.1973
205.3831, 215.6353
205.8652, 211.0428
206.3473, 205.5997
206.8294, 199.1886
207.3115, 191.3805
207.7936, 182.2960
208.2758, 172.6821
208.7579, 163.6159
209.2400, 155.2813
209.7221, 147.1866
210.2042, 139.1377
210.6863, 131.4375
211.1685, 124.2718
211.6506, 117.6715
212.1327, 111.5010
212.6148, 105.4468
213.0969, 98.99397
213.5790, 94.11114
214.0612, 91.56345
214.5433, 89.98438
215.0254, 88.42754
215.5075, 86.64465
215.9896, 84.67954
216.4717, 82.52998
216.9539, 79.76505
217.4360, 77.99797
217.9181, 77.99952
218.4002, 78.63554
218.8823, 78.71432
219.3644, 77.94449
219.8466, 77.01560
220.3287, 76.86207
220.8108, 77.56497
221.2929, 78.55147
221.7750, 79.74924
222.2571, 81.19341
222.7393, 82.94605
223.2214, 85.02579
223.7035, 87.35617
224.1856, 89.82758
224.6677, 92.41206
225.1498, 95.32951
225.6320, 98.65144
226.1141, 102.3378
226.5962, 106.3442
227.0783, 110.6952
227.5604, 115.2990
228.0425, 120.0685
228.5247, 124.9787
229.0068, 130.2584
229.4889, 136.0395
229.9710, 142.2036
230.4531, 148.5595
230.9352, 155.0921
231.4174, 161.7621
231.8995, 168.9149
232.3816, 176.2357
232.8637, 182.7507
233.3458, 188.5491
233.8279, 193.2439
234.3101, 195.6593
234.7922, 195.6379
235.2743, 193.2153
235.7564, 188.2845
236.2385, 181.3892
236.7206, 173.4405
237.2028, 164.3946
237.6849, 154.7039
238.1670, 146.1844
238.6491, 139.3012
239.1312, 133.0277
239.6133, 126.8569
240.0955, 120.8803
240.5776, 115.1850
241.0597, 109.8889
241.5418, 104.6207
242.0239, 100.0163
242.5060, 94.92729
242.9882, 90.28185
243.4703, 86.00171
243.9524, 82.26167
244.4345, 79.35406
244.9166, 77.53000
245.3987, 76.57035
245.8809, 75.46389
246.3630, 73.80192
246.8451, 72.55280
247.3272, 72.01120
247.8093, 71.93816
248.2914, 71.97563
248.7736, 71.90618
249.2557, 71.89666
249.7378, 72.64059
250.2199, 74.89828
250.7020, 77.02720
251.1841, 78.77622
251.6663, 80.28728
252.1484, 81.75441
252.6305, 83.28323
253.1126, 84.77239
253.5947, 85.94022
254.0768, 86.83211
254.5590, 87.25826
255.0411, 86.81287
255.5232, 86.05789
256.0053, 85.59178
256.4874, 85.66932
256.9695, 86.13818
257.4517, 86.62865
257.9338, 86.84163
258.4159, 87.47614
258.8980, 88.89960
259.3801, 90.59042
259.8622, 92.11095
260.3444, 93.29845
260.8265, 94.08655
261.3086, 94.30148
261.7907, 92.91294
262.2728, 92.64725
262.7549, 94.65806
263.2371, 97.26193
263.7192, 98.90149
264.2013, 99.14996
264.6834, 98.35440
265.1655, 96.95723
265.6476, 94.71229
266.1298, 92.37394
266.6119, 89.98465
267.0940, 87.48179
267.5761, 84.62080
268.0582, 81.37732
268.5403, 78.39181
269.0225, 76.58549
269.5046, 76.42033
269.9867, 75.20051
270.4688, 71.39381
270.9509, 67.43104
271.4330, 65.69208
271.9152, 66.37991
272.3973, 67.57225
272.8794, 67.38852
273.3615, 65.70399
273.8436, 64.77357
274.3257, 65.06712
274.8079, 65.81470
275.2900, 66.65372
275.7721, 67.50808
276.2542, 67.92873
276.7363, 67.42056
277.2184, 66.09054
277.7006, 65.16764
278.1827, 65.15993
278.6648, 65.16331
279.1469, 64.68526
279.6290, 63.70821
280.1111, 62.10672
280.5933, 59.46974
281.0754, 56.24575
281.5575, 53.96614
282.0396, 53.46993
282.5217, 52.89604
283.0038, 50.84144
283.4860, 47.58776
283.9681, 44.58816
284.4502, 42.50193
284.9323, 41.09248
285.4144, 39.76668
285.8965, 38.53825
286.3787, 37.35391
286.8608, 36.09600
287.3429, 34.83947
287.8250, 33.82292
288.3071, 33.09459
288.7892, 32.70765
289.2714, 32.82928
289.7535, 33.54065
290.2356, 34.05498
290.7177, 33.74141
291.1998, 32.94314
291.6819, 32.61659
292.1641, 33.09771
292.6462, 33.85408
293.1283, 34.44792
293.6104, 34.88297
294.0925, 34.90508
294.5746, 34.11536
295.0568, 32.89248
295.5389, 31.94119
296.0210, 31.31502
296.5031, 31.04745
296.9852, 31.42213
297.4673, 32.21705
297.9495, 32.83656
298.4316, 32.76263
298.9137, 32.52650
299.3958, 33.07710
299.8779, 34.61406
300.3600, 36.05682
300.8422, 36.35149
301.3243, 36.10759
301.8064, 36.37270
302.2885, 37.53117
302.7706, 39.14426
303.2527, 40.80526
303.7349, 42.53081
304.2170, 44.16594
304.6991, 45.68226
305.1812, 47.02943
305.6633, 48.11236
306.1454, 48.84091
306.6276, 49.48760
307.1097, 50.48000
307.5918, 51.76795
308.0739, 52.47065
308.5560, 52.18171
309.0381, 51.21384
309.5203, 49.78431
310.0024, 47.81084
310.4845, 46.23686
310.9666, 45.97228
311.4487, 46.75026
311.9308, 47.21709
312.4130, 46.89735
312.8951, 46.51999
313.3772, 46.85634
313.8593, 47.79608
314.3414, 48.61738
314.8235, 48.64510
315.3057, 48.30151
315.7878, 48.81384
316.2699, 50.60265
316.7520, 52.47149
317.2341, 53.30095
317.7162, 53.52974
318.1984, 54.12423
318.6805, 55.44941
319.1626, 57.32582
319.6447, 59.60594
320.1268, 62.38701
320.6089, 65.06873
321.0911, 66.77890
321.5732, 68.35482
322.0553, 71.09995
322.5374, 75.75185
323.0195, 80.88023
323.5016, 84.90987
323.9838, 87.85579
324.4659, 90.87947
324.9480, 94.39837
325.4301, 98.23819
325.9122, 102.0664
326.3943, 105.8469
326.8765, 109.8960
327.3586, 114.6440
327.8407, 119.9605
328.3228, 124.9789
328.8049, 129.3615
329.2870, 133.5758
329.7692, 138.1091
330.2513, 142.9209
330.7334, 147.7071
331.2155, 152.6792
331.6976, 157.4725
332.1797, 161.2596
332.6619, 163.9453
333.1440, 165.6377
333.6261, 166.3001
334.1082, 166.0625
334.5903, 164.9514
335.0724, 162.8207
335.5546, 159.9018
336.0367, 156.4401
336.5188, 152.4443
337.0009, 147.9818
337.4830, 143.0224
337.9651, 137.5933
338.4473, 131.7175
338.9294, 124.9557
339.4115, 118.4485
339.8936, 113.3667
340.3757, 109.5148
340.8578, 105.5635
341.3400, 100.8636
341.8221, 95.96967
342.3042, 91.63686
342.7863, 87.84100
343.2684, 84.52673
343.7505, 81.94398
344.2327, 79.81059
344.7148, 77.36290
345.1969, 74.30779
345.6790, 71.26931
346.1611, 69.17941
346.6432, 67.87377
347.1254, 66.30643
347.6075, 64.15408
348.0896, 61.62347
348.5717, 58.84138
349.0538, 55.78823
349.5359, 52.97107
350.0181, 50.78270
350.5002, 49.16564
350.9823, 47.69410
351.4644, 46.73496
351.9465, 45.59130
352.4286, 43.50776
352.9108, 40.71566
353.3929, 38.25209
353.8750, 36.58037
354.3571, 35.62090
354.8392, 35.16753
355.3214, 35.34327
355.8035, 35.64501
356.2856, 36.17034
356.7677, 36.65227
357.2498, 36.44131
357.7319, 35.25214
358.2141, 33.89650
358.6962, 33.58767
359.1783, 34.53042
359.6604, 35.19225
360.1425, 35.15724
360.6246, 34.92033
361.1068, 34.97049
361.5889, 35.34126
362.0710, 35.71321
362.5531, 35.80389
363.0352, 35.61724
363.5173, 35.55900
363.9995, 35.24949
364.4816, 35.42005
364.9637, 36.71002
365.4458, 38.77893
365.9279, 40.79023
366.4100, 42.32565
366.8922, 43.46922
367.3743, 44.44041
367.8564, 44.75928
368.3385, 45.58994
368.8206, 47.25505
369.3027, 49.43641
369.7849, 51.97353
370.2670, 54.76855
370.7491, 57.40107
371.2312, 59.34132
371.7133, 60.64861
372.1954, 60.78746
372.6776, 59.29019
373.1597, 57.12799
373.6418, 54.33868
374.1239, 51.29983
374.6060, 49.05570
375.0881, 48.58106
375.5703, 49.79457
376.0524, 49.74354
376.5345, 46.67703
377.0166, 44.37477
377.4987, 44.32483
377.9808, 45.39929
378.4630, 45.79845
378.9451, 44.68712
379.4272, 42.85624
379.9093, 42.23943
380.3914, 43.92141
380.8735, 45.03802
381.3557, 45.02623
381.8378, 44.79658
382.3199, 44.82261
382.8020, 45.28050
383.2841, 46.33900
383.7662, 48.33902
384.2484, 51.50573
384.7305, 54.08262
385.2126, 55.49114
385.6947, 56.85094
386.1768, 58.49860
386.6589, 60.36591
387.1411, 62.22230
387.6232, 63.89146
388.1053, 65.52421
388.5874, 67.70857
389.0695, 70.85347
389.5516, 73.77433
390.0338, 76.05776
390.5159, 78.12053
390.9980, 80.48723
391.4801, 83.29562
391.9622, 85.85932
392.4443, 87.35302
392.9265, 87.72452
393.4086, 87.54992
393.8907, 87.11194
394.3728, 85.83825
394.8549, 83.24009
395.3370, 79.50028
395.8192, 75.33504
396.3013, 71.08109
396.7834, 66.74488
397.2655, 62.22567
397.7476, 57.19884
398.2297, 52.86387
398.7119, 50.09093
399.1940, 48.30070
399.6761, 46.99482
400.1582, 46.31602
400.6403, 45.48689
401.1224, 43.48629
401.6046, 40.38200
402.0867, 37.57936
402.5688, 35.42986
403.0509, 33.86584
403.5330, 32.78841
404.0151, 32.19665
404.4973, 31.79581
404.9794, 31.63460
405.4615, 31.53132
405.9436, 31.11213
406.4257, 30.30267
406.9078, 29.44503
407.3900, 28.69799
407.8721, 28.13543
408.3542, 28.02600
408.8363, 28.93943
409.3184, 29.81897
409.8005, 29.86353
410.2827, 29.27330
410.7648, 28.69100
411.2469, 28.33191
411.7290, 28.27239
412.2111, 28.79056
412.6932, 30.13918
413.1754, 31.33085
413.6575, 32.02835
414.1396, 32.57690
414.6217, 33.34292
415.1038, 34.38425
415.5859, 35.55409
416.0681, 36.74336
416.5502, 37.97289
417.0323, 38.92915
417.5144, 39.64157
417.9965, 40.10355
418.4786, 40.05511
418.9608, 39.78153
419.4429, 39.76538
419.9250, 40.24913
420.4071, 41.20031
420.8892, 42.61975
421.3713, 45.89881
421.8535, 47.41654
422.3356, 46.12567
422.8177, 43.84394
423.2998, 41.67614
423.7819, 39.92463
424.2640, 38.63426
424.7462, 37.97521
425.2283, 38.02164
425.7104, 37.54857
426.1925, 36.06452
426.6746, 34.56116
427.1567, 33.45481
427.6389, 32.48378
428.1210, 31.08949
428.6031, 28.89142
429.0852, 26.59383
429.5673, 25.78544
430.0494, 26.90730
430.5316, 27.91068
431.0137, 28.29138
431.4958, 28.41227
431.9779, 28.42127
432.4600, 28.35180
432.9421, 28.27484
433.4243, 28.25987
433.9064, 28.28557
434.3885, 28.18291
434.8706, 27.76223
435.3527, 27.64144
435.8348, 28.42689
436.3170, 29.74276
436.7991, 31.01552
437.2812, 32.10982
437.7633, 33.10701
438.2454, 33.95230
438.7275, 34.70567
439.2097, 35.76160
439.6918, 37.25175
440.1739, 39.10329
440.6560, 41.35772
441.1381, 44.08246
441.6202, 46.48450
442.1024, 47.74109
442.5845, 48.88582
443.0666, 51.47739
443.5487, 55.53233
444.0308, 59.19606
444.5129, 61.00755
444.9951, 61.13957
445.4772, 61.48295
445.9593, 62.52183
446.4414, 63.18102
446.9235, 63.00921
447.4056, 62.28885
447.8878, 61.42176
448.3699, 60.54795
448.8520, 59.59769
449.3341, 58.39962
449.8162, 56.63589
450.2983, 55.58844
450.7805, 55.57269
451.2626, 55.86493
451.7447, 56.15495
452.2268, 56.43230
452.7089, 56.83515
453.1910, 57.48907
453.6732, 58.26823
454.1553, 58.63258
454.6374, 58.45974
455.1195, 58.04331
455.6016, 57.60760
456.0837, 56.88335
456.5659, 55.48100
457.0480, 53.38876
457.5301, 51.23149
458.0122, 49.68184
458.4943, 48.72213
458.9764, 47.70240
459.4586, 46.41430
459.9407, 45.36741
460.4228, 44.97528
460.9049, 44.95245
461.3870, 44.78221
461.8691, 44.22920
462.3513, 43.54911
462.8334, 43.08396
463.3155, 42.82256
463.7976, 42.45409
464.2797, 41.80790
464.7618, 41.10426
465.2440, 40.84591
465.7261, 41.07261
466.2082, 40.54689
466.6903, 38.10939
467.1724, 35.09345
467.6545, 33.25395
468.1367, 32.67312
468.6188, 32.12404
469.1009, 30.73994
469.5830, 28.74729
470.0651, 27.25836
470.5472, 26.07816
471.0294, 25.56594
471.5115, 26.28040
471.9936, 27.51851
472.4757, 28.43599
472.9578, 28.80628
473.4399, 28.84486
473.9221, 28.74351
474.4042, 28.39108
474.8863, 28.56835
475.3684, 29.60407
475.8505, 30.75394
476.3326, 31.80001
476.8148, 32.75914
477.2969, 33.63292
477.7790, 34.40464
478.2611, 35.26873
478.7432, 36.66727
479.2253, 38.76189
479.7075, 40.92145
480.1896, 43.40704
480.6717, 45.65753
481.1538, 47.17681
481.6359, 48.10651
482.1180, 49.15239
482.6002, 51.28477
483.0823, 53.72369
483.5644, 54.10402
484.0465, 52.02626
484.5286, 49.32605
485.0107, 46.76345
485.4929, 43.99913
485.9750, 40.21465
486.4571, 34.94935
486.9392, 30.77255
487.4213, 30.14833
487.9034, 31.60830
488.3856, 31.88494
488.8677, 30.39746
489.3498, 28.23096
489.8319, 26.02903
490.3140, 23.89229
490.7961, 22.57815
491.2783, 22.75353
491.7604, 23.02505
492.2425, 22.88331
492.7246, 22.36777
493.2067, 21.38669
493.6888, 19.90974
494.1710, 18.52578
494.6531, 18.22761
495.1352, 19.51594
495.6173, 20.33163
496.0994, 20.64169
496.5815, 20.58857
497.0637, 19.93515
497.5458, 18.99287
498.0279, 18.31936
498.5100, 18.21756
498.9921, 18.63350
499.4742, 19.52894
499.9564, 21.20305
500.4385, 22.59065
500.9206, 23.74710
501.4027, 24.42058
501.8848, 24.03118
502.3669, 22.82725
502.8491, 22.02379
503.3312, 22.91648
503.8133, 24.70790
504.2954, 25.02003
504.7775, 23.50483
505.2596, 22.17085
505.7418, 22.24049
506.2239, 22.86246
506.7060, 22.76113
507.1881, 21.70892
507.6702, 20.63120
508.1523, 20.16703
508.6345, 19.92019
509.1166, 19.11865
509.5987, 17.64308
510.0808, 16.17024
510.5629, 15.22060
511.0450, 14.77947
511.5272, 14.52456
512.0093, 14.55815
512.4914, 14.62755
512.9735, 14.77483
513.4556, 14.86874
513.9377, 14.68369
514.4199, 14.18272
514.9020, 13.58714
515.3841, 13.12271
515.8662, 12.72651
516.3483, 12.89542
516.8304, 14.77128
517.3126, 15.99445
517.7947, 15.41173
518.2768, 13.90201
518.7589, 12.71306
519.2410, 12.33430
519.7231, 12.48111
520.2053, 12.87344
520.6874, 13.54096
521.1695, 14.01424
521.6516, 14.27406
522.1337, 14.25313
522.6158, 13.62875
523.0980, 12.69144
523.5801, 12.30671
524.0622, 13.16520
524.5443, 14.32548
525.0264, 14.83725
525.5085, 14.77076
525.9907, 14.46337
526.4728, 13.95269
526.9549, 13.42964
527.4370, 13.26266
527.9191, 13.56420
528.4012, 13.47577
528.8834, 12.34245
529.3655, 11.28163
529.8476, 11.13989
530.3297, 11.74316
530.8118, 12.53367
531.2939, 13.24001
531.7761, 13.76917
532.2582, 13.85308
532.7403, 13.14159
533.2224, 12.62131
533.7045, 12.33432
534.1866, 12.19387
534.6688, 12.29551
535.1509, 12.51096
535.6330, 12.44086
536.1151, 11.63544
536.5972, 10.61847
537.0793, 11.04937
537.5615, 13.41992
538.0436, 15.19081
538.5257, 15.13413
539.0078, 14.53989
539.4899, 14.67580
539.9720, 15.52354
540.4542, 15.92609
540.9363, 14.91917
541.4184, 13.33541
541.9005, 12.23063
542.3826, 11.65461
542.8647, 11.66092
543.3469, 12.43872
543.8290, 13.65370
544.3111, 14.43867
544.7932, 14.65925
545.2753, 14.83808
545.7574, 15.14713
546.2396, 15.37315
546.7217, 15.32706
547.2038, 15.01322
547.6859, 14.46919
548.1680, 13.65203
548.6501, 12.75666
549.1323, 12.72082
549.6144, 14.34056
550.0965, 15.43985
550.5786, 15.69835
551.0607, 15.49591
551.5428, 14.87073
552.0250, 13.97755
552.5071, 13.30966
552.9892, 13.29111
553.4713, 13.73960
553.9534, 14.16314
554.4355, 14.57423
554.9177, 14.90229
555.3998, 15.20522
555.8819, 15.33398
556.3640, 15.01052
556.8461, 14.14704
557.3282, 13.52747
557.8104, 13.56575
558.2925, 13.94091
558.7746, 14.39898
559.2567, 14.87502
559.7388, 15.08451
560.2209, 14.78376
560.7031, 14.21310
561.1852, 14.14126
561.6673, 15.24366
562.1494, 15.89679
562.6315, 15.69330
563.1136, 15.33669
563.5958, 15.26155
564.0779, 15.51334
564.5600, 16.01291
565.0421, 16.74696
565.5242, 17.61254
566.0063, 18.25999
566.4885, 18.63650
566.9706, 18.94070
567.4527, 19.27068
567.9348, 19.49440
568.4169, 19.34249
568.8990, 18.90422
569.3812, 18.79703
569.8633, 19.66807
570.3454, 20.88767
570.8275, 21.47677
571.3096, 21.47268
571.7917, 21.54918
572.2739, 22.02101
572.7560, 22.67384
573.2381, 23.06352
573.7202, 23.01142
574.2023, 23.41528
574.6844, 24.79914
575.1666, 26.28469
575.6487, 27.09202
576.1308, 27.49234
576.6129, 28.32342
577.0950, 30.04284
577.5771, 32.25091
578.0593, 34.03128
578.5414, 35.11324
579.0235, 36.50787
579.5056, 38.18831
579.9877, 40.27588
580.4698, 42.96605
580.9520, 46.10636
581.4341, 49.33789
581.9162, 52.38644
582.3983, 55.70003
582.8804, 59.68605
583.3625, 64.39245
583.8447, 70.28699
584.3268, 77.70402
584.8089, 85.77718
585.2910, 93.23260
585.7731, 100.2647
586.2552, 108.9361
586.7374, 119.9903
587.2195, 132.1335
587.7016, 144.4287
588.1837, 157.3860
588.6658, 171.8438
589.1479, 188.0686
589.6301, 205.8855
590.1122, 225.1857
590.5943, 245.9616
591.0764, 268.3192
591.5585, 292.9500
592.0406, 318.5658
592.5228, 346.9759
593.0049, 375.2298
593.4870, 401.0850
593.9691, 423.8907
594.4512, 440.2945
594.9333, 448.0771
595.4155, 447.0194
595.8976, 435.3526
596.3797, 412.0353
596.8618, 382.1910
597.3439, 346.0155
597.8260, 306.2952
598.3082, 269.9200
598.7903, 236.7618
599.2724, 207.2714
599.7545, 182.0107
600.2366, 160.2037
600.7188, 141.5141
601.2009, 125.6761
601.6830, 112.2415
602.1651, 100.9168
602.6472, 91.50760
603.1293, 83.31237
603.6115, 76.35217
604.0936, 70.65372
604.5757, 67.04578
605.0578, 63.83841
605.5399, 59.90858
606.0220, 55.45603
606.5042, 51.30748
606.9863, 47.84650
607.4684, 45.09098
607.9505, 43.35964
608.4326, 42.61481
608.9147, 41.39031
609.3969, 39.08906
609.8790, 36.58803
610.3611, 34.92403
610.8432, 34.01099
611.3253, 32.90896
611.8074, 30.98349
612.2896, 29.40624
612.7717, 29.12485
613.2538, 29.51573
613.7359, 29.50258
614.2180, 28.77229
614.7001, 27.75447
615.1823, 26.92172
615.6644, 26.27567
616.1465, 25.76506
616.6286, 25.18903
617.1107, 25.05914
617.5928, 25.96396
618.0750, 27.08328
618.5571, 27.49730
619.0392, 27.05248
619.5213, 26.48784
620.0034, 26.39594
620.4855, 26.57497
620.9677, 26.51280
621.4498, 26.17693
621.9319, 25.99665
622.4140, 26.19535
622.8961, 26.66426
623.3782, 27.21834
623.8604, 27.92627
624.3425, 28.49323
624.8246, 28.73862
625.3067, 28.96007
625.7888, 29.61144
626.2709, 30.38976
626.7531, 30.43933
627.2352, 29.32044
627.7173, 27.79375
628.1994, 27.31825
628.6815, 28.10956
629.1636, 28.78050
629.6458, 29.50553
630.1279, 29.75531
630.6100, 29.07103
631.0921, 27.83867
631.5742, 26.70541
632.0563, 25.78770
632.5385, 25.12372
633.0206, 24.95303
633.5027, 25.00261
633.9848, 24.67035
634.4669, 23.87689
634.9490, 23.08310
635.4312, 22.68953
635.9133, 22.52616
636.3954, 21.77097
636.8775, 19.49298
637.3596, 17.88243
637.8417, 17.48704
638.3239, 17.39442
638.8060, 16.96564
639.2881, 16.23963
639.7702, 15.58364
640.2523, 15.20981
640.7344, 15.04677
641.2166, 14.98326
641.6987, 15.02139
642.1808, 15.11971
642.6629, 15.32547
643.1450, 15.50025
643.6271, 15.46979
644.1093, 15.29421
644.5914, 15.19275
645.0735, 15.33976
645.5556, 15.40143
