##NAMES=Xonotlite
##RRUFFID=R180003
##IDEAL CHEMISTRY=Ca_6_Si_6_O_17_(OH)_2_
##LOCALITY=Nchwaning III mine, Kuruman, Kalahari manganese field, Northern Cape Province, South Africa
##OWNER=RRUFF
##SOURCE=Jaco and Tania Janse van Nieuwenhuizen
##DESCRIPTION=Sprays of colorless prismatic crystals
##STATUS=The identification of this mineral has been confirmed by single-crystal X-ray diffraction.
##URL=rruff.info/R180003
8.813672e+001, 4.394961e+002
8.861884e+001, 4.441511e+002
8.910095e+001, 4.496978e+002
8.958307e+001, 4.571678e+002
9.006519e+001, 4.654984e+002
9.054730e+001, 4.732909e+002
9.102942e+001, 4.809713e+002
9.151154e+001, 4.884320e+002
9.199365e+001, 4.968394e+002
9.247577e+001, 5.053527e+002
9.295789e+001, 5.113375e+002
9.344000e+001, 5.116677e+002
9.392212e+001, 5.085077e+002
9.440424e+001, 5.080458e+002
9.488635e+001, 5.113351e+002
9.536847e+001, 5.162065e+002
9.585059e+001, 5.197820e+002
9.633270e+001, 5.220804e+002
9.681482e+001, 5.236077e+002
9.729694e+001, 5.239199e+002
9.777905e+001, 5.231803e+002
9.826117e+001, 5.240941e+002
9.874329e+001, 5.270430e+002
9.922540e+001, 5.314597e+002
9.970752e+001, 5.362206e+002
1.001896e+002, 5.413015e+002
1.006718e+002, 5.464986e+002
1.011539e+002, 5.516686e+002
1.016360e+002, 5.568734e+002
1.021181e+002, 5.618946e+002
1.026002e+002, 5.665554e+002
1.030823e+002, 5.709603e+002
1.035645e+002, 5.757295e+002
1.040466e+002, 5.806139e+002
1.045287e+002, 5.862498e+002
1.050108e+002, 5.931707e+002
1.054929e+002, 6.009276e+002
1.059750e+002, 6.107098e+002
1.064572e+002, 6.234594e+002
1.069393e+002, 6.397339e+002
1.074214e+002, 6.540671e+002
1.079035e+002, 6.663545e+002
1.083856e+002, 6.769883e+002
1.088677e+002, 6.861949e+002
1.093499e+002, 6.928146e+002
1.098320e+002, 6.993816e+002
1.103141e+002, 7.064645e+002
1.107962e+002, 7.144430e+002
1.112783e+002, 7.222054e+002
1.117604e+002, 7.303404e+002
1.122426e+002, 7.382287e+002
1.127247e+002, 7.447546e+002
1.132068e+002, 7.487179e+002
1.136889e+002, 7.521143e+002
1.141710e+002, 7.556240e+002
1.146531e+002, 7.592169e+002
1.151353e+002, 7.631306e+002
1.156174e+002, 7.678242e+002
1.160995e+002, 7.729415e+002
1.165816e+002, 7.776519e+002
1.170637e+002, 7.814446e+002
1.175458e+002, 7.847922e+002
1.180280e+002, 7.881210e+002
1.185101e+002, 7.920803e+002
1.189922e+002, 7.952474e+002
1.194743e+002, 7.954584e+002
1.199564e+002, 7.935929e+002
1.204385e+002, 7.936281e+002
1.209207e+002, 7.992250e+002
1.214028e+002, 8.075225e+002
1.218849e+002, 8.151901e+002
1.223670e+002, 8.194039e+002
1.228491e+002, 8.239720e+002
1.233312e+002, 8.338423e+002
1.238134e+002, 8.487043e+002
1.242955e+002, 8.622927e+002
1.247776e+002, 8.684178e+002
1.252597e+002, 8.695681e+002
1.257418e+002, 8.708064e+002
1.262239e+002, 8.736312e+002
1.267061e+002, 8.779911e+002
1.271882e+002, 8.838923e+002
1.276703e+002, 8.914424e+002
1.281524e+002, 8.998973e+002
1.286345e+002, 9.091352e+002
1.291166e+002, 9.188554e+002
1.295988e+002, 9.277491e+002
1.300809e+002, 9.343738e+002
1.305630e+002, 9.395515e+002
1.310451e+002, 9.464744e+002
1.315272e+002, 9.556750e+002
1.320093e+002, 9.652057e+002
1.324915e+002, 9.719339e+002
1.329736e+002, 9.758528e+002
1.334557e+002, 9.796751e+002
1.339378e+002, 9.849348e+002
1.344199e+002, 9.915377e+002
1.349020e+002, 9.976234e+002
1.353842e+002, 1.002691e+003
1.358663e+002, 1.007572e+003
1.363484e+002, 1.014428e+003
1.368305e+002, 1.023464e+003
1.373126e+002, 1.033402e+003
1.377947e+002, 1.043001e+003
1.382769e+002, 1.051933e+003
1.387590e+002, 1.063174e+003
1.392411e+002, 1.077745e+003
1.397232e+002, 1.094668e+003
1.402053e+002, 1.109287e+003
1.406874e+002, 1.121513e+003
1.411696e+002, 1.132057e+003
1.416517e+002, 1.141563e+003
1.421338e+002, 1.150909e+003
1.426159e+002, 1.157242e+003
1.430980e+002, 1.160538e+003
1.435801e+002, 1.160743e+003
1.440623e+002, 1.156972e+003
1.445444e+002, 1.148351e+003
1.450265e+002, 1.136860e+003
1.455086e+002, 1.124034e+003
1.459907e+002, 1.108736e+003
1.464728e+002, 1.093797e+003
1.469550e+002, 1.079244e+003
1.474371e+002, 1.065097e+003
1.479192e+002, 1.052296e+003
1.484013e+002, 1.041134e+003
1.488834e+002, 1.031175e+003
1.493655e+002, 1.021897e+003
1.498477e+002, 1.013396e+003
1.503298e+002, 1.005527e+003
1.508119e+002, 9.981860e+002
1.512940e+002, 9.912648e+002
1.517761e+002, 9.854620e+002
1.522583e+002, 9.810090e+002
1.527404e+002, 9.777001e+002
1.532225e+002, 9.753038e+002
1.537046e+002, 9.750541e+002
1.541867e+002, 9.746161e+002
1.546688e+002, 9.729923e+002
1.551510e+002, 9.694562e+002
1.556331e+002, 9.674824e+002
1.561152e+002, 9.699630e+002
1.565973e+002, 9.738176e+002
1.570794e+002, 9.748909e+002
1.575615e+002, 9.690311e+002
1.580437e+002, 9.629563e+002
1.585258e+002, 9.594747e+002
1.590079e+002, 9.596063e+002
1.594900e+002, 9.601791e+002
1.599721e+002, 9.610062e+002
1.604542e+002, 9.616092e+002
1.609364e+002, 9.611458e+002
1.614185e+002, 9.582903e+002
1.619006e+002, 9.549777e+002
1.623827e+002, 9.522684e+002
1.628648e+002, 9.504393e+002
1.633469e+002, 9.489235e+002
1.638291e+002, 9.479901e+002
1.643112e+002, 9.472188e+002
1.647933e+002, 9.456201e+002
1.652754e+002, 9.417014e+002
1.657575e+002, 9.373738e+002
1.662396e+002, 9.341288e+002
1.667218e+002, 9.325889e+002
1.672039e+002, 9.315731e+002
1.676860e+002, 9.304324e+002
1.681681e+002, 9.292558e+002
1.686502e+002, 9.282628e+002
1.691323e+002, 9.277224e+002
1.696145e+002, 9.273914e+002
1.700966e+002, 9.270324e+002
1.705787e+002, 9.265858e+002
1.710608e+002, 9.261069e+002
1.715429e+002, 9.255893e+002
1.720250e+002, 9.250438e+002
1.725072e+002, 9.245712e+002
1.729893e+002, 9.241849e+002
1.734714e+002, 9.238908e+002
1.739535e+002, 9.236288e+002
1.744356e+002, 9.230247e+002
1.749177e+002, 9.228481e+002
1.753999e+002, 9.245707e+002
1.758820e+002, 9.279277e+002
1.763641e+002, 9.306488e+002
1.768462e+002, 9.304161e+002
1.773283e+002, 9.284930e+002
1.778104e+002, 9.272977e+002
1.782926e+002, 9.278782e+002
1.787747e+002, 9.292316e+002
1.792568e+002, 9.301818e+002
1.797389e+002, 9.307257e+002
1.802210e+002, 9.307438e+002
1.807031e+002, 9.293468e+002
1.811853e+002, 9.272598e+002
1.816674e+002, 9.265251e+002
1.821495e+002, 9.285419e+002
1.826316e+002, 9.318267e+002
1.831137e+002, 9.332236e+002
1.835958e+002, 9.327038e+002
1.840780e+002, 9.321717e+002
1.845601e+002, 9.335643e+002
1.850422e+002, 9.365074e+002
1.855243e+002, 9.395742e+002
1.860064e+002, 9.423484e+002
1.864885e+002, 9.449022e+002
1.869707e+002, 9.472264e+002
1.874528e+002, 9.493063e+002
1.879349e+002, 9.515291e+002
1.884170e+002, 9.546760e+002
1.888991e+002, 9.585735e+002
1.893812e+002, 9.617047e+002
1.898634e+002, 9.630043e+002
1.903455e+002, 9.632158e+002
1.908276e+002, 9.654550e+002
1.913097e+002, 9.700321e+002
1.917918e+002, 9.751298e+002
1.922739e+002, 9.786370e+002
1.927561e+002, 9.806160e+002
1.932382e+002, 9.824339e+002
1.937203e+002, 9.842352e+002
1.942024e+002, 9.861576e+002
1.946845e+002, 9.894167e+002
1.951666e+002, 9.942509e+002
1.956488e+002, 9.994364e+002
1.961309e+002, 1.003315e+003
1.966130e+002, 1.005826e+003
1.970951e+002, 1.008568e+003
1.975772e+002, 1.012006e+003
1.980593e+002, 1.016132e+003
1.985415e+002, 1.021087e+003
1.990236e+002, 1.027126e+003
1.995057e+002, 1.033352e+003
1.999878e+002, 1.038607e+003
2.004699e+002, 1.042888e+003
2.009520e+002, 1.046513e+003
2.014342e+002, 1.049412e+003
2.019163e+002, 1.051651e+003
2.023984e+002, 1.054157e+003
2.028805e+002, 1.057079e+003
2.033626e+002, 1.060055e+003
2.038447e+002, 1.063024e+003
2.043269e+002, 1.066373e+003
2.048090e+002, 1.067820e+003
2.052911e+002, 1.066088e+003
2.057732e+002, 1.061073e+003
2.062553e+002, 1.056707e+003
2.067374e+002, 1.053059e+003
2.072196e+002, 1.049874e+003
2.077017e+002, 1.046996e+003
2.081838e+002, 1.044653e+003
2.086659e+002, 1.041659e+003
2.091480e+002, 1.037462e+003
2.096301e+002, 1.031895e+003
2.101123e+002, 1.026704e+003
2.105944e+002, 1.022065e+003
2.110765e+002, 1.017488e+003
2.115586e+002, 1.012140e+003
2.120407e+002, 1.005609e+003
2.125228e+002, 9.994191e+002
2.130050e+002, 9.941102e+002
2.134871e+002, 9.897646e+002
2.139692e+002, 9.856742e+002
2.144513e+002, 9.818635e+002
2.149334e+002, 9.782828e+002
2.154155e+002, 9.748024e+002
2.158977e+002, 9.714133e+002
2.163798e+002, 9.681501e+002
2.168619e+002, 9.650357e+002
2.173440e+002, 9.620814e+002
2.178261e+002, 9.593219e+002
2.183082e+002, 9.567660e+002
2.187904e+002, 9.544535e+002
2.192725e+002, 9.523336e+002
2.197546e+002, 9.500872e+002
2.202367e+002, 9.488430e+002
2.207188e+002, 9.492177e+002
2.212009e+002, 9.515488e+002
2.216831e+002, 9.532861e+002
2.221652e+002, 9.543088e+002
2.226473e+002, 9.548792e+002
2.231294e+002, 9.551638e+002
2.236115e+002, 9.545792e+002
2.240936e+002, 9.548968e+002
2.245758e+002, 9.566471e+002
2.250579e+002, 9.599332e+002
2.255400e+002, 9.640539e+002
2.260221e+002, 9.696766e+002
2.265042e+002, 9.755452e+002
2.269863e+002, 9.797532e+002
2.274685e+002, 9.812263e+002
2.279506e+002, 9.830879e+002
2.284327e+002, 9.859928e+002
2.289148e+002, 9.899405e+002
2.293969e+002, 9.951843e+002
2.298790e+002, 1.002436e+003
2.303612e+002, 1.010337e+003
2.308433e+002, 1.017281e+003
2.313254e+002, 1.023339e+003
2.318075e+002, 1.028380e+003
2.322896e+002, 1.032185e+003
2.327717e+002, 1.034607e+003
2.332539e+002, 1.037182e+003
2.337360e+002, 1.040610e+003
2.342181e+002, 1.043522e+003
2.347002e+002, 1.044423e+003
2.351823e+002, 1.043213e+003
2.356644e+002, 1.040148e+003
2.361466e+002, 1.034863e+003
2.366287e+002, 1.027180e+003
2.371108e+002, 1.020077e+003
2.375929e+002, 1.014176e+003
2.380750e+002, 1.008476e+003
2.385571e+002, 1.001840e+003
2.390393e+002, 9.934279e+002
2.395214e+002, 9.856751e+002
2.400035e+002, 9.791691e+002
2.404856e+002, 9.739095e+002
2.409677e+002, 9.688380e+002
2.414498e+002, 9.637839e+002
2.419320e+002, 9.590597e+002
2.424141e+002, 9.549747e+002
2.428962e+002, 9.519691e+002
2.433783e+002, 9.486955e+002
2.438604e+002, 9.447741e+002
2.443425e+002, 9.401844e+002
2.448247e+002, 9.358742e+002
2.453068e+002, 9.317669e+002
2.457889e+002, 9.279686e+002
2.462710e+002, 9.245408e+002
2.467531e+002, 9.215738e+002
2.472352e+002, 9.187683e+002
2.477174e+002, 9.160521e+002
2.481995e+002, 9.134600e+002
2.486816e+002, 9.110723e+002
2.491637e+002, 9.086248e+002
2.496458e+002, 9.067391e+002
2.501279e+002, 9.061526e+002
2.506101e+002, 9.079584e+002
2.510922e+002, 9.087282e+002
2.515743e+002, 9.075977e+002
2.520564e+002, 9.049005e+002
2.525385e+002, 9.032523e+002
2.530206e+002, 9.028682e+002
2.535028e+002, 9.032721e+002
2.539849e+002, 9.042216e+002
2.544670e+002, 9.060211e+002
2.549491e+002, 9.076057e+002
2.554312e+002, 9.088092e+002
2.559133e+002, 9.096623e+002
2.563955e+002, 9.104212e+002
2.568776e+002, 9.108982e+002
2.573597e+002, 9.114882e+002
2.578418e+002, 9.124993e+002
2.583239e+002, 9.142035e+002
2.588061e+002, 9.155316e+002
2.592882e+002, 9.163870e+002
2.597703e+002, 9.168120e+002
2.602524e+002, 9.169159e+002
2.607345e+002, 9.165341e+002
2.612166e+002, 9.161687e+002
2.616988e+002, 9.160710e+002
2.621809e+002, 9.162415e+002
2.626630e+002, 9.168476e+002
2.631451e+002, 9.181970e+002
2.636272e+002, 9.198951e+002
2.641093e+002, 9.208978e+002
2.645915e+002, 9.213538e+002
2.650736e+002, 9.208834e+002
2.655557e+002, 9.189340e+002
2.660378e+002, 9.148986e+002
2.665199e+002, 9.121458e+002
2.670020e+002, 9.110635e+002
2.674842e+002, 9.110516e+002
2.679663e+002, 9.108904e+002
2.684484e+002, 9.104816e+002
2.689305e+002, 9.101849e+002
2.694126e+002, 9.101254e+002
2.698947e+002, 9.102871e+002
2.703769e+002, 9.107429e+002
2.708590e+002, 9.115782e+002
2.713411e+002, 9.125543e+002
2.718232e+002, 9.132103e+002
2.723053e+002, 9.134182e+002
2.727874e+002, 9.136883e+002
2.732696e+002, 9.140518e+002
2.737517e+002, 9.144609e+002
2.742338e+002, 9.161031e+002
2.747159e+002, 9.197263e+002
2.751980e+002, 9.231477e+002
2.756801e+002, 9.225406e+002
2.761623e+002, 9.170258e+002
2.766444e+002, 9.128692e+002
2.771265e+002, 9.126789e+002
2.776086e+002, 9.161351e+002
2.780907e+002, 9.177256e+002
2.785728e+002, 9.171965e+002
2.790550e+002, 9.156517e+002
2.795371e+002, 9.140641e+002
2.800192e+002, 9.124094e+002
2.805013e+002, 9.112123e+002
2.809834e+002, 9.105891e+002
2.814655e+002, 9.105482e+002
2.819477e+002, 9.112990e+002
2.824298e+002, 9.129820e+002
2.829119e+002, 9.147617e+002
2.833940e+002, 9.156921e+002
2.838761e+002, 9.157854e+002
2.843582e+002, 9.162872e+002
2.848404e+002, 9.176949e+002
2.853225e+002, 9.195409e+002
2.858046e+002, 9.199714e+002
2.862867e+002, 9.187879e+002
2.867688e+002, 9.181693e+002
2.872509e+002, 9.206224e+002
2.877331e+002, 9.256957e+002
2.882152e+002, 9.291775e+002
2.886973e+002, 9.298641e+002
2.891794e+002, 9.292628e+002
2.896615e+002, 9.307155e+002
2.901436e+002, 9.342172e+002
2.906258e+002, 9.379248e+002
2.911079e+002, 9.403583e+002
2.915900e+002, 9.419099e+002
2.920721e+002, 9.443054e+002
2.925542e+002, 9.477928e+002
2.930363e+002, 9.520198e+002
2.935185e+002, 9.564777e+002
2.940006e+002, 9.612219e+002
2.944827e+002, 9.662767e+002
2.949648e+002, 9.718867e+002
2.954469e+002, 9.779147e+002
2.959290e+002, 9.838743e+002
2.964112e+002, 9.897465e+002
2.968933e+002, 9.956655e+002
2.973754e+002, 1.001920e+003
2.978575e+002, 1.008338e+003
2.983396e+002, 1.014427e+003
2.988217e+002, 1.019649e+003
2.993039e+002, 1.024420e+003
2.997860e+002, 1.029420e+003
3.002681e+002, 1.034713e+003
3.007502e+002, 1.039891e+003
3.012323e+002, 1.045150e+003
3.017144e+002, 1.050032e+003
3.021966e+002, 1.053205e+003
3.026787e+002, 1.053045e+003
3.031608e+002, 1.051612e+003
3.036429e+002, 1.051801e+003
3.041250e+002, 1.053506e+003
3.046071e+002, 1.054627e+003
3.050893e+002, 1.053153e+003
3.055714e+002, 1.050057e+003
3.060535e+002, 1.046994e+003
3.065356e+002, 1.044990e+003
3.070177e+002, 1.042640e+003
3.074998e+002, 1.038210e+003
3.079820e+002, 1.032046e+003
3.084641e+002, 1.026207e+003
3.089462e+002, 1.022223e+003
3.094283e+002, 1.019131e+003
3.099104e+002, 1.015874e+003
3.103925e+002, 1.011978e+003
3.108747e+002, 1.008351e+003
3.113568e+002, 1.005770e+003
3.118389e+002, 1.004014e+003
3.123210e+002, 1.002458e+003
3.128031e+002, 1.000859e+003
3.132852e+002, 9.992914e+002
3.137674e+002, 9.977118e+002
3.142495e+002, 9.959854e+002
3.147316e+002, 9.947332e+002
3.152137e+002, 9.942651e+002
3.156958e+002, 9.944963e+002
3.161779e+002, 9.952809e+002
3.166601e+002, 9.979489e+002
3.171422e+002, 1.000073e+003
3.176243e+002, 1.000141e+003
3.181064e+002, 9.977543e+002
3.185885e+002, 9.951003e+002
3.190706e+002, 9.918935e+002
3.195528e+002, 9.891754e+002
3.200349e+002, 9.881297e+002
3.205170e+002, 9.906591e+002
3.209991e+002, 9.933885e+002
3.214812e+002, 9.952385e+002
3.219633e+002, 9.961655e+002
3.224455e+002, 9.970214e+002
3.229276e+002, 9.977090e+002
3.234097e+002, 9.985441e+002
3.238918e+002, 9.997621e+002
3.243739e+002, 1.001507e+003
3.248560e+002, 1.003502e+003
3.253382e+002, 1.005577e+003
3.258203e+002, 1.007803e+003
3.263024e+002, 1.010618e+003
3.267845e+002, 1.015253e+003
3.272666e+002, 1.019601e+003
3.277487e+002, 1.022621e+003
3.282309e+002, 1.022502e+003
3.287130e+002, 1.023476e+003
3.291951e+002, 1.026271e+003
3.296772e+002, 1.030138e+003
3.301593e+002, 1.033243e+003
3.306414e+002, 1.035683e+003
3.311236e+002, 1.037220e+003
3.316057e+002, 1.037713e+003
3.320878e+002, 1.036908e+003
3.325699e+002, 1.035850e+003
3.330520e+002, 1.034657e+003
3.335341e+002, 1.033165e+003
3.340163e+002, 1.031057e+003
3.344984e+002, 1.027990e+003
3.349805e+002, 1.025056e+003
3.354626e+002, 1.022655e+003
3.359447e+002, 1.020828e+003
3.364268e+002, 1.018502e+003
3.369090e+002, 1.015823e+003
3.373911e+002, 1.012397e+003
3.378732e+002, 1.007461e+003
3.383553e+002, 1.000356e+003
3.388374e+002, 9.944901e+002
3.393195e+002, 9.907391e+002
3.398017e+002, 9.886162e+002
3.402838e+002, 9.857280e+002
3.407659e+002, 9.818544e+002
3.412480e+002, 9.778771e+002
3.417301e+002, 9.743444e+002
3.422122e+002, 9.712716e+002
3.426944e+002, 9.683421e+002
3.431765e+002, 9.655867e+002
3.436586e+002, 9.628517e+002
3.441407e+002, 9.598577e+002
3.446228e+002, 9.566166e+002
3.451049e+002, 9.533434e+002
3.455871e+002, 9.498907e+002
3.460692e+002, 9.464188e+002
3.465513e+002, 9.442430e+002
3.470334e+002, 9.436058e+002
3.475155e+002, 9.434135e+002
3.479977e+002, 9.422155e+002
3.484798e+002, 9.402004e+002
3.489619e+002, 9.383546e+002
3.494440e+002, 9.370942e+002
3.499261e+002, 9.362645e+002
3.504082e+002, 9.354996e+002
3.508904e+002, 9.347908e+002
3.513725e+002, 9.344034e+002
3.518546e+002, 9.347748e+002
3.523367e+002, 9.355997e+002
3.528188e+002, 9.362625e+002
3.533009e+002, 9.365768e+002
3.537831e+002, 9.366324e+002
3.542652e+002, 9.364216e+002
3.547473e+002, 9.359915e+002
3.552294e+002, 9.355848e+002
3.557115e+002, 9.352567e+002
3.561936e+002, 9.350859e+002
3.566758e+002, 9.350834e+002
3.571579e+002, 9.351261e+002
3.576400e+002, 9.357667e+002
3.581221e+002, 9.378281e+002
3.586042e+002, 9.407752e+002
3.590863e+002, 9.435604e+002
3.595685e+002, 9.455701e+002
3.600506e+002, 9.474152e+002
3.605327e+002, 9.496804e+002
3.610148e+002, 9.525272e+002
3.614969e+002, 9.547057e+002
3.619790e+002, 9.542424e+002
3.624612e+002, 9.533815e+002
3.629433e+002, 9.545125e+002
3.634254e+002, 9.605073e+002
3.639075e+002, 9.663461e+002
3.643896e+002, 9.704502e+002
3.648717e+002, 9.728783e+002
3.653539e+002, 9.749329e+002
3.658360e+002, 9.760972e+002
3.663181e+002, 9.774362e+002
3.668002e+002, 9.796180e+002
3.672823e+002, 9.838430e+002
3.677644e+002, 9.874401e+002
3.682466e+002, 9.897561e+002
3.687287e+002, 9.912947e+002
3.692108e+002, 9.934589e+002
3.696929e+002, 9.975064e+002
3.701750e+002, 1.000907e+003
3.706571e+002, 1.002825e+003
3.711393e+002, 1.003126e+003
3.716214e+002, 1.002406e+003
3.721035e+002, 1.000028e+003
3.725856e+002, 9.971187e+002
3.730677e+002, 9.952282e+002
3.735498e+002, 9.949289e+002
3.740320e+002, 9.943837e+002
3.745141e+002, 9.928795e+002
3.749962e+002, 9.905754e+002
3.754783e+002, 9.899954e+002
3.759604e+002, 9.918947e+002
3.764425e+002, 9.939053e+002
3.769247e+002, 9.940201e+002
3.774068e+002, 9.920307e+002
3.778889e+002, 9.896084e+002
3.783710e+002, 9.864948e+002
3.788531e+002, 9.835630e+002
3.793352e+002, 9.833798e+002
3.798174e+002, 9.861624e+002
3.802995e+002, 9.890084e+002
3.807816e+002, 9.902165e+002
3.812637e+002, 9.899765e+002
3.817458e+002, 9.893700e+002
3.822279e+002, 9.882758e+002
3.827101e+002, 9.873869e+002
3.831922e+002, 9.879264e+002
3.836743e+002, 9.895556e+002
3.841564e+002, 9.906612e+002
3.846385e+002, 9.899263e+002
3.851206e+002, 9.886091e+002
3.856028e+002, 9.891991e+002
3.860849e+002, 9.916166e+002
3.865670e+002, 9.943104e+002
3.870491e+002, 9.961014e+002
3.875312e+002, 9.973846e+002
3.880133e+002, 9.987643e+002
3.884955e+002, 1.000255e+003
3.889776e+002, 1.002150e+003
3.894597e+002, 1.005094e+003
3.899418e+002, 1.008722e+003
3.904239e+002, 1.011972e+003
3.909060e+002, 1.014226e+003
3.913882e+002, 1.015936e+003
3.918703e+002, 1.017446e+003
3.923524e+002, 1.018834e+003
3.928345e+002, 1.019887e+003
3.933166e+002, 1.020150e+003
3.937987e+002, 1.020121e+003
3.942809e+002, 1.020428e+003
3.947630e+002, 1.022537e+003
3.952451e+002, 1.023751e+003
3.957272e+002, 1.022806e+003
3.962093e+002, 1.019789e+003
3.966914e+002, 1.016776e+003
3.971736e+002, 1.013650e+003
3.976557e+002, 1.010997e+003
3.981378e+002, 1.009173e+003
3.986199e+002, 1.008973e+003
3.991020e+002, 1.008667e+003
3.995841e+002, 1.008513e+003
4.000663e+002, 1.008202e+003
4.005484e+002, 1.006938e+003
4.010305e+002, 1.003935e+003
4.015126e+002, 1.000961e+003
4.019947e+002, 9.985646e+002
4.024768e+002, 9.968395e+002
4.029590e+002, 9.954156e+002
4.034411e+002, 9.947375e+002
4.039232e+002, 9.938635e+002
4.044053e+002, 9.914832e+002
4.048874e+002, 9.869559e+002
4.053695e+002, 9.831785e+002
4.058517e+002, 9.808593e+002
4.063338e+002, 9.796967e+002
4.068159e+002, 9.780727e+002
4.072980e+002, 9.757787e+002
4.077801e+002, 9.740647e+002
4.082622e+002, 9.740314e+002
4.087444e+002, 9.755651e+002
4.092265e+002, 9.771072e+002
4.097086e+002, 9.785204e+002
4.101907e+002, 9.799043e+002
4.106728e+002, 9.814274e+002
4.111549e+002, 9.830674e+002
4.116371e+002, 9.847006e+002
4.121192e+002, 9.861267e+002
4.126013e+002, 9.875051e+002
4.130834e+002, 9.891125e+002
4.135655e+002, 9.909317e+002
4.140476e+002, 9.930224e+002
4.145298e+002, 9.953583e+002
4.150119e+002, 9.980164e+002
4.154940e+002, 1.001218e+003
4.159761e+002, 1.005167e+003
4.164582e+002, 1.009419e+003
4.169403e+002, 1.013660e+003
4.174225e+002, 1.017897e+003
4.179046e+002, 1.022105e+003
4.183867e+002, 1.025544e+003
4.188688e+002, 1.029396e+003
4.193509e+002, 1.034881e+003
4.198330e+002, 1.042704e+003
4.203152e+002, 1.049466e+003
4.207973e+002, 1.053729e+003
4.212794e+002, 1.056344e+003
4.217615e+002, 1.058326e+003
4.222436e+002, 1.059893e+003
4.227257e+002, 1.060884e+003
4.232079e+002, 1.061951e+003
4.236900e+002, 1.062874e+003
4.241721e+002, 1.061115e+003
4.246542e+002, 1.054358e+003
4.251363e+002, 1.046484e+003
4.256184e+002, 1.039201e+003
4.261006e+002, 1.032704e+003
4.265827e+002, 1.026679e+003
4.270648e+002, 1.021547e+003
4.275469e+002, 1.016647e+003
4.280290e+002, 1.010796e+003
4.285111e+002, 1.003457e+003
4.289933e+002, 9.963681e+002
4.294754e+002, 9.899808e+002
4.299575e+002, 9.842757e+002
4.304396e+002, 9.795728e+002
4.309217e+002, 9.760728e+002
4.314038e+002, 9.729304e+002
4.318860e+002, 9.690158e+002
4.323681e+002, 9.643098e+002
4.328502e+002, 9.615328e+002
4.333323e+002, 9.615527e+002
4.338144e+002, 9.630046e+002
4.342965e+002, 9.633508e+002
4.347787e+002, 9.626467e+002
4.352608e+002, 9.616018e+002
4.357429e+002, 9.600268e+002
4.362250e+002, 9.584718e+002
4.367071e+002, 9.583358e+002
4.371892e+002, 9.597234e+002
4.376714e+002, 9.617008e+002
4.381535e+002, 9.635063e+002
4.386356e+002, 9.652761e+002
4.391177e+002, 9.672269e+002
4.395998e+002, 9.694028e+002
4.400819e+002, 9.718330e+002
4.405641e+002, 9.745645e+002
4.410462e+002, 9.775830e+002
4.415283e+002, 9.808381e+002
4.420104e+002, 9.843509e+002
4.424925e+002, 9.880447e+002
4.429746e+002, 9.918788e+002
4.434568e+002, 9.959479e+002
4.439389e+002, 9.998426e+002
4.444210e+002, 1.004040e+003
4.449031e+002, 1.007760e+003
4.453852e+002, 1.010077e+003
4.458673e+002, 1.009571e+003
4.463495e+002, 1.008879e+003
4.468316e+002, 1.008801e+003
4.473137e+002, 1.009212e+003
4.477958e+002, 1.008457e+003
4.482779e+002, 1.006217e+003
4.487600e+002, 1.003139e+003
4.492422e+002, 9.994350e+002
4.497243e+002, 9.946049e+002
4.502064e+002, 9.903174e+002
4.506885e+002, 9.865621e+002
4.511706e+002, 9.833135e+002
4.516527e+002, 9.805881e+002
4.521349e+002, 9.784174e+002
4.526170e+002, 9.767148e+002
4.530991e+002, 9.756275e+002
4.535812e+002, 9.750372e+002
4.540633e+002, 9.740785e+002
4.545454e+002, 9.726575e+002
4.550276e+002, 9.716718e+002
4.555097e+002, 9.722357e+002
4.559918e+002, 9.739913e+002
4.564739e+002, 9.750892e+002
4.569560e+002, 9.751340e+002
4.574381e+002, 9.748323e+002
4.579203e+002, 9.749184e+002
4.584024e+002, 9.753922e+002
4.588845e+002, 9.763063e+002
4.593666e+002, 9.785062e+002
4.598488e+002, 9.806590e+002
4.603309e+002, 9.808156e+002
4.608130e+002, 9.790812e+002
4.612951e+002, 9.775789e+002
4.617772e+002, 9.786617e+002
4.622593e+002, 9.801838e+002
4.627415e+002, 9.799534e+002
4.632236e+002, 9.765460e+002
4.637057e+002, 9.730031e+002
4.641878e+002, 9.707869e+002
4.646699e+002, 9.692946e+002
4.651520e+002, 9.673059e+002
4.656342e+002, 9.640272e+002
4.661163e+002, 9.607646e+002
4.665984e+002, 9.578842e+002
4.670805e+002, 9.554440e+002
4.675626e+002, 9.532319e+002
4.680447e+002, 9.510584e+002
4.685269e+002, 9.492515e+002
4.690090e+002, 9.480521e+002
4.694911e+002, 9.477589e+002
4.699732e+002, 9.474453e+002
4.704553e+002, 9.469932e+002
4.709374e+002, 9.465079e+002
4.714196e+002, 9.462320e+002
4.719017e+002, 9.461855e+002
4.723838e+002, 9.462865e+002
4.728659e+002, 9.466748e+002
4.733480e+002, 9.472726e+002
4.738301e+002, 9.469318e+002
4.743123e+002, 9.454752e+002
4.747944e+002, 9.442773e+002
4.752765e+002, 9.448845e+002
4.757586e+002, 9.469385e+002
4.762407e+002, 9.488913e+002
4.767228e+002, 9.504485e+002
4.772050e+002, 9.518138e+002
4.776871e+002, 9.529251e+002
4.781692e+002, 9.539882e+002
4.786513e+002, 9.556524e+002
4.791334e+002, 9.587097e+002
4.796155e+002, 9.622354e+002
4.800977e+002, 9.652785e+002
4.805798e+002, 9.678073e+002
4.810619e+002, 9.704587e+002
4.815440e+002, 9.740732e+002
4.820261e+002, 9.776981e+002
4.825082e+002, 9.804904e+002
4.829904e+002, 9.819449e+002
4.834725e+002, 9.830218e+002
4.839546e+002, 9.843151e+002
4.844367e+002, 9.854109e+002
4.849188e+002, 9.854127e+002
4.854009e+002, 9.835272e+002
4.858831e+002, 9.812162e+002
4.863652e+002, 9.787019e+002
4.868473e+002, 9.759733e+002
4.873294e+002, 9.736212e+002
4.878115e+002, 9.713289e+002
4.882936e+002, 9.697917e+002
4.887758e+002, 9.698436e+002
4.892579e+002, 9.723521e+002
4.897400e+002, 9.732362e+002
4.902221e+002, 9.717889e+002
4.907042e+002, 9.690651e+002
4.911863e+002, 9.671096e+002
4.916685e+002, 9.659482e+002
4.921506e+002, 9.648416e+002
4.926327e+002, 9.633221e+002
4.931148e+002, 9.616476e+002
4.935969e+002, 9.609053e+002
4.940790e+002, 9.610775e+002
4.945612e+002, 9.614465e+002
4.950433e+002, 9.613333e+002
4.955254e+002, 9.610175e+002
4.960075e+002, 9.610021e+002
4.964896e+002, 9.613548e+002
4.969717e+002, 9.620959e+002
4.974539e+002, 9.638411e+002
4.979360e+002, 9.659189e+002
4.984181e+002, 9.670509e+002
4.989002e+002, 9.651996e+002
4.993823e+002, 9.635782e+002
4.998644e+002, 9.641702e+002
5.003466e+002, 9.668151e+002
5.008287e+002, 9.694347e+002
5.013108e+002, 9.712275e+002
5.017929e+002, 9.729449e+002
5.022750e+002, 9.750018e+002
5.027571e+002, 9.775129e+002
5.032393e+002, 9.803091e+002
5.037214e+002, 9.840264e+002
5.042035e+002, 9.876985e+002
5.046856e+002, 9.900645e+002
5.051677e+002, 9.907053e+002
5.056498e+002, 9.908578e+002
5.061320e+002, 9.907781e+002
5.066141e+002, 9.904105e+002
5.070962e+002, 9.894930e+002
5.075783e+002, 9.880414e+002
5.080604e+002, 9.859421e+002
5.085425e+002, 9.827151e+002
5.090247e+002, 9.785314e+002
5.095068e+002, 9.753063e+002
5.099889e+002, 9.732313e+002
5.104710e+002, 9.714340e+002
5.109531e+002, 9.689609e+002
5.114352e+002, 9.659632e+002
5.119174e+002, 9.628428e+002
5.123995e+002, 9.595416e+002
5.128816e+002, 9.564335e+002
5.133637e+002, 9.538915e+002
5.138458e+002, 9.518589e+002
5.143279e+002, 9.501295e+002
5.148101e+002, 9.488224e+002
5.152922e+002, 9.476406e+002
5.157743e+002, 9.461176e+002
5.162564e+002, 9.441162e+002
5.167385e+002, 9.431166e+002
5.172206e+002, 9.445759e+002
5.177028e+002, 9.467428e+002
5.181849e+002, 9.482015e+002
5.186670e+002, 9.483053e+002
5.191491e+002, 9.482206e+002
5.196312e+002, 9.479039e+002
5.201133e+002, 9.474557e+002
5.205955e+002, 9.470785e+002
5.210776e+002, 9.467289e+002
5.215597e+002, 9.464843e+002
5.220418e+002, 9.462161e+002
5.225239e+002, 9.459526e+002
5.230060e+002, 9.467178e+002
5.234882e+002, 9.487513e+002
5.239703e+002, 9.509011e+002
5.244524e+002, 9.524155e+002
5.249345e+002, 9.532713e+002
5.254166e+002, 9.532497e+002
5.258987e+002, 9.521622e+002
5.263809e+002, 9.507756e+002
5.268630e+002, 9.499162e+002
5.273451e+002, 9.495458e+002
5.278272e+002, 9.495682e+002
5.283093e+002, 9.502524e+002
5.287914e+002, 9.510638e+002
5.292736e+002, 9.516523e+002
5.297557e+002, 9.519708e+002
5.302378e+002, 9.517390e+002
5.307199e+002, 9.498708e+002
5.312020e+002, 9.480914e+002
5.316841e+002, 9.479766e+002
5.321663e+002, 9.502662e+002
5.326484e+002, 9.515834e+002
5.331305e+002, 9.502133e+002
5.336126e+002, 9.479033e+002
5.340947e+002, 9.462798e+002
5.345768e+002, 9.455509e+002
5.350590e+002, 9.454283e+002
5.355411e+002, 9.460980e+002
5.360232e+002, 9.473110e+002
5.365053e+002, 9.483688e+002
5.369874e+002, 9.491162e+002
5.374695e+002, 9.500299e+002
5.379517e+002, 9.514993e+002
5.384338e+002, 9.534124e+002
5.389159e+002, 9.538864e+002
5.393980e+002, 9.526598e+002
5.398801e+002, 9.515177e+002
5.403622e+002, 9.529851e+002
5.408444e+002, 9.560423e+002
5.413265e+002, 9.559947e+002
5.418086e+002, 9.514982e+002
5.422907e+002, 9.466433e+002
5.427728e+002, 9.468063e+002
5.432549e+002, 9.501231e+002
5.437371e+002, 9.525527e+002
5.442192e+002, 9.512904e+002
5.447013e+002, 9.495320e+002
5.451834e+002, 9.497914e+002
5.456655e+002, 9.515638e+002
5.461476e+002, 9.527731e+002
5.466298e+002, 9.522960e+002
5.471119e+002, 9.512858e+002
5.475940e+002, 9.501832e+002
5.480761e+002, 9.488452e+002
5.485582e+002, 9.481622e+002
5.490403e+002, 9.480377e+002
5.495225e+002, 9.486768e+002
5.500046e+002, 9.504506e+002
5.504867e+002, 9.545005e+002
5.509688e+002, 9.570636e+002
5.514509e+002, 9.573535e+002
5.519330e+002, 9.563174e+002
5.524152e+002, 9.561203e+002
5.528973e+002, 9.569080e+002
5.533794e+002, 9.572753e+002
5.538615e+002, 9.563945e+002
5.543436e+002, 9.547605e+002
5.548257e+002, 9.541669e+002
5.553079e+002, 9.546014e+002
5.557900e+002, 9.552803e+002
5.562721e+002, 9.555514e+002
5.567542e+002, 9.557024e+002
5.572363e+002, 9.562523e+002
5.577184e+002, 9.573162e+002
5.582006e+002, 9.584673e+002
5.586827e+002, 9.597383e+002
5.591648e+002, 9.608006e+002
5.596469e+002, 9.612552e+002
5.601290e+002, 9.603751e+002
5.606111e+002, 9.595201e+002
5.610933e+002, 9.589550e+002
5.615754e+002, 9.587263e+002
5.620575e+002, 9.589788e+002
5.625396e+002, 9.605887e+002
5.630217e+002, 9.617760e+002
5.635038e+002, 9.618210e+002
5.639860e+002, 9.606512e+002
5.644681e+002, 9.602916e+002
5.649502e+002, 9.608885e+002
5.654323e+002, 9.620168e+002
5.659144e+002, 9.637264e+002
5.663965e+002, 9.661462e+002
5.668787e+002, 9.669674e+002
5.673608e+002, 9.656215e+002
5.678429e+002, 9.639127e+002
5.683250e+002, 9.649153e+002
5.688071e+002, 9.679171e+002
5.692892e+002, 9.697159e+002
5.697714e+002, 9.686611e+002
5.702535e+002, 9.667557e+002
5.707356e+002, 9.661729e+002
5.712177e+002, 9.667985e+002
5.716998e+002, 9.682660e+002
5.721819e+002, 9.713493e+002
5.726641e+002, 9.744705e+002
5.731462e+002, 9.763845e+002
5.736283e+002, 9.770136e+002
5.741104e+002, 9.777684e+002
5.745925e+002, 9.791976e+002
5.750746e+002, 9.808246e+002
5.755568e+002, 9.823101e+002
5.760389e+002, 9.829943e+002
5.765210e+002, 9.847111e+002
5.770031e+002, 9.881003e+002
5.774852e+002, 9.920932e+002
5.779673e+002, 9.951536e+002
5.784495e+002, 9.969084e+002
5.789316e+002, 9.991898e+002
5.794137e+002, 1.002346e+003
5.798958e+002, 1.006290e+003
5.803779e+002, 1.011546e+003
5.808600e+002, 1.018075e+003
5.813422e+002, 1.023502e+003
5.818243e+002, 1.024870e+003
5.823064e+002, 1.024645e+003
5.827885e+002, 1.028320e+003
5.832706e+002, 1.035882e+003
5.837527e+002, 1.044528e+003
5.842349e+002, 1.052529e+003
5.847170e+002, 1.060419e+003
5.851991e+002, 1.068853e+003
5.856812e+002, 1.078290e+003
5.861633e+002, 1.087350e+003
5.866454e+002, 1.094190e+003
5.871276e+002, 1.100803e+003
5.876097e+002, 1.109523e+003
5.880918e+002, 1.121422e+003
5.885739e+002, 1.134780e+003
5.890560e+002, 1.149395e+003
5.895381e+002, 1.165274e+003
5.900203e+002, 1.182517e+003
5.905024e+002, 1.201513e+003
5.909845e+002, 1.221129e+003
5.914666e+002, 1.240567e+003
5.919487e+002, 1.260097e+003
5.924308e+002, 1.282039e+003
5.929130e+002, 1.306782e+003
5.933951e+002, 1.331013e+003
5.938772e+002, 1.352840e+003
5.943593e+002, 1.371971e+003
5.948414e+002, 1.387877e+003
5.953235e+002, 1.400657e+003
5.958057e+002, 1.407881e+003
5.962878e+002, 1.407137e+003
5.967699e+002, 1.399301e+003
5.972520e+002, 1.385542e+003
5.977341e+002, 1.364035e+003
5.982162e+002, 1.339784e+003
5.986984e+002, 1.313789e+003
5.991805e+002, 1.287035e+003
5.996626e+002, 1.260514e+003
6.001447e+002, 1.232845e+003
6.006268e+002, 1.207129e+003
6.011089e+002, 1.184076e+003
6.015911e+002, 1.163616e+003
6.020732e+002, 1.146398e+003
6.025553e+002, 1.133548e+003
6.030374e+002, 1.122156e+003
6.035195e+002, 1.110910e+003
6.040016e+002, 1.099834e+003
6.044838e+002, 1.089424e+003
6.049659e+002, 1.079671e+003
6.054480e+002, 1.071075e+003
6.059301e+002, 1.064528e+003
6.064122e+002, 1.059656e+003
6.068943e+002, 1.055016e+003
6.073765e+002, 1.050266e+003
6.078586e+002, 1.045941e+003
6.083407e+002, 1.042774e+003
6.088228e+002, 1.040435e+003
6.093049e+002, 1.038402e+003
6.097870e+002, 1.036160e+003
6.102692e+002, 1.034429e+003
6.107513e+002, 1.034389e+003
6.112334e+002, 1.035302e+003
6.117155e+002, 1.034542e+003
6.121976e+002, 1.028580e+003
6.126797e+002, 1.023866e+003
6.131619e+002, 1.022741e+003
6.136440e+002, 1.025373e+003
6.141261e+002, 1.028077e+003
6.146082e+002, 1.031342e+003
6.150903e+002, 1.033808e+003
6.155724e+002, 1.034047e+003
6.160546e+002, 1.031999e+003
6.165367e+002, 1.031502e+003
6.170188e+002, 1.032962e+003
6.175009e+002, 1.034990e+003
6.179830e+002, 1.036091e+003
6.184651e+002, 1.036460e+003
6.189473e+002, 1.036505e+003
6.194294e+002, 1.035974e+003
6.199115e+002, 1.035954e+003
6.203936e+002, 1.038054e+003
6.208757e+002, 1.041374e+003
6.213578e+002, 1.044083e+003
6.218400e+002, 1.045178e+003
6.223221e+002, 1.045788e+003
6.228042e+002, 1.046255e+003
6.232863e+002, 1.046607e+003
6.237684e+002, 1.046914e+003
6.242505e+002, 1.046997e+003
6.247327e+002, 1.047248e+003
6.252148e+002, 1.048009e+003
6.256969e+002, 1.049411e+003
6.261790e+002, 1.049483e+003
6.266611e+002, 1.047741e+003
6.271432e+002, 1.045887e+003
6.276254e+002, 1.045624e+003
6.281075e+002, 1.046743e+003
6.285896e+002, 1.046698e+003
6.290717e+002, 1.045115e+003
6.295538e+002, 1.043227e+003
6.300359e+002, 1.042794e+003
6.305181e+002, 1.043082e+003
6.310002e+002, 1.042475e+003
6.314823e+002, 1.040117e+003
6.319644e+002, 1.037422e+003
6.324465e+002, 1.035229e+003
6.329286e+002, 1.033429e+003
6.334108e+002, 1.031821e+003
6.338929e+002, 1.029846e+003
6.343750e+002, 1.028539e+003
6.348571e+002, 1.028556e+003
6.353392e+002, 1.029666e+003
6.358214e+002, 1.030336e+003
6.363035e+002, 1.030988e+003
6.367856e+002, 1.030402e+003
6.372677e+002, 1.027520e+003
6.377498e+002, 1.022335e+003
6.382319e+002, 1.018980e+003
6.387141e+002, 1.017673e+003
6.391962e+002, 1.016792e+003
6.396783e+002, 1.014924e+003
6.401604e+002, 1.012367e+003
6.406425e+002, 1.010184e+003
6.411246e+002, 1.008522e+003
6.416068e+002, 1.007032e+003
6.420889e+002, 1.005211e+003
6.425710e+002, 1.003449e+003
6.430531e+002, 1.002371e+003
6.435352e+002, 1.002662e+003
6.440173e+002, 1.002850e+003
6.444995e+002, 1.002037e+003
6.449816e+002, 1.000792e+003
6.454637e+002, 1.000088e+003
6.459458e+002, 1.000387e+003
6.464279e+002, 1.000861e+003
6.469100e+002, 1.001571e+003
6.473922e+002, 1.002323e+003
6.478743e+002, 1.002286e+003
6.483564e+002, 1.001192e+003
6.488385e+002, 1.000103e+003
6.493206e+002, 9.995099e+002
6.498027e+002, 9.992800e+002
6.502849e+002, 9.986506e+002
6.507670e+002, 9.976413e+002
6.512491e+002, 9.971125e+002
6.517312e+002, 9.981332e+002
6.522133e+002, 9.998993e+002
6.526954e+002, 1.001341e+003
6.531776e+002, 1.002363e+003
6.536597e+002, 1.003061e+003
6.541418e+002, 1.003131e+003
6.546239e+002, 1.003145e+003
6.551060e+002, 1.003742e+003
6.555881e+002, 1.006148e+003
6.560703e+002, 1.007094e+003
6.565524e+002, 1.004556e+003
6.570345e+002, 1.001101e+003
6.575166e+002, 9.997933e+002
6.579987e+002, 1.001331e+003
6.584808e+002, 1.003100e+003
6.589630e+002, 1.005052e+003
6.594451e+002, 1.006663e+003
6.599272e+002, 1.006372e+003
6.604093e+002, 1.004262e+003
6.608914e+002, 1.002651e+003
6.613735e+002, 1.002934e+003
6.618557e+002, 1.003895e+003
6.623378e+002, 1.003194e+003
6.628199e+002, 1.001288e+003
6.633020e+002, 1.000101e+003
6.637841e+002, 1.001570e+003
6.642662e+002, 1.003538e+003
6.647484e+002, 1.004320e+003
6.652305e+002, 1.003829e+003
6.657126e+002, 1.003888e+003
6.661947e+002, 1.005444e+003
6.666768e+002, 1.007252e+003
6.671589e+002, 1.008574e+003
6.676411e+002, 1.009134e+003
6.681232e+002, 1.010223e+003
6.686053e+002, 1.012054e+003
6.690874e+002, 1.013920e+003
6.695695e+002, 1.015158e+003
6.700516e+002, 1.015749e+003
6.705338e+002, 1.015981e+003
6.710159e+002, 1.015764e+003
6.714980e+002, 1.015541e+003
6.719801e+002, 1.016003e+003
6.724622e+002, 1.016883e+003
6.729443e+002, 1.017588e+003
6.734265e+002, 1.017966e+003
6.739086e+002, 1.018143e+003
6.743907e+002, 1.017701e+003
6.748728e+002, 1.017246e+003
6.753549e+002, 1.017895e+003
6.758370e+002, 1.021877e+003
6.763192e+002, 1.024986e+003
6.768013e+002, 1.025355e+003
6.772834e+002, 1.023960e+003
6.777655e+002, 1.024250e+003
6.782476e+002, 1.026798e+003
6.787297e+002, 1.029728e+003
6.792119e+002, 1.032227e+003
6.796940e+002, 1.034481e+003
6.801761e+002, 1.037652e+003
6.806582e+002, 1.041727e+003
6.811403e+002, 1.046073e+003
6.816224e+002, 1.050081e+003
6.821046e+002, 1.054086e+003
6.825867e+002, 1.058402e+003
6.830688e+002, 1.063066e+003
6.835509e+002, 1.068568e+003
6.840330e+002, 1.075426e+003
6.845151e+002, 1.083174e+003
6.849973e+002, 1.091678e+003
6.854794e+002, 1.101454e+003
6.859615e+002, 1.110552e+003
6.864436e+002, 1.117948e+003
6.869257e+002, 1.125129e+003
6.874078e+002, 1.133187e+003
6.878900e+002, 1.142168e+003
6.883721e+002, 1.152220e+003
6.888542e+002, 1.163193e+003
6.893363e+002, 1.175348e+003
6.898184e+002, 1.189008e+003
6.903005e+002, 1.204035e+003
6.907827e+002, 1.219776e+003
6.912648e+002, 1.235966e+003
6.917469e+002, 1.252801e+003
6.922290e+002, 1.269189e+003
6.927111e+002, 1.286346e+003
6.931932e+002, 1.306541e+003
6.936754e+002, 1.333208e+003
6.941575e+002, 1.360747e+003
6.946396e+002, 1.388068e+003
6.951217e+002, 1.414225e+003
6.956038e+002, 1.436574e+003
6.960859e+002, 1.455096e+003
6.965681e+002, 1.468748e+003
6.970502e+002, 1.477925e+003
6.975323e+002, 1.482276e+003
6.980144e+002, 1.477814e+003
6.984965e+002, 1.463936e+003
6.989786e+002, 1.444064e+003
6.994608e+002, 1.419163e+003
6.999429e+002, 1.389705e+003
7.004250e+002, 1.356885e+003
7.009071e+002, 1.320750e+003
7.013892e+002, 1.285716e+003
7.018713e+002, 1.254493e+003
7.023535e+002, 1.226489e+003
7.028356e+002, 1.201297e+003
7.033177e+002, 1.178883e+003
7.037998e+002, 1.158392e+003
7.042819e+002, 1.138227e+003
7.047640e+002, 1.120397e+003
7.052462e+002, 1.106763e+003
7.057283e+002, 1.099361e+003
7.062104e+002, 1.091788e+003
7.066925e+002, 1.083730e+003
7.071746e+002, 1.075833e+003
7.076567e+002, 1.068621e+003
7.081389e+002, 1.062094e+003
7.086210e+002, 1.056959e+003
7.091031e+002, 1.053509e+003
7.095852e+002, 1.050730e+003
7.100673e+002, 1.047131e+003
7.105494e+002, 1.043137e+003
7.110316e+002, 1.039726e+003
7.115137e+002, 1.037535e+003
7.119958e+002, 1.035635e+003
7.124779e+002, 1.033379e+003
7.129600e+002, 1.030998e+003
7.134421e+002, 1.028944e+003
7.139243e+002, 1.027360e+003
7.144064e+002, 1.026139e+003
7.148885e+002, 1.025812e+003
7.153706e+002, 1.025804e+003
7.158527e+002, 1.023891e+003
7.163348e+002, 1.019120e+003
7.168170e+002, 1.015868e+003
7.172991e+002, 1.016282e+003
7.177812e+002, 1.019009e+003
7.182633e+002, 1.019549e+003
7.187454e+002, 1.018085e+003
7.192275e+002, 1.016607e+003
7.197097e+002, 1.015888e+003
7.201918e+002, 1.015961e+003
7.206739e+002, 1.017622e+003
7.211560e+002, 1.020529e+003
7.216381e+002, 1.022046e+003
7.221202e+002, 1.019587e+003
7.226024e+002, 1.016563e+003
7.230845e+002, 1.014847e+003
7.235666e+002, 1.014721e+003
7.240487e+002, 1.014542e+003
7.245308e+002, 1.014024e+003
7.250129e+002, 1.013936e+003
7.254951e+002, 1.015171e+003
7.259772e+002, 1.017848e+003
7.264593e+002, 1.018792e+003
7.269414e+002, 1.017880e+003
7.274235e+002, 1.016083e+003
7.279056e+002, 1.013115e+003
7.283878e+002, 1.010195e+003
7.288699e+002, 1.010037e+003
7.293520e+002, 1.013367e+003
7.298341e+002, 1.017022e+003
7.303162e+002, 1.019426e+003
7.307983e+002, 1.020876e+003
7.312805e+002, 1.021593e+003
7.317626e+002, 1.020669e+003
7.322447e+002, 1.020746e+003
7.327268e+002, 1.022756e+003
7.332089e+002, 1.025194e+003
7.336910e+002, 1.026360e+003
7.341732e+002, 1.026008e+003
7.346553e+002, 1.025532e+003
7.351374e+002, 1.025056e+003
7.356195e+002, 1.024596e+003
7.361016e+002, 1.024086e+003
7.365837e+002, 1.023592e+003
7.370659e+002, 1.023455e+003
7.375480e+002, 1.024073e+003
7.380301e+002, 1.024481e+003
7.385122e+002, 1.023425e+003
7.389943e+002, 1.021659e+003
7.394764e+002, 1.020487e+003
7.399586e+002, 1.021373e+003
7.404407e+002, 1.021703e+003
7.409228e+002, 1.020456e+003
7.414049e+002, 1.018308e+003
7.418870e+002, 1.016606e+003
7.423691e+002, 1.015335e+003
7.428513e+002, 1.014836e+003
7.433334e+002, 1.015626e+003
7.438155e+002, 1.016926e+003
7.442976e+002, 1.016046e+003
7.447797e+002, 1.013331e+003
7.452618e+002, 1.011716e+003
7.457440e+002, 1.014248e+003
7.462261e+002, 1.017448e+003
7.467082e+002, 1.016978e+003
7.471903e+002, 1.013761e+003
7.476724e+002, 1.011230e+003
7.481545e+002, 1.010501e+003
7.486367e+002, 1.011021e+003
7.491188e+002, 1.013427e+003
7.496009e+002, 1.017422e+003
7.500830e+002, 1.019143e+003
7.505651e+002, 1.017557e+003
7.510472e+002, 1.015897e+003
7.515294e+002, 1.015706e+003
7.520115e+002, 1.016696e+003
7.524936e+002, 1.016547e+003
7.529757e+002, 1.015272e+003
7.534578e+002, 1.014753e+003
7.539399e+002, 1.017151e+003
7.544221e+002, 1.020671e+003
7.549042e+002, 1.023064e+003
7.553863e+002, 1.024240e+003
7.558684e+002, 1.024469e+003
7.563505e+002, 1.022988e+003
7.568326e+002, 1.021318e+003
7.573148e+002, 1.020327e+003
7.577969e+002, 1.020121e+003
7.582790e+002, 1.020395e+003
7.587611e+002, 1.021416e+003
7.592432e+002, 1.022460e+003
7.597253e+002, 1.023105e+003
7.602075e+002, 1.023348e+003
7.606896e+002, 1.023124e+003
7.611717e+002, 1.022367e+003
7.616538e+002, 1.021777e+003
7.621359e+002, 1.022044e+003
7.626180e+002, 1.022865e+003
7.631002e+002, 1.023836e+003
7.635823e+002, 1.024937e+003
7.640644e+002, 1.025986e+003
7.645465e+002, 1.027315e+003
7.650286e+002, 1.028318e+003
7.655107e+002, 1.028372e+003
7.659929e+002, 1.026742e+003
7.664750e+002, 1.025909e+003
7.669571e+002, 1.026164e+003
7.674392e+002, 1.026826e+003
7.679213e+002, 1.027251e+003
7.684034e+002, 1.027427e+003
7.688856e+002, 1.027881e+003
7.693677e+002, 1.028659e+003
7.698498e+002, 1.029612e+003
7.703319e+002, 1.030496e+003
7.708140e+002, 1.031464e+003
7.712961e+002, 1.032923e+003
7.717783e+002, 1.035179e+003
7.722604e+002, 1.037114e+003
7.727425e+002, 1.037891e+003
7.732246e+002, 1.038174e+003
7.737067e+002, 1.038653e+003
7.741888e+002, 1.039291e+003
7.746710e+002, 1.040335e+003
7.751531e+002, 1.041806e+003
7.756352e+002, 1.043681e+003
7.761173e+002, 1.046329e+003
7.765994e+002, 1.049744e+003
7.770815e+002, 1.051813e+003
7.775637e+002, 1.052091e+003
7.780458e+002, 1.051585e+003
7.785279e+002, 1.050999e+003
7.790100e+002, 1.050605e+003
7.794921e+002, 1.051034e+003
7.799742e+002, 1.053148e+003
7.804564e+002, 1.054695e+003
7.809385e+002, 1.054862e+003
7.814206e+002, 1.053802e+003
7.819027e+002, 1.051542e+003
7.823848e+002, 1.046565e+003
7.828669e+002, 1.043402e+003
7.833491e+002, 1.043084e+003
7.838312e+002, 1.043855e+003
7.843133e+002, 1.042600e+003
7.847954e+002, 1.039465e+003
7.852775e+002, 1.037420e+003
7.857596e+002, 1.037461e+003
7.862418e+002, 1.038013e+003
7.867239e+002, 1.037086e+003
7.872060e+002, 1.035311e+003
7.876881e+002, 1.033789e+003
7.881702e+002, 1.032780e+003
7.886523e+002, 1.032333e+003
7.891345e+002, 1.033130e+003
7.896166e+002, 1.034341e+003
7.900987e+002, 1.034527e+003
7.905808e+002, 1.033167e+003
7.910629e+002, 1.031875e+003
7.915450e+002, 1.030717e+003
7.920272e+002, 1.029958e+003
7.925093e+002, 1.030437e+003
7.929914e+002, 1.031973e+003
7.934735e+002, 1.033039e+003
7.939556e+002, 1.033091e+003
7.944377e+002, 1.032713e+003
7.949199e+002, 1.032359e+003
7.954020e+002, 1.032049e+003
7.958841e+002, 1.031844e+003
7.963662e+002, 1.031890e+003
7.968483e+002, 1.031829e+003
7.973304e+002, 1.031161e+003
7.978126e+002, 1.030408e+003
7.982947e+002, 1.030582e+003
7.987768e+002, 1.032033e+003
7.992589e+002, 1.033330e+003
7.997410e+002, 1.034387e+003
8.002231e+002, 1.034894e+003
8.007053e+002, 1.033840e+003
8.011874e+002, 1.031647e+003
8.016695e+002, 1.030018e+003
8.021516e+002, 1.029750e+003
8.026337e+002, 1.030000e+003
8.031158e+002, 1.030018e+003
8.035980e+002, 1.030095e+003
8.040801e+002, 1.030712e+003
8.045622e+002, 1.032977e+003
8.050443e+002, 1.034627e+003
8.055264e+002, 1.035382e+003
8.060085e+002, 1.035329e+003
8.064907e+002, 1.034295e+003
8.069728e+002, 1.031954e+003
8.074549e+002, 1.030597e+003
8.079370e+002, 1.030825e+003
8.084191e+002, 1.031954e+003
8.089012e+002, 1.033231e+003
8.093834e+002, 1.034490e+003
8.098655e+002, 1.035250e+003
8.103476e+002, 1.034582e+003
8.108297e+002, 1.034429e+003
8.113118e+002, 1.036954e+003
8.117939e+002, 1.040504e+003
8.122761e+002, 1.042244e+003
8.127582e+002, 1.040616e+003
8.132403e+002, 1.038873e+003
8.137224e+002, 1.037024e+003
8.142045e+002, 1.035516e+003
8.146866e+002, 1.035549e+003
8.151688e+002, 1.037090e+003
8.156509e+002, 1.037775e+003
8.161330e+002, 1.036696e+003
8.166151e+002, 1.035377e+003
8.170972e+002, 1.035706e+003
8.175793e+002, 1.037211e+003
8.180615e+002, 1.039092e+003
8.185436e+002, 1.042480e+003
8.190257e+002, 1.044245e+003
8.195078e+002, 1.041751e+003
8.199899e+002, 1.037527e+003
8.204720e+002, 1.035486e+003
8.209542e+002, 1.036384e+003
8.214363e+002, 1.037565e+003
8.219184e+002, 1.038885e+003
8.224005e+002, 1.040029e+003
8.228826e+002, 1.040423e+003
8.233647e+002, 1.040192e+003
8.238469e+002, 1.039816e+003
8.243290e+002, 1.039312e+003
8.248111e+002, 1.039017e+003
8.252932e+002, 1.039585e+003
8.257753e+002, 1.040436e+003
8.262574e+002, 1.040744e+003
8.267396e+002, 1.039135e+003
8.272217e+002, 1.038809e+003
8.277038e+002, 1.041052e+003
8.281859e+002, 1.043878e+003
8.286681e+002, 1.044584e+003
8.291502e+002, 1.042763e+003
8.296323e+002, 1.042550e+003
8.301144e+002, 1.044809e+003
8.305966e+002, 1.047508e+003
8.310787e+002, 1.047763e+003
8.315608e+002, 1.046719e+003
8.320429e+002, 1.046796e+003
8.325250e+002, 1.048987e+003
8.330071e+002, 1.050865e+003
8.334893e+002, 1.050698e+003
8.339714e+002, 1.049847e+003
8.344535e+002, 1.049792e+003
8.349356e+002, 1.051200e+003
8.354177e+002, 1.052108e+003
8.358998e+002, 1.052387e+003
8.363820e+002, 1.052455e+003
8.368641e+002, 1.052952e+003
8.373462e+002, 1.053747e+003
8.378283e+002, 1.053657e+003
8.383104e+002, 1.052484e+003
8.387925e+002, 1.051322e+003
8.392747e+002, 1.051407e+003
8.397568e+002, 1.051870e+003
8.402389e+002, 1.051513e+003
8.407210e+002, 1.049576e+003
8.412031e+002, 1.048827e+003
8.416852e+002, 1.050834e+003
8.421674e+002, 1.053219e+003
8.426495e+002, 1.054397e+003
8.431316e+002, 1.054076e+003
8.436137e+002, 1.054394e+003
8.440958e+002, 1.055448e+003
8.445779e+002, 1.056449e+003
8.450601e+002, 1.056855e+003
8.455422e+002, 1.056674e+003
8.460243e+002, 1.055646e+003
8.465064e+002, 1.053762e+003
8.469885e+002, 1.052336e+003
8.474706e+002, 1.052590e+003
8.479528e+002, 1.053162e+003
8.484349e+002, 1.053190e+003
8.489170e+002, 1.052599e+003
8.493991e+002, 1.051950e+003
8.498812e+002, 1.051058e+003
8.503633e+002, 1.050590e+003
8.508455e+002, 1.050956e+003
8.513276e+002, 1.052084e+003
8.518097e+002, 1.054003e+003
8.522918e+002, 1.056597e+003
8.527739e+002, 1.058352e+003
8.532560e+002, 1.057361e+003
8.537382e+002, 1.055766e+003
8.542203e+002, 1.055258e+003
8.547024e+002, 1.055848e+003
8.551845e+002, 1.056662e+003
8.556666e+002, 1.058247e+003
8.561487e+002, 1.059074e+003
8.566309e+002, 1.058259e+003
8.571130e+002, 1.056267e+003
8.575951e+002, 1.055925e+003
8.580772e+002, 1.057306e+003
8.585593e+002, 1.058199e+003
8.590414e+002, 1.056768e+003
8.595236e+002, 1.054826e+003
8.600057e+002, 1.055307e+003
8.604878e+002, 1.057557e+003
8.609699e+002, 1.059466e+003
8.614520e+002, 1.060177e+003
8.619341e+002, 1.060427e+003
8.624163e+002, 1.060079e+003
8.628984e+002, 1.059499e+003
8.633805e+002, 1.059722e+003
8.638626e+002, 1.061002e+003
8.643447e+002, 1.062061e+003
8.648268e+002, 1.062573e+003
8.653090e+002, 1.062654e+003
8.657911e+002, 1.062495e+003
8.662732e+002, 1.062067e+003
8.667553e+002, 1.061262e+003
8.672374e+002, 1.059465e+003
8.677195e+002, 1.058110e+003
8.682017e+002, 1.058639e+003
8.686838e+002, 1.059957e+003
8.691659e+002, 1.060191e+003
8.696480e+002, 1.057987e+003
8.701301e+002, 1.057357e+003
8.706122e+002, 1.059289e+003
8.710944e+002, 1.061904e+003
8.715765e+002, 1.062351e+003
8.720586e+002, 1.061020e+003
8.725407e+002, 1.060151e+003
8.730228e+002, 1.060265e+003
8.735049e+002, 1.060409e+003
8.739871e+002, 1.059462e+003
8.744692e+002, 1.058243e+003
8.749513e+002, 1.057716e+003
8.754334e+002, 1.058432e+003
8.759155e+002, 1.058961e+003
8.763976e+002, 1.059195e+003
8.768798e+002, 1.059188e+003
8.773619e+002, 1.058807e+003
8.778440e+002, 1.058018e+003
8.783261e+002, 1.057988e+003
8.788082e+002, 1.058794e+003
8.792903e+002, 1.059823e+003
8.797725e+002, 1.060893e+003
8.802546e+002, 1.061691e+003
8.807367e+002, 1.061403e+003
8.812188e+002, 1.059936e+003
8.817009e+002, 1.059561e+003
8.821830e+002, 1.062696e+003
8.826652e+002, 1.065520e+003
8.831473e+002, 1.066019e+003
8.836294e+002, 1.064297e+003
8.841115e+002, 1.063130e+003
8.845936e+002, 1.062478e+003
8.850757e+002, 1.062646e+003
8.855579e+002, 1.063968e+003
8.860400e+002, 1.066129e+003
8.865221e+002, 1.069408e+003
8.870042e+002, 1.073222e+003
8.874863e+002, 1.075285e+003
8.879684e+002, 1.072613e+003
8.884506e+002, 1.069873e+003
8.889327e+002, 1.069084e+003
8.894148e+002, 1.069834e+003
8.898969e+002, 1.070859e+003
8.903790e+002, 1.072425e+003
8.908611e+002, 1.073262e+003
8.913433e+002, 1.072918e+003
8.918254e+002, 1.071875e+003
8.923075e+002, 1.070682e+003
8.927896e+002, 1.069535e+003
8.932717e+002, 1.069053e+003
8.937538e+002, 1.069883e+003
8.942360e+002, 1.070775e+003
8.947181e+002, 1.071059e+003
8.952002e+002, 1.070988e+003
8.956823e+002, 1.070911e+003
8.961644e+002, 1.070886e+003
8.966465e+002, 1.070809e+003
8.971287e+002, 1.070661e+003
8.976108e+002, 1.070512e+003
8.980929e+002, 1.070368e+003
8.985750e+002, 1.070287e+003
8.990571e+002, 1.070481e+003
8.995392e+002, 1.070986e+003
9.000214e+002, 1.071693e+003
9.005035e+002, 1.072770e+003
9.009856e+002, 1.073839e+003
9.014677e+002, 1.074461e+003
9.019498e+002, 1.074243e+003
9.024319e+002, 1.074925e+003
9.029141e+002, 1.077305e+003
9.033962e+002, 1.079143e+003
9.038783e+002, 1.078471e+003
9.043604e+002, 1.075760e+003
9.048425e+002, 1.074917e+003
9.053246e+002, 1.075833e+003
9.058068e+002, 1.076840e+003
9.062889e+002, 1.076581e+003
9.067710e+002, 1.076159e+003
9.072531e+002, 1.076806e+003
9.077352e+002, 1.078328e+003
9.082173e+002, 1.078740e+003
9.086995e+002, 1.076979e+003
9.091816e+002, 1.075400e+003
9.096637e+002, 1.074591e+003
9.101458e+002, 1.074475e+003
9.106279e+002, 1.075113e+003
9.111100e+002, 1.076390e+003
9.115922e+002, 1.077174e+003
9.120743e+002, 1.076585e+003
9.125564e+002, 1.076007e+003
9.130385e+002, 1.076786e+003
9.135206e+002, 1.078491e+003
9.140027e+002, 1.080393e+003
9.144849e+002, 1.082777e+003
9.149670e+002, 1.084714e+003
9.154491e+002, 1.086294e+003
9.159312e+002, 1.087222e+003
9.164133e+002, 1.086712e+003
9.168954e+002, 1.084873e+003
9.173776e+002, 1.083985e+003
9.178597e+002, 1.084389e+003
9.183418e+002, 1.085227e+003
9.188239e+002, 1.085671e+003
9.193060e+002, 1.086110e+003
9.197881e+002, 1.087023e+003
9.202703e+002, 1.088584e+003
9.207524e+002, 1.090096e+003
9.212345e+002, 1.091523e+003
9.217166e+002, 1.092786e+003
9.221987e+002, 1.093885e+003
9.226808e+002, 1.094816e+003
9.231630e+002, 1.095163e+003
9.236451e+002, 1.094950e+003
9.241272e+002, 1.095120e+003
9.246093e+002, 1.097572e+003
9.250914e+002, 1.099790e+003
9.255735e+002, 1.097748e+003
9.260557e+002, 1.092761e+003
9.265378e+002, 1.090963e+003
9.270199e+002, 1.097789e+003
9.275020e+002, 1.103321e+003
9.279841e+002, 1.105349e+003
9.284662e+002, 1.104782e+003
9.289484e+002, 1.103750e+003
9.294305e+002, 1.102248e+003
9.299126e+002, 1.100315e+003
9.303947e+002, 1.097564e+003
9.308768e+002, 1.095269e+003
9.313589e+002, 1.095344e+003
9.318411e+002, 1.096583e+003
9.323232e+002, 1.097260e+003
9.328053e+002, 1.096702e+003
9.332874e+002, 1.095879e+003
9.337695e+002, 1.094405e+003
9.342516e+002, 1.093301e+003
9.347338e+002, 1.094139e+003
9.352159e+002, 1.096810e+003
9.356980e+002, 1.097129e+003
9.361801e+002, 1.094754e+003
9.366622e+002, 1.092172e+003
9.371443e+002, 1.091153e+003
9.376265e+002, 1.091182e+003
9.381086e+002, 1.092031e+003
9.385907e+002, 1.093676e+003
9.390728e+002, 1.095000e+003
9.395549e+002, 1.095505e+003
9.400370e+002, 1.096072e+003
9.405192e+002, 1.097069e+003
9.410013e+002, 1.098353e+003
9.414834e+002, 1.099320e+003
9.419655e+002, 1.099986e+003
9.424476e+002, 1.100502e+003
9.429297e+002, 1.100887e+003
9.434119e+002, 1.101231e+003
9.438940e+002, 1.101423e+003
9.443761e+002, 1.101685e+003
9.448582e+002, 1.102463e+003
9.453403e+002, 1.104339e+003
9.458224e+002, 1.106036e+003
9.463046e+002, 1.107287e+003
9.467867e+002, 1.108559e+003
9.472688e+002, 1.110698e+003
9.477509e+002, 1.113518e+003
9.482330e+002, 1.115577e+003
9.487151e+002, 1.116451e+003
9.491973e+002, 1.118065e+003
9.496794e+002, 1.123059e+003
9.501615e+002, 1.128795e+003
9.506436e+002, 1.132411e+003
9.511257e+002, 1.132547e+003
9.516078e+002, 1.135768e+003
9.520900e+002, 1.143382e+003
9.525721e+002, 1.151518e+003
9.530542e+002, 1.157702e+003
9.535363e+002, 1.162664e+003
9.540184e+002, 1.169631e+003
9.545005e+002, 1.178331e+003
9.549827e+002, 1.187377e+003
9.554648e+002, 1.195874e+003
9.559469e+002, 1.204596e+003
9.564290e+002, 1.212926e+003
9.569111e+002, 1.221966e+003
9.573932e+002, 1.234668e+003
9.578754e+002, 1.252055e+003
9.583575e+002, 1.270506e+003
9.588396e+002, 1.288891e+003
9.593217e+002, 1.308768e+003
9.598038e+002, 1.333199e+003
9.602859e+002, 1.360758e+003
9.607681e+002, 1.388124e+003
9.612502e+002, 1.415494e+003
9.617323e+002, 1.438942e+003
9.622144e+002, 1.460953e+003
9.626965e+002, 1.474638e+003
9.631786e+002, 1.473641e+003
9.636608e+002, 1.456988e+003
9.641429e+002, 1.432460e+003
9.646250e+002, 1.398968e+003
9.651071e+002, 1.363689e+003
9.655892e+002, 1.330168e+003
9.660714e+002, 1.299179e+003
9.665535e+002, 1.270122e+003
9.670356e+002, 1.243653e+003
9.675177e+002, 1.221697e+003
9.679998e+002, 1.207157e+003
9.684819e+002, 1.195205e+003
9.689641e+002, 1.183841e+003
9.694462e+002, 1.173614e+003
9.699283e+002, 1.166169e+003
9.704104e+002, 1.161671e+003
9.708925e+002, 1.158242e+003
9.713746e+002, 1.155623e+003
9.718568e+002, 1.153317e+003
9.723389e+002, 1.150696e+003
9.728210e+002, 1.147939e+003
9.733031e+002, 1.145250e+003
9.737852e+002, 1.142522e+003
9.742673e+002, 1.140351e+003
9.747495e+002, 1.139421e+003
9.752316e+002, 1.138402e+003
9.757137e+002, 1.136144e+003
9.761958e+002, 1.132623e+003
9.766779e+002, 1.130430e+003
9.771600e+002, 1.129545e+003
9.776422e+002, 1.129043e+003
9.781243e+002, 1.128422e+003
9.786064e+002, 1.127748e+003
9.790885e+002, 1.126958e+003
9.795706e+002, 1.126137e+003
9.800527e+002, 1.125660e+003
9.805349e+002, 1.125569e+003
9.810170e+002, 1.125998e+003
9.814991e+002, 1.127473e+003
9.819812e+002, 1.128880e+003
9.824633e+002, 1.127244e+003
9.829454e+002, 1.123450e+003
9.834276e+002, 1.121352e+003
9.839097e+002, 1.122379e+003
9.843918e+002, 1.123596e+003
9.848739e+002, 1.122753e+003
9.853560e+002, 1.121278e+003
9.858381e+002, 1.120711e+003
9.863203e+002, 1.121577e+003
9.868024e+002, 1.121272e+003
9.872845e+002, 1.119506e+003
9.877666e+002, 1.117557e+003
9.882487e+002, 1.116188e+003
9.887308e+002, 1.115335e+003
9.892130e+002, 1.114838e+003
9.896951e+002, 1.114701e+003
9.901772e+002, 1.114924e+003
9.906593e+002, 1.115922e+003
9.911414e+002, 1.116824e+003
9.916235e+002, 1.117390e+003
9.921057e+002, 1.117591e+003
9.925878e+002, 1.117185e+003
9.930699e+002, 1.116068e+003
9.935520e+002, 1.115441e+003
9.940341e+002, 1.115614e+003
9.945162e+002, 1.116026e+003
9.949984e+002, 1.115915e+003
9.954805e+002, 1.115675e+003
9.959626e+002, 1.115920e+003
9.964447e+002, 1.116942e+003
9.969268e+002, 1.117672e+003
9.974089e+002, 1.117908e+003
9.978911e+002, 1.117896e+003
9.983732e+002, 1.117744e+003
9.988553e+002, 1.117468e+003
9.993374e+002, 1.116895e+003
9.998195e+002, 1.116121e+003
1.000302e+003, 1.116000e+003
1.000784e+003, 1.117709e+003
1.001266e+003, 1.119596e+003
1.001748e+003, 1.120481e+003
1.002230e+003, 1.120686e+003
1.002712e+003, 1.120987e+003
1.003194e+003, 1.121031e+003
1.003676e+003, 1.122394e+003
1.004159e+003, 1.125787e+003
1.004641e+003, 1.129308e+003
1.005123e+003, 1.130096e+003
1.005605e+003, 1.129119e+003
1.006087e+003, 1.128623e+003
1.006569e+003, 1.128972e+003
1.007051e+003, 1.129556e+003
1.007533e+003, 1.130548e+003
1.008016e+003, 1.131215e+003
1.008498e+003, 1.130848e+003
1.008980e+003, 1.129582e+003
1.009462e+003, 1.129998e+003
1.009944e+003, 1.132220e+003
1.010426e+003, 1.134126e+003
1.010908e+003, 1.134355e+003
1.011390e+003, 1.134116e+003
1.011872e+003, 1.134714e+003
1.012355e+003, 1.135965e+003
1.012837e+003, 1.137475e+003
1.013319e+003, 1.140207e+003
1.013801e+003, 1.141523e+003
1.014283e+003, 1.140380e+003
1.014765e+003, 1.139047e+003
1.015247e+003, 1.140473e+003
1.015729e+003, 1.144074e+003
1.016211e+003, 1.146634e+003
1.016694e+003, 1.147899e+003
1.017176e+003, 1.148151e+003
1.017658e+003, 1.146587e+003
1.018140e+003, 1.144950e+003
1.018622e+003, 1.144832e+003
1.019104e+003, 1.145962e+003
1.019586e+003, 1.145492e+003
1.020068e+003, 1.142948e+003
1.020551e+003, 1.140762e+003
1.021033e+003, 1.139777e+003
1.021515e+003, 1.139377e+003
1.021997e+003, 1.138374e+003
1.022479e+003, 1.137260e+003
1.022961e+003, 1.137083e+003
1.023443e+003, 1.138763e+003
1.023925e+003, 1.140007e+003
1.024407e+003, 1.139405e+003
1.024890e+003, 1.139018e+003
1.025372e+003, 1.140839e+003
1.025854e+003, 1.144842e+003
1.026336e+003, 1.146121e+003
1.026818e+003, 1.144744e+003
1.027300e+003, 1.143938e+003
1.027782e+003, 1.146561e+003
1.028264e+003, 1.150051e+003
1.028746e+003, 1.152312e+003
1.029229e+003, 1.153686e+003
1.029711e+003, 1.155752e+003
1.030193e+003, 1.158726e+003
1.030675e+003, 1.162016e+003
1.031157e+003, 1.165430e+003
1.031639e+003, 1.169357e+003
1.032121e+003, 1.174357e+003
1.032603e+003, 1.180399e+003
1.033086e+003, 1.187144e+003
1.033568e+003, 1.194535e+003
1.034050e+003, 1.203122e+003
1.034532e+003, 1.214181e+003
1.035014e+003, 1.225370e+003
1.035496e+003, 1.234983e+003
1.035978e+003, 1.243272e+003
1.036460e+003, 1.253879e+003
1.036943e+003, 1.266631e+003
1.037425e+003, 1.281569e+003
1.037907e+003, 1.299162e+003
1.038389e+003, 1.318151e+003
1.038871e+003, 1.336210e+003
1.039353e+003, 1.354975e+003
1.039835e+003, 1.377124e+003
1.040317e+003, 1.405334e+003
1.040799e+003, 1.432785e+003
1.041281e+003, 1.459440e+003
1.041764e+003, 1.485627e+003
1.042246e+003, 1.513568e+003
1.042728e+003, 1.541113e+003
1.043210e+003, 1.562708e+003
1.043692e+003, 1.578110e+003
1.044174e+003, 1.585999e+003
1.044656e+003, 1.585613e+003
1.045138e+003, 1.577657e+003
1.045621e+003, 1.562303e+003
1.046103e+003, 1.540205e+003
1.046585e+003, 1.510588e+003
1.047067e+003, 1.473435e+003
1.047549e+003, 1.435997e+003
1.048031e+003, 1.399891e+003
1.048513e+003, 1.366437e+003
1.048995e+003, 1.337354e+003
1.049478e+003, 1.312190e+003
1.049960e+003, 1.290629e+003
1.050442e+003, 1.273217e+003
1.050924e+003, 1.258023e+003
1.051406e+003, 1.245047e+003
1.051888e+003, 1.233764e+003
1.052370e+003, 1.223606e+003
1.052852e+003, 1.214856e+003
1.053334e+003, 1.208649e+003
1.053817e+003, 1.204540e+003
1.054299e+003, 1.201089e+003
1.054781e+003, 1.197546e+003
1.055263e+003, 1.194666e+003
1.055745e+003, 1.193023e+003
1.056227e+003, 1.191816e+003
1.056709e+003, 1.190198e+003
1.057191e+003, 1.188159e+003
1.057673e+003, 1.185788e+003
1.058156e+003, 1.183039e+003
1.058638e+003, 1.180977e+003
1.059120e+003, 1.180680e+003
1.059602e+003, 1.181256e+003
1.060084e+003, 1.182077e+003
1.060566e+003, 1.183132e+003
1.061048e+003, 1.184509e+003
1.061530e+003, 1.186357e+003
1.062013e+003, 1.188220e+003
1.062495e+003, 1.190094e+003
1.062977e+003, 1.191749e+003
1.063459e+003, 1.192383e+003
1.063941e+003, 1.192659e+003
1.064423e+003, 1.193928e+003
1.064905e+003, 1.196694e+003
1.065387e+003, 1.199708e+003
1.065870e+003, 1.202306e+003
1.066352e+003, 1.205308e+003
1.066834e+003, 1.209152e+003
1.067316e+003, 1.213765e+003
1.067798e+003, 1.219190e+003
1.068280e+003, 1.225328e+003
1.068762e+003, 1.231173e+003
1.069244e+003, 1.236042e+003
1.069726e+003, 1.240711e+003
1.070208e+003, 1.246214e+003
1.070691e+003, 1.251513e+003
1.071173e+003, 1.254745e+003
1.071655e+003, 1.255250e+003
1.072137e+003, 1.256383e+003
1.072619e+003, 1.258516e+003
1.073101e+003, 1.260253e+003
1.073583e+003, 1.260688e+003
1.074065e+003, 1.259748e+003
1.074548e+003, 1.256757e+003
1.075030e+003, 1.252024e+003
1.075512e+003, 1.247727e+003
1.075994e+003, 1.244451e+003
1.076476e+003, 1.241784e+003
1.076958e+003, 1.240194e+003
1.077440e+003, 1.238475e+003
1.077922e+003, 1.233685e+003
1.078405e+003, 1.226864e+003
1.078887e+003, 1.221444e+003
1.079369e+003, 1.218204e+003
1.079851e+003, 1.215499e+003
1.080333e+003, 1.213125e+003
1.080815e+003, 1.210316e+003
1.081297e+003, 1.206251e+003
1.081779e+003, 1.201193e+003
1.082261e+003, 1.198531e+003
1.082744e+003, 1.198214e+003
1.083226e+003, 1.197685e+003
1.083708e+003, 1.195791e+003
1.084190e+003, 1.193231e+003
1.084672e+003, 1.190084e+003
1.085154e+003, 1.186902e+003
1.085636e+003, 1.184630e+003
1.086118e+003, 1.184258e+003
1.086601e+003, 1.182406e+003
1.087083e+003, 1.178724e+003
1.087565e+003, 1.174840e+003
1.088047e+003, 1.172339e+003
1.088529e+003, 1.170381e+003
1.089011e+003, 1.167068e+003
1.089493e+003, 1.162837e+003
1.089975e+003, 1.159497e+003
1.090458e+003, 1.158036e+003
1.090940e+003, 1.157289e+003
1.091422e+003, 1.157261e+003
1.091904e+003, 1.157549e+003
1.092386e+003, 1.157867e+003
1.092868e+003, 1.158019e+003
1.093350e+003, 1.156681e+003
1.093832e+003, 1.153626e+003
1.094314e+003, 1.151361e+003
1.094797e+003, 1.152054e+003
1.095279e+003, 1.153407e+003
1.095761e+003, 1.154266e+003
1.096243e+003, 1.154623e+003
1.096725e+003, 1.154410e+003
1.097207e+003, 1.153599e+003
1.097689e+003, 1.153115e+003
1.098171e+003, 1.153217e+003
1.098653e+003, 1.153757e+003
1.099136e+003, 1.155229e+003
1.099618e+003, 1.156689e+003
1.100100e+003, 1.156861e+003
1.100582e+003, 1.155112e+003
1.101064e+003, 1.154632e+003
1.101546e+003, 1.155922e+003
1.102028e+003, 1.156549e+003
1.102510e+003, 1.154289e+003
1.102993e+003, 1.151311e+003
1.103475e+003, 1.151979e+003
1.103957e+003, 1.154924e+003
1.104439e+003, 1.157062e+003
1.104921e+003, 1.157755e+003
1.105403e+003, 1.156700e+003
1.105885e+003, 1.152936e+003
1.106367e+003, 1.149130e+003
1.106849e+003, 1.148067e+003
1.107332e+003, 1.149136e+003
1.107814e+003, 1.150336e+003
1.108296e+003, 1.151467e+003
1.108778e+003, 1.151512e+003
1.109260e+003, 1.148786e+003
1.109742e+003, 1.146224e+003
1.110224e+003, 1.145040e+003
1.110706e+003, 1.144764e+003
1.111188e+003, 1.144760e+003
1.111671e+003, 1.145024e+003
1.112153e+003, 1.145035e+003
1.112635e+003, 1.144719e+003
1.113117e+003, 1.144321e+003
1.113599e+003, 1.142889e+003
1.114081e+003, 1.142415e+003
1.114563e+003, 1.145462e+003
1.115045e+003, 1.151444e+003
1.115528e+003, 1.155130e+003
1.116010e+003, 1.156291e+003
1.116492e+003, 1.156539e+003
1.116974e+003, 1.156226e+003
1.117456e+003, 1.155402e+003
1.117938e+003, 1.153057e+003
1.118420e+003, 1.150726e+003
1.118902e+003, 1.150722e+003
1.119385e+003, 1.154256e+003
1.119867e+003, 1.156403e+003
1.120349e+003, 1.156395e+003
1.120831e+003, 1.156504e+003
1.121313e+003, 1.158319e+003
1.121795e+003, 1.160606e+003
1.122277e+003, 1.160576e+003
1.122759e+003, 1.158935e+003
1.123241e+003, 1.157329e+003
1.123724e+003, 1.155857e+003
1.124206e+003, 1.155448e+003
1.124688e+003, 1.156998e+003
1.125170e+003, 1.158580e+003
1.125652e+003, 1.158460e+003
1.126134e+003, 1.157032e+003
1.126616e+003, 1.155618e+003
1.127098e+003, 1.154471e+003
1.127580e+003, 1.154847e+003
1.128063e+003, 1.159056e+003
1.128545e+003, 1.163067e+003
1.129027e+003, 1.165777e+003
1.129509e+003, 1.166926e+003
1.129991e+003, 1.165236e+003
1.130473e+003, 1.160810e+003
1.130955e+003, 1.158256e+003
1.131437e+003, 1.157959e+003
1.131920e+003, 1.159097e+003
1.132402e+003, 1.162900e+003
1.132884e+003, 1.166174e+003
1.133366e+003, 1.165931e+003
1.133848e+003, 1.163261e+003
1.134330e+003, 1.162355e+003
1.134812e+003, 1.163453e+003
1.135294e+003, 1.164218e+003
1.135776e+003, 1.164042e+003
1.136259e+003, 1.164076e+003
1.136741e+003, 1.166358e+003
1.137223e+003, 1.168905e+003
1.137705e+003, 1.169356e+003
1.138187e+003, 1.167317e+003
1.138669e+003, 1.166584e+003
1.139151e+003, 1.167655e+003
1.139633e+003, 1.168357e+003
1.140115e+003, 1.167826e+003
1.140598e+003, 1.166810e+003
1.141080e+003, 1.166279e+003
1.141562e+003, 1.166072e+003
1.142044e+003, 1.165987e+003
1.142526e+003, 1.166130e+003
1.143008e+003, 1.165821e+003
1.143490e+003, 1.164755e+003
1.143972e+003, 1.163860e+003
1.144455e+003, 1.163577e+003
1.144937e+003, 1.163859e+003
1.145419e+003, 1.165166e+003
1.145901e+003, 1.166905e+003
1.146383e+003, 1.167523e+003
1.146865e+003, 1.165231e+003
1.147347e+003, 1.163848e+003
1.147829e+003, 1.164424e+003
1.148312e+003, 1.165284e+003
1.148794e+003, 1.164899e+003
1.149276e+003, 1.163631e+003
1.149758e+003, 1.163422e+003
1.150240e+003, 1.164074e+003
1.150722e+003, 1.164482e+003
1.151204e+003, 1.163829e+003
1.151686e+003, 1.163135e+003
1.152168e+003, 1.162230e+003
1.152651e+003, 1.161885e+003
1.153133e+003, 1.163635e+003
1.153615e+003, 1.167132e+003
1.154097e+003, 1.168417e+003
1.154579e+003, 1.167307e+003
1.155061e+003, 1.166299e+003
1.155543e+003, 1.167301e+003
1.156025e+003, 1.168522e+003
1.156507e+003, 1.168839e+003
1.156990e+003, 1.168731e+003
1.157472e+003, 1.169348e+003
1.157954e+003, 1.170697e+003
1.158436e+003, 1.170634e+003
1.158918e+003, 1.168718e+003
1.159400e+003, 1.167201e+003
1.159882e+003, 1.168453e+003
1.160364e+003, 1.170347e+003
1.160847e+003, 1.171389e+003
1.161329e+003, 1.171626e+003
1.161811e+003, 1.171466e+003
1.162293e+003, 1.170833e+003
1.162775e+003, 1.170855e+003
1.163257e+003, 1.172010e+003
1.163739e+003, 1.173097e+003
1.164221e+003, 1.172739e+003
1.164703e+003, 1.171829e+003
1.165186e+003, 1.171158e+003
1.165668e+003, 1.170826e+003
1.166150e+003, 1.171121e+003
1.166632e+003, 1.172256e+003
1.167114e+003, 1.172808e+003
1.167596e+003, 1.172065e+003
1.168078e+003, 1.170941e+003
1.168560e+003, 1.170251e+003
1.169042e+003, 1.170093e+003
1.169525e+003, 1.170638e+003
1.170007e+003, 1.172033e+003
1.170489e+003, 1.173869e+003
1.170971e+003, 1.176289e+003
1.171453e+003, 1.178678e+003
1.171935e+003, 1.181207e+003
1.172417e+003, 1.182949e+003
1.172899e+003, 1.181263e+003
1.173382e+003, 1.178040e+003
1.173864e+003, 1.176857e+003
1.174346e+003, 1.180320e+003
1.174828e+003, 1.182142e+003
1.175310e+003, 1.181659e+003
1.175792e+003, 1.181091e+003
1.176274e+003, 1.182645e+003
1.176756e+003, 1.184837e+003
1.177239e+003, 1.184178e+003
1.177721e+003, 1.181825e+003
1.178203e+003, 1.180783e+003
1.178685e+003, 1.183704e+003
1.179167e+003, 1.185574e+003
1.179649e+003, 1.186210e+003
1.180131e+003, 1.185651e+003
1.180613e+003, 1.183089e+003
1.181095e+003, 1.179715e+003
1.181578e+003, 1.178156e+003
1.182060e+003, 1.178281e+003
1.182542e+003, 1.179162e+003
1.183024e+003, 1.181491e+003
1.183506e+003, 1.183032e+003
1.183988e+003, 1.183214e+003
1.184470e+003, 1.183001e+003
1.184952e+003, 1.183463e+003
1.185434e+003, 1.184417e+003
1.185917e+003, 1.185597e+003
1.186399e+003, 1.186897e+003
1.186881e+003, 1.187802e+003
1.187363e+003, 1.187498e+003
1.187845e+003, 1.187499e+003
1.188327e+003, 1.188092e+003
1.188809e+003, 1.189135e+003
1.189291e+003, 1.191131e+003
1.189774e+003, 1.193334e+003
1.190256e+003, 1.192866e+003
1.190738e+003, 1.189459e+003
1.191220e+003, 1.187291e+003
1.191702e+003, 1.189597e+003
1.192184e+003, 1.191673e+003
1.192666e+003, 1.191966e+003
1.193148e+003, 1.191327e+003
1.193630e+003, 1.191464e+003
1.194113e+003, 1.192140e+003
1.194595e+003, 1.192401e+003
1.195077e+003, 1.192036e+003
1.195559e+003, 1.192113e+003
1.196041e+003, 1.193638e+003
1.196523e+003, 1.195162e+003
1.197005e+003, 1.196220e+003
1.197487e+003, 1.196825e+003
1.197969e+003, 1.196898e+003
1.198452e+003, 1.196525e+003
1.198934e+003, 1.195870e+003
1.199416e+003, 1.194766e+003
1.199898e+003, 1.194437e+003
1.200380e+003, 1.196305e+003
1.200862e+003, 1.198132e+003
1.201344e+003, 1.198919e+003
1.201826e+003, 1.198804e+003
1.202309e+003, 1.198038e+003
1.202791e+003, 1.196778e+003
1.203273e+003, 1.195602e+003
1.203755e+003, 1.194523e+003
1.204237e+003, 1.194078e+003
1.204719e+003, 1.195512e+003
1.205201e+003, 1.196644e+003
1.205683e+003, 1.195885e+003
1.206166e+003, 1.193932e+003
1.206648e+003, 1.194187e+003
1.207130e+003, 1.196178e+003
1.207612e+003, 1.197910e+003
1.208094e+003, 1.198666e+003
1.208576e+003, 1.198995e+003
1.209058e+003, 1.198951e+003
1.209540e+003, 1.198648e+003
1.210022e+003, 1.197898e+003
1.210505e+003, 1.196906e+003
1.210987e+003, 1.197279e+003
1.211469e+003, 1.198743e+003
1.211951e+003, 1.200028e+003
1.212433e+003, 1.200761e+003
1.212915e+003, 1.200926e+003
1.213397e+003, 1.199479e+003
1.213879e+003, 1.198474e+003
1.214361e+003, 1.199935e+003
1.214844e+003, 1.203339e+003
1.215326e+003, 1.204910e+003
1.215808e+003, 1.204850e+003
1.216290e+003, 1.204261e+003
1.216772e+003, 1.202929e+003
1.217254e+003, 1.202135e+003
1.217736e+003, 1.202419e+003
1.218218e+003, 1.203201e+003
1.218701e+003, 1.204324e+003
1.219183e+003, 1.205602e+003
1.219665e+003, 1.205433e+003
1.220147e+003, 1.204128e+003
1.220629e+003, 1.203436e+003
1.221111e+003, 1.204876e+003
1.221593e+003, 1.206205e+003
1.222075e+003, 1.206886e+003
1.222557e+003, 1.207147e+003
1.223040e+003, 1.207009e+003
1.223522e+003, 1.206636e+003
1.224004e+003, 1.207193e+003
1.224486e+003, 1.208428e+003
1.224968e+003, 1.208651e+003
1.225450e+003, 1.205733e+003
1.225932e+003, 1.203470e+003
1.226414e+003, 1.202832e+003
1.226896e+003, 1.203030e+003
1.227379e+003, 1.203294e+003
1.227861e+003, 1.203613e+003
1.228343e+003, 1.203943e+003
1.228825e+003, 1.204297e+003
1.229307e+003, 1.204813e+003
1.229789e+003, 1.205505e+003
1.230271e+003, 1.206512e+003
1.230753e+003, 1.208245e+003
1.231236e+003, 1.209709e+003
1.231718e+003, 1.209239e+003
1.232200e+003, 1.207559e+003
1.232682e+003, 1.206691e+003
1.233164e+003, 1.206682e+003
1.233646e+003, 1.206657e+003
1.234128e+003, 1.206585e+003
1.234610e+003, 1.205861e+003
1.235093e+003, 1.203858e+003
1.235575e+003, 1.202142e+003
1.236057e+003, 1.203388e+003
1.236539e+003, 1.206351e+003
1.237021e+003, 1.208340e+003
1.237503e+003, 1.209168e+003
1.237985e+003, 1.209653e+003
1.238467e+003, 1.209648e+003
1.238949e+003, 1.209852e+003
1.239432e+003, 1.210256e+003
1.239914e+003, 1.211158e+003
1.240396e+003, 1.213512e+003
1.240878e+003, 1.216415e+003
1.241360e+003, 1.217993e+003
1.241842e+003, 1.218197e+003
1.242324e+003, 1.218707e+003
1.242806e+003, 1.220399e+003
1.243288e+003, 1.221245e+003
1.243771e+003, 1.220697e+003
1.244253e+003, 1.219629e+003
1.244735e+003, 1.218626e+003
1.245217e+003, 1.218154e+003
1.245699e+003, 1.219436e+003
1.246181e+003, 1.222402e+003
1.246663e+003, 1.223913e+003
1.247145e+003, 1.223313e+003
1.247628e+003, 1.222340e+003
1.248110e+003, 1.221068e+003
1.248592e+003, 1.220583e+003
1.249074e+003, 1.223777e+003
1.249556e+003, 1.227564e+003
1.250038e+003, 1.227605e+003
1.250520e+003, 1.223820e+003
1.251002e+003, 1.222375e+003
1.251484e+003, 1.224062e+003
1.251967e+003, 1.225602e+003
1.252449e+003, 1.226413e+003
1.252931e+003, 1.226251e+003
1.253413e+003, 1.223593e+003
1.253895e+003, 1.220758e+003
1.254377e+003, 1.220531e+003
1.254859e+003, 1.222811e+003
1.255341e+003, 1.223938e+003
1.255823e+003, 1.223770e+003
1.256306e+003, 1.223422e+003
1.256788e+003, 1.222980e+003
1.257270e+003, 1.223266e+003
1.257752e+003, 1.226164e+003
1.258234e+003, 1.229209e+003
1.258716e+003, 1.229695e+003
1.259198e+003, 1.228293e+003
1.259680e+003, 1.228823e+003
1.260163e+003, 1.231313e+003
1.260645e+003, 1.232246e+003
1.261127e+003, 1.230618e+003
1.261609e+003, 1.228810e+003
1.262091e+003, 1.229388e+003
1.262573e+003, 1.229671e+003
1.263055e+003, 1.227002e+003
1.263537e+003, 1.222790e+003
1.264020e+003, 1.222793e+003
1.264502e+003, 1.226362e+003
1.264984e+003, 1.228488e+003
1.265466e+003, 1.227916e+003
1.265948e+003, 1.226681e+003
1.266430e+003, 1.225458e+003
1.266912e+003, 1.224411e+003
1.267394e+003, 1.223383e+003
1.267876e+003, 1.222706e+003
1.268359e+003, 1.223798e+003
1.268841e+003, 1.226039e+003
1.269323e+003, 1.226996e+003
1.269805e+003, 1.225974e+003
1.270287e+003, 1.225113e+003
1.270769e+003, 1.225690e+003
1.271251e+003, 1.226066e+003
1.271733e+003, 1.225531e+003
1.272215e+003, 1.224690e+003
1.272698e+003, 1.225178e+003
1.273180e+003, 1.226334e+003
1.273662e+003, 1.226338e+003
1.274144e+003, 1.224621e+003
1.274626e+003, 1.224448e+003
1.275108e+003, 1.227302e+003
1.275590e+003, 1.229878e+003
1.276072e+003, 1.231147e+003
1.276555e+003, 1.231524e+003
1.277037e+003, 1.231145e+003
1.277519e+003, 1.230557e+003
1.278001e+003, 1.230590e+003
1.278483e+003, 1.231395e+003
1.278965e+003, 1.232698e+003
1.279447e+003, 1.234897e+003
1.279929e+003, 1.235630e+003
1.280411e+003, 1.233638e+003
1.280894e+003, 1.231395e+003
1.281376e+003, 1.232324e+003
1.281858e+003, 1.234433e+003
1.282340e+003, 1.235514e+003
1.282822e+003, 1.235392e+003
1.283304e+003, 1.234857e+003
1.283786e+003, 1.233729e+003
1.284268e+003, 1.234739e+003
1.284750e+003, 1.239428e+003
1.285233e+003, 1.243115e+003
1.285715e+003, 1.239339e+003
1.286197e+003, 1.234568e+003
1.286679e+003, 1.234854e+003
1.287161e+003, 1.238847e+003
1.287643e+003, 1.240238e+003
1.288125e+003, 1.239236e+003
1.288607e+003, 1.238335e+003
1.289090e+003, 1.238106e+003
1.289572e+003, 1.238255e+003
1.290054e+003, 1.238484e+003
1.290536e+003, 1.239265e+003
1.291018e+003, 1.241066e+003
1.291500e+003, 1.243334e+003
1.291982e+003, 1.244368e+003
1.292464e+003, 1.244513e+003
1.292947e+003, 1.245099e+003
1.293429e+003, 1.246418e+003
1.293911e+003, 1.247673e+003
1.294393e+003, 1.248083e+003
1.294875e+003, 1.248954e+003
1.295357e+003, 1.250688e+003
1.295839e+003, 1.252928e+003
1.296321e+003, 1.256124e+003
1.296803e+003, 1.259153e+003
1.297286e+003, 1.259076e+003
1.297768e+003, 1.255273e+003
1.298250e+003, 1.253755e+003
1.298732e+003, 1.256567e+003
1.299214e+003, 1.257659e+003
1.299696e+003, 1.254939e+003
1.300178e+003, 1.251713e+003
1.300660e+003, 1.251551e+003
##END=



