##NAMES=Xonotlite
##RRUFFID=R180003
##IDEAL CHEMISTRY=Ca_6_Si_6_O_17_(OH)_2_
##LOCALITY=Nchwaning III mine, Kuruman, Kalahari manganese field, Northern Cape Province, South Africa
##OWNER=RRUFF
##SOURCE=Jaco and Tania Janse van Nieuwenhuizen
##DESCRIPTION=Sprays of colorless prismatic crystals
##STATUS=The identification of this mineral has been confirmed by single-crystal X-ray diffraction.
##URL=rruff.info/R180003
128.0798, 0.0000000E+00
128.5620, 0.5564580
129.0441, 1.006073
129.5262, 1.323883
130.0083, 1.494385
130.4904, 1.556580
130.9725, 1.427399
131.4547, 1.238434
131.9368, 1.275208
132.4189, 1.608215
132.9010, 2.009491
133.3831, 2.310654
133.8652, 2.499451
134.3474, 2.858871
134.8295, 3.432053
135.3116, 4.118378
135.7937, 4.735718
136.2758, 5.246216
136.7579, 5.668442
137.2401, 6.183441
137.7222, 7.435120
138.2043, 8.339691
138.6864, 8.446518
139.1685, 7.946686
139.6507, 6.976563
140.1328, 5.522034
140.6149, 3.604355
141.0970, 2.049820
141.5791, 1.104721
142.0612, 0.5039370
142.5434, 0.2789760
143.0255, 0.3001560
143.5076, 0.4283450
143.9897, 0.4369510
144.4718, 0.2241970
144.9539, 0.2618260
145.4361, 0.9868930
145.9182, 1.668335
146.4003, 1.707336
146.8824, 1.122742
147.3645, 0.5797580
147.8466, 0.7234190
148.3288, 1.301773
148.8109, 1.510834
149.2930, 1.518967
149.7751, 1.582581
150.2572, 1.829102
150.7393, 2.532532
151.2215, 3.371567
151.7036, 4.093918
152.1857, 4.802780
152.6678, 5.489761
153.1499, 6.375320
153.6320, 7.329453
154.1142, 7.750977
154.5963, 7.234543
155.0784, 6.316223
155.5605, 5.661072
156.0426, 5.325806
156.5247, 5.177994
157.0069, 5.250839
157.4890, 5.533813
157.9711, 5.596222
158.4532, 5.075577
158.9353, 4.531845
159.4174, 4.390640
159.8996, 4.712967
160.3817, 5.105270
160.8638, 5.173416
161.3459, 4.911438
161.8280, 4.438034
162.3102, 3.496902
162.7923, 2.539597
163.2744, 1.893082
163.7565, 1.640900
164.2386, 1.619431
164.7207, 1.526688
165.2029, 1.403214
165.6850, 1.121109
166.1671, 0.4634400
166.6492, 0.2348630
167.1313, 0.6907040
167.6134, 0.7734990
168.0956, 0.5533140
168.5777, 0.2279050
169.0598, 0.5613400
169.5419, 1.040344
170.0240, 0.9730220
170.5061, 0.5983730
170.9883, 0.2530980
171.4704, 0.1118160
171.9525, 0.1069340
172.4346, 5.5252001E-02
172.9167, 0.6472930
173.3988, 1.068207
173.8810, 1.067017
174.3631, 0.7439880
174.8452, 0.3368380
175.3273, 7.0770003E-02
175.8094, 0.4361880
176.2915, 0.6469570
176.7737, 0.6701970
177.2558, 0.5901340
177.7379, 0.4079590
178.2200, 0.1365200
178.7021, 0.1067660
179.1842, 0.2611240
179.6664, 0.3369900
180.1485, 0.3740540
180.6306, 0.4101560
181.1127, 0.3707280
181.5948, 0.1461790
182.0769, 0.2877040
182.5591, 0.7639620
183.0412, 1.253326
183.5233, 1.718292
184.0054, 2.115341
184.4875, 2.431946
184.9696, 2.673370
185.4518, 2.807022
185.9339, 3.090073
186.4160, 3.496155
186.8981, 4.267624
187.3802, 5.175919
187.8623, 5.936508
188.3445, 6.371841
188.8266, 6.618362
189.3087, 7.157394
189.7908, 8.291565
190.2729, 9.295074
190.7550, 9.748306
191.2372, 10.02937
191.7193, 10.70064
192.2014, 12.14957
192.6835, 14.21169
193.1656, 15.76237
193.6477, 16.08403
194.1299, 16.58607
194.6120, 17.62434
195.0941, 18.99635
195.5762, 20.32310
196.0583, 21.33459
196.5404, 22.06050
197.0226, 23.07175
197.5047, 24.73398
197.9868, 26.26871
198.4689, 27.48158
198.9510, 28.39421
199.4331, 29.07048
199.9153, 29.53230
200.3974, 29.79042
200.8795, 30.15231
201.3616, 30.74298
201.8437, 31.28865
202.3258, 31.80615
202.8080, 32.21997
203.2901, 32.27635
203.7722, 31.71344
204.2543, 30.55756
204.7364, 29.53543
205.2185, 28.64095
205.7007, 27.86975
206.1828, 27.28427
206.6649, 26.86884
207.1470, 26.49709
207.6291, 26.14604
208.1112, 25.76268
208.5934, 25.15666
209.0755, 24.21901
209.5576, 23.12779
210.0397, 22.00385
210.5218, 20.84187
211.0039, 19.70982
211.4861, 18.55531
211.9682, 17.47991
212.4503, 16.68588
212.9324, 16.38311
213.4145, 16.26168
213.8967, 15.90362
214.3788, 15.24065
214.8609, 14.68006
215.3430, 14.60793
215.8251, 14.74277
216.3072, 14.73359
216.7894, 14.39247
217.2715, 13.92258
217.7536, 13.67299
218.2357, 13.69574
218.7178, 13.79528
219.1999, 13.93856
219.6821, 14.08534
220.1642, 14.17321
220.6463, 14.14462
221.1284, 14.07947
221.6105, 14.17677
222.0926, 14.51037
222.5748, 14.88350
223.0569, 15.25301
223.5390, 15.62104
224.0211, 15.93875
224.5032, 16.12152
224.9853, 16.28476
225.4675, 16.84711
225.9496, 18.21566
226.4317, 19.41965
226.9138, 20.24864
227.3959, 20.78400
227.8780, 21.11778
228.3602, 21.27472
228.8423, 21.32243
229.3244, 21.50011
229.8065, 22.03681
230.2886, 22.38347
230.7707, 22.41956
231.2529, 22.23016
231.7350, 21.88739
232.2171, 21.43018
232.6992, 20.93407
233.1813, 20.62918
233.6634, 20.86240
234.1456, 20.82033
234.6277, 20.26178
235.1098, 19.45853
235.5919, 18.74373
236.0740, 18.26829
236.5561, 17.90491
237.0383, 17.29491
237.5204, 16.13799
238.0025, 15.09386
238.4846, 14.21166
238.9667, 13.46195
239.4488, 12.87355
239.9310, 12.46291
240.4131, 12.10113
240.8952, 11.47233
241.3773, 10.15160
241.8594, 9.139679
242.3415, 8.746628
242.8237, 8.647232
243.3058, 8.417366
243.7879, 7.889343
244.2700, 7.221725
244.7521, 6.762497
245.2342, 6.685287
245.7164, 6.447815
246.1985, 5.739548
246.6806, 4.886414
247.1627, 4.382545
247.6448, 4.413879
248.1269, 4.687012
248.6091, 4.666275
249.0912, 4.255219
249.5733, 3.940491
250.0554, 3.916382
250.5375, 4.022606
251.0196, 4.006569
251.5018, 3.792023
251.9839, 3.482590
252.4660, 3.176994
252.9481, 2.849457
253.4302, 2.701492
253.9123, 2.942665
254.3945, 3.351372
254.8766, 3.565086
255.3587, 3.478958
255.8408, 3.313622
256.3229, 3.360550
256.8051, 3.587807
257.2872, 3.760735
257.7693, 3.706009
258.2514, 3.584755
258.7335, 3.711418
259.2156, 4.193596
259.6978, 4.680550
260.1799, 4.768524
260.6620, 4.563065
261.1441, 4.377724
261.6262, 4.385124
262.1083, 4.445084
262.5905, 4.314240
263.0726, 3.947365
263.5547, 3.505173
264.0368, 3.058380
264.5189, 2.628769
265.0010, 2.284851
265.4832, 2.086235
265.9653, 1.972244
266.4474, 1.861160
266.9295, 1.761803
267.4116, 1.639275
267.8937, 1.472351
268.3759, 1.270416
268.8580, 1.017593
269.3401, 0.6033550
269.8222, 0.2347030
270.3043, 0.3072430
270.7864, 0.9455340
271.2686, 1.485306
271.7507, 1.510895
272.2328, 1.292030
272.7149, 1.085594
273.1970, 0.9655760
273.6791, 0.8661880
274.1613, 0.6698460
274.6434, 0.3351670
275.1255, 0.1016540
275.6076, 0.2018280
276.0897, 0.3741000
276.5718, 0.3808210
277.0540, 0.1453250
277.5361, 0.1144030
278.0182, 9.2528999E-02
278.5003, 0.2685780
278.9824, 0.5126720
279.4645, 0.4616090
279.9467, 0.2844770
280.4288, 1.7975001E-02
280.9109, 0.3245850
281.3930, 0.5746610
281.8751, 0.4555740
282.3572, 8.4060997E-02
282.8394, 0.3555980
283.3215, 0.1639100
283.8036, 0.6436390
284.2857, 0.5388950
284.7678, 0.1233980
285.2499, 0.8846050
285.7321, 1.341843
286.2142, 1.485458
286.6963, 1.610733
287.1784, 1.608063
287.6605, 1.722092
288.1426, 2.155289
288.6248, 2.821159
289.1069, 3.438515
289.5890, 3.725471
290.0711, 3.725693
290.5532, 4.022812
291.0353, 4.944946
291.5175, 5.778671
291.9996, 6.141037
292.4817, 6.216637
292.9638, 6.366867
293.4459, 6.827469
293.9280, 7.526314
294.4102, 8.142494
294.8923, 8.650772
295.3744, 9.100212
295.8565, 9.484444
296.3386, 9.859138
296.8207, 10.30830
297.3029, 10.90370
297.7850, 11.53655
298.2671, 11.90661
298.7492, 11.88548
299.2313, 11.79315
299.7134, 11.65468
300.1956, 11.54223
300.6777, 11.50985
301.1598, 11.57298
301.6419, 11.73793
302.1240, 12.09666
302.6061, 12.85009
303.0883, 13.21753
303.5704, 12.80387
304.0525, 12.18005
304.5346, 11.68439
305.0167, 11.39314
305.4988, 11.21844
305.9810, 11.03528
306.4631, 10.80504
306.9452, 10.73520
307.4273, 11.06535
307.9094, 11.37981
308.3915, 11.48117
308.8737, 11.37333
309.3558, 11.17617
309.8379, 11.00650
310.3200, 10.86893
310.8021, 10.63192
311.2842, 10.05119
311.7664, 9.625977
312.2485, 9.571007
312.7306, 9.808975
313.2127, 10.18122
313.6948, 10.65672
314.1769, 11.16758
314.6591, 11.26006
315.1412, 10.56213
315.6233, 9.943237
316.1054, 9.719635
316.5875, 9.700150
317.0696, 9.598373
317.5518, 9.253441
318.0339, 8.822487
318.5160, 8.766975
318.9981, 9.404716
319.4802, 9.762405
319.9623, 9.399765
320.4445, 8.834633
320.9266, 8.515587
321.4087, 8.579239
321.8908, 8.862671
322.3729, 9.151054
322.8550, 9.464157
323.3372, 9.714890
323.8193, 9.809303
324.3014, 9.898834
324.7835, 10.05212
325.2656, 10.28397
325.7477, 10.59500
326.2299, 11.03468
326.7120, 11.62589
327.1941, 12.07987
327.6762, 12.34899
328.1583, 12.50066
328.6404, 12.49358
329.1226, 12.38469
329.6047, 12.32501
330.0868, 12.49934
330.5689, 12.83295
331.0510, 12.78988
331.5331, 12.08583
332.0153, 11.41690
332.4974, 11.10131
332.9795, 10.96570
333.4616, 10.77277
333.9437, 10.42710
334.4258, 9.933624
334.9080, 9.279236
335.3901, 8.390419
335.8722, 7.526108
336.3543, 6.738434
336.8365, 6.018753
337.3186, 5.329567
337.8007, 4.656151
338.2828, 4.122131
338.7649, 3.984589
339.2470, 4.332314
339.7292, 4.407944
340.2113, 3.753242
340.6934, 3.014587
341.1755, 2.633942
341.6576, 2.597641
342.1397, 2.591202
342.6219, 2.305496
343.1040, 1.763062
343.5861, 1.383133
344.0682, 1.292465
344.5503, 1.228088
345.0324, 0.9897770
345.5146, 0.6497960
345.9967, 0.3976820
346.4788, 0.4388500
346.9609, 0.6025850
347.4430, 0.4209440
347.9251, 0.2476580
348.4073, 0.8718720
348.8894, 1.190849
349.3715, 1.312584
349.8536, 1.341415
350.3357, 1.293159
350.8178, 1.182472
351.3000, 1.021416
351.7821, 0.8084950
352.2642, 0.5483320
352.7463, 0.1306460
353.2284, 0.2471540
353.7105, 0.3649290
354.1927, 0.1915820
354.6748, 4.5745999E-02
355.1569, 0.2760010
355.6390, 0.4633260
356.1211, 0.4123230
356.6032, 2.8191000E-02
357.0854, 0.5165180
357.5675, 0.6870040
358.0496, 0.6073990
358.5317, 0.6016160
359.0138, 0.8462680
359.4959, 1.222191
359.9781, 1.530136
360.4602, 1.743958
360.9423, 1.987587
361.4244, 2.414177
361.9065, 2.925858
362.3886, 3.273674
362.8708, 3.292404
363.3529, 3.271332
363.8350, 3.409195
364.3171, 3.701614
364.7992, 4.156509
365.2813, 4.869453
365.7635, 5.653740
366.2456, 6.162926
366.7277, 6.375992
367.2098, 6.415199
367.6919, 6.149109
368.1740, 5.771835
368.6562, 5.737221
369.1383, 6.218590
369.6204, 6.738075
370.1025, 6.615433
370.5846, 5.799255
371.0667, 5.228966
371.5489, 5.134483
372.0310, 5.254929
372.5131, 5.427185
372.9952, 5.618530
373.4773, 5.732498
373.9594, 5.687050
374.4416, 5.492645
374.9237, 5.311981
375.4058, 5.190796
375.8879, 5.034554
376.3700, 4.813309
376.8521, 4.528633
377.3343, 4.141953
377.8164, 3.612465
378.2985, 3.078423
378.7806, 2.877815
379.2627, 3.248573
379.7448, 3.555908
380.2270, 3.717407
380.7091, 3.819954
381.1912, 3.948486
381.6733, 4.117935
382.1554, 4.284904
382.6375, 4.399864
383.1197, 4.449821
383.6018, 4.509422
384.0839, 4.470726
384.5660, 4.541031
385.0481, 4.864517
385.5302, 5.378578
386.0124, 5.921257
386.4945, 6.387421
386.9766, 6.795212
387.4587, 7.246506
387.9408, 7.789078
388.4229, 8.321930
388.9051, 8.849564
389.3872, 9.355179
389.8693, 9.819969
390.3514, 10.23795
390.8335, 10.62957
391.3156, 11.09518
391.7978, 11.87218
392.2799, 12.05562
392.7620, 11.09650
393.2441, 10.04863
393.7262, 9.377419
394.2083, 9.103836
394.6905, 9.075066
395.1726, 9.255074
395.6547, 9.595299
396.1368, 9.559219
396.6189, 8.808456
397.1010, 8.161865
397.5832, 7.972313
398.0653, 7.989037
398.5474, 7.892700
399.0295, 7.552673
399.5116, 7.066696
399.9937, 6.518341
400.4759, 5.843910
400.9580, 5.439552
401.4401, 5.774345
401.9222, 6.146790
402.4043, 6.032127
402.8864, 5.414658
403.3686, 4.699936
403.8507, 4.139435
404.3328, 3.720695
404.8149, 3.377777
405.2970, 3.087685
405.7791, 2.897720
406.2613, 2.975471
406.7434, 3.177353
407.2255, 3.166275
407.7076, 2.633461
408.1897, 2.050743
408.6718, 1.979683
409.1540, 2.407280
409.6361, 2.946213
410.1182, 3.471474
410.6003, 3.995499
411.0824, 4.532013
411.5645, 5.101601
412.0467, 5.638596
412.5288, 5.983315
413.0109, 6.271362
413.4930, 6.792267
413.9751, 7.625610
414.4572, 8.595917
414.9394, 9.521156
415.4215, 10.39799
415.9036, 11.25417
416.3857, 12.06773
416.8678, 12.87814
417.3499, 13.75950
417.8321, 14.66575
418.3142, 15.45755
418.7963, 16.05254
419.2784, 16.47708
419.7605, 16.80763
420.2426, 16.98804
420.7248, 17.15897
421.2069, 17.51838
421.6890, 17.78230
422.1711, 17.63283
422.6532, 17.00974
423.1353, 16.10143
423.6175, 15.11709
424.0996, 14.05309
424.5817, 12.93749
425.0638, 11.62437
425.5459, 10.41553
426.0280, 9.485771
426.5102, 8.747749
426.9923, 8.021126
427.4744, 7.203590
427.9565, 6.315056
428.4386, 5.419136
428.9207, 4.353607
429.4029, 3.587578
429.8850, 3.226059
430.3671, 3.105728
430.8492, 3.233139
431.3313, 3.549530
431.8134, 3.755302
432.2956, 3.407600
432.7777, 2.483452
433.2598, 1.939102
433.7419, 1.986557
434.2241, 2.186676
434.7062, 2.370026
435.1883, 2.534210
435.6704, 2.657784
436.1525, 2.660271
436.6346, 2.717819
437.1168, 3.185455
437.5989, 4.109489
438.0810, 4.945740
438.5631, 5.460876
439.0452, 5.826042
439.5273, 6.232880
440.0095, 6.688187
440.4916, 7.174034
440.9737, 7.753273
441.4558, 8.343987
441.9379, 8.760941
442.4200, 8.969772
442.9022, 9.090355
443.3843, 9.264069
443.8664, 9.438454
444.3485, 9.351440
444.8306, 8.819992
445.3127, 8.186714
445.7949, 7.533836
446.2770, 6.927322
446.7591, 6.603531
447.2412, 6.709007
447.7233, 6.925270
448.2054, 6.622208
448.6876, 5.464439
449.1697, 4.535316
449.6518, 3.959450
450.1339, 3.572212
450.6160, 3.273300
451.0981, 3.045670
451.5803, 2.917397
452.0624, 2.938721
452.5445, 3.084412
453.0266, 3.016869
453.5087, 2.365669
453.9908, 1.923866
454.4730, 1.940926
454.9551, 2.163574
455.4372, 2.299507
455.9193, 2.260048
456.4014, 2.183121
456.8835, 2.299904
457.3657, 2.688606
457.8478, 2.909386
458.3299, 2.819107
458.8120, 2.675636
459.2941, 2.544060
459.7762, 2.442650
460.2584, 2.396324
460.7405, 2.441910
461.2226, 2.520317
461.7047, 2.522987
462.1868, 2.468140
462.6689, 2.321930
463.1511, 1.972984
463.6332, 1.559555
464.1153, 1.195686
464.5974, 0.8891750
465.0795, 0.6217270
465.5616, 0.3349610
466.0438, 0.1005710
466.5259, 0.1033250
467.0080, 0.3969800
467.4901, 0.6152340
467.9722, 0.4276890
468.4543, 9.0691000E-02
468.9365, 0.5175630
469.4186, 0.8839650
469.9007, 1.088844
470.3828, 1.035957
470.8649, 0.7964170
471.3470, 0.4821700
471.8292, 0.1272740
472.3113, 0.1966630
472.7934, 0.3773730
473.2755, 0.3479310
473.7576, 0.3629610
474.2397, 0.3727800
474.7219, 0.4607930
475.2040, 0.6622700
475.6861, 0.9946900
476.1682, 1.534271
476.6503, 2.365501
477.1324, 3.323021
477.6146, 3.684227
478.0967, 2.958359
478.5788, 2.414421
479.0609, 2.173126
479.5430, 2.140739
480.0251, 2.301414
480.5073, 2.622185
480.9894, 2.969162
481.4715, 3.236565
481.9536, 3.425446
482.4357, 3.518250
482.9178, 3.447937
483.4000, 3.379074
483.8821, 3.398376
484.3642, 3.464561
484.8463, 3.524590
485.3284, 3.585167
485.8105, 3.587051
486.2927, 3.262756
486.7748, 2.731964
487.2569, 2.783562
487.7390, 3.824135
488.2211, 4.995102
488.7032, 5.278297
489.1854, 4.832710
489.6675, 4.441856
490.1496, 4.377853
490.6317, 4.324364
491.1138, 3.961792
491.5959, 3.374466
492.0781, 2.906281
492.5602, 2.734848
493.0423, 2.739250
493.5244, 2.640152
494.0065, 2.242172
494.4886, 2.131409
494.9708, 2.588860
495.4529, 3.141129
495.9350, 3.424171
496.4171, 3.447838
496.8992, 3.445778
497.3813, 3.599327
497.8635, 3.874146
498.3456, 4.042885
498.8277, 3.839317
499.3098, 3.944138
499.7919, 4.807243
500.2740, 5.771660
500.7562, 6.219742
501.2383, 6.066971
501.7204, 5.744316
502.2025, 5.684273
502.6846, 5.859322
503.1667, 5.930389
503.6489, 5.876709
504.1310, 5.750862
504.6131, 5.565727
505.0952, 5.337227
505.5773, 5.076828
506.0594, 4.775482
506.5416, 4.477356
507.0237, 4.262581
507.5058, 4.093742
507.9879, 3.790970
508.4700, 3.292206
508.9521, 2.779259
509.4343, 2.459846
509.9164, 2.336639
510.3985, 2.153893
510.8806, 1.827461
511.3627, 1.506348
511.8448, 1.246338
512.3270, 1.060555
512.8091, 0.9701770
513.2912, 0.9872670
513.7733, 1.076050
514.2554, 1.186310
514.7375, 1.413292
515.2197, 1.423485
515.7018, 1.048111
516.1839, 0.6466980
516.6660, 0.3764720
517.1481, 0.2343750
517.6302, 0.1791530
518.1124, 0.1988450
518.5945, 0.2473140
519.0766, 0.1666260
519.5587, 0.1445920
520.0408, 0.2581330
520.5229, 0.1648710
521.0051, 0.6318280
521.4872, 0.8341370
521.9693, 0.7706760
522.4514, 0.5925600
522.9335, 0.2602160
523.4156, 8.5074998E-02
523.8978, 0.1411970
524.3799, 0.1075520
524.8620, 0.4196240
525.3441, 0.7688450
525.8262, 1.040039
526.3083, 0.9680860
526.7905, 0.4280170
527.2726, 7.2379999E-02
527.7547, 0.3863070
528.2368, 0.5559540
528.7189, 0.5946660
529.2010, 0.5194700
529.6832, 0.4068150
530.1653, 0.3273160
530.6474, 0.2776410
531.1295, 0.2024150
531.6116, 1.0574000E-02
532.0938, 8.7563001E-02
532.5759, 5.3955000E-02
533.0580, 0.2179410
533.5401, 0.1685710
534.0222, 9.9365003E-02
534.5043, 0.3692700
534.9865, 0.4253620
535.4686, 0.2873840
535.9507, 0.1768110
536.4328, 4.4059999E-02
536.9149, 3.6300998E-02
537.3970, 0.3936610
537.8792, 0.8045960
538.3613, 0.9038620
538.8434, 0.6018830
539.3255, 0.2275390
539.8076, 4.6967000E-02
540.2897, 0.1987460
540.7719, 9.1843002E-02
541.2540, 0.3408890
541.7361, 0.6843870
542.2182, 0.5655590
542.7003, 0.1021420
543.1824, 0.1025240
543.6646, 0.1751480
544.1467, 0.4145360
544.6288, 0.3518140
545.1109, 0.1834720
545.5930, 0.1860960
546.0751, 0.4109570
546.5573, 0.7002870
547.0394, 0.8938670
547.5215, 0.9876940
548.0036, 1.110535
548.4857, 1.399498
548.9678, 1.555260
549.4500, 1.403847
549.9321, 1.150726
550.4142, 1.017059
550.8963, 1.060059
551.3784, 1.183838
551.8605, 1.316071
552.3427, 1.451363
552.8248, 1.493401
553.3069, 1.378517
553.7890, 1.295052
554.2711, 1.435287
554.7532, 1.650383
555.2354, 1.707428
555.7175, 1.517296
556.1996, 1.305099
556.6817, 1.242584
557.1638, 1.254547
557.6459, 1.158859
558.1281, 0.9206010
558.6102, 0.7132030
559.0923, 0.7181090
559.5744, 0.9171220
560.0565, 0.9176250
560.5386, 0.4641340
561.0208, 0.1623230
561.5029, 0.2143170
561.9850, 0.4594800
562.4671, 0.8066180
562.9492, 1.185272
563.4313, 1.381042
563.9135, 1.073746
564.3956, 0.2807390
564.8777, 3.5576001E-02
565.3598, 0.7538300
565.8419, 1.368347
566.3240, 1.572876
566.8062, 1.512222
567.2883, 1.235046
567.7704, 0.7459560
568.2525, 0.4028930
568.7346, 0.6339040
569.2167, 1.217567
569.6989, 1.497726
570.1810, 1.382095
570.6631, 1.268600
571.1452, 1.418564
571.6273, 1.761795
572.1094, 2.042648
572.5916, 2.243141
573.0737, 2.419327
573.5558, 2.605721
574.0379, 2.762321
574.5200, 2.772263
575.0021, 2.669502
575.4843, 2.701035
575.9664, 3.084259
576.4485, 3.755035
576.9306, 4.313583
577.4127, 4.662971
577.8948, 5.019592
578.3770, 5.309387
578.8591, 5.720375
579.3412, 6.488342
579.8233, 7.569962
580.3054, 8.643082
580.7875, 9.459465
581.2697, 10.08743
581.7518, 10.65538
582.2339, 11.14691
582.7161, 11.93112
583.1982, 13.24717
583.6803, 14.84163
584.1624, 16.30183
584.6445, 17.60594
585.1266, 19.04324
585.6088, 20.54991
586.0909, 22.35423
586.5730, 24.70218
587.0551, 27.52384
587.5372, 30.54086
588.0193, 33.59914
588.5015, 36.72860
588.9836, 39.94312
589.4657, 43.23359
589.9478, 46.62492
590.4299, 50.17369
590.9120, 53.75063
591.3942, 57.59592
591.8763, 61.40212
592.3584, 64.56284
592.8405, 66.80080
593.3226, 68.23082
593.8047, 69.15772
594.2869, 69.57214
594.7690, 68.70708
595.2511, 66.15707
595.7332, 62.75776
596.2153, 58.98968
596.6974, 54.93325
597.1796, 50.84753
597.6617, 46.52402
598.1438, 42.42635
598.6259, 38.88972
599.1080, 35.74974
599.5901, 32.60947
600.0723, 29.38518
600.5544, 26.37248
601.0365, 23.90289
601.5186, 22.00736
602.0007, 20.22884
602.4828, 18.60925
602.9650, 17.04990
603.4471, 15.42033
603.9292, 13.92043
604.4113, 12.78959
604.8934, 12.04704
605.3755, 11.40615
605.8577, 10.60930
606.3398, 9.712715
606.8219, 8.889206
607.3040, 8.118774
607.7861, 7.546165
608.2682, 7.295525
608.7504, 7.241165
609.2325, 7.188454
609.7146, 7.163803
610.1967, 7.005760
610.6788, 6.550682
611.1609, 6.033943
611.6431, 5.640999
612.1252, 5.375748
612.6073, 5.198357
613.0894, 5.090744
613.5715, 5.036545
614.0536, 4.997726
614.5358, 4.957222
615.0179, 4.977219
615.5000, 5.212616
615.9821, 5.353813
616.4642, 5.090584
616.9464, 4.672142
