##NAMES=Xonotlite
##RRUFFID=R180003
##IDEAL CHEMISTRY=Ca_6_Si_6_O_17_(OH)_2_
##LOCALITY=Nchwaning III mine, Kuruman, Kalahari manganese field, Northern Cape Province, South Africa
##OWNER=RRUFF
##SOURCE=Jaco and Tania Janse van Nieuwenhuizen
##DESCRIPTION=Sprays of colorless prismatic crystals
##STATUS=The identification of this mineral has been confirmed by single-crystal X-ray diffraction.
##URL=rruff.info/R180003
8.813672e+001, 4.394961e+002
8.861884e+001, 4.441511e+002
8.910095e+001, 4.496978e+002
8.958307e+001, 4.571678e+002
9.006519e+001, 4.654984e+002
9.054730e+001, 4.732909e+002
9.102942e+001, 4.809713e+002
9.151154e+001, 4.884320e+002
9.199365e+001, 4.968394e+002
9.247577e+001, 5.053527e+002
9.295789e+001, 5.113375e+002
9.344000e+001, 5.116677e+002
9.392212e+001, 5.085077e+002
9.440424e+001, 5.080458e+002
9.488635e+001, 5.113351e+002
9.536847e+001, 5.162065e+002
9.585059e+001, 5.197820e+002
9.633270e+001, 5.220804e+002
9.681482e+001, 5.236077e+002
9.729694e+001, 5.239199e+002
9.777905e+001, 5.231803e+002
9.826117e+001, 5.240941e+002
9.874329e+001, 5.270430e+002
9.922540e+001, 5.314597e+002
9.970752e+001, 5.362206e+002
1.001896e+002, 5.413015e+002
1.006718e+002, 5.464986e+002
1.011539e+002, 5.516686e+002
1.016360e+002, 5.568734e+002
1.021181e+002, 5.618946e+002
1.026002e+002, 5.665554e+002
1.030823e+002, 5.709603e+002
1.035645e+002, 5.757295e+002
1.040466e+002, 5.806139e+002
1.045287e+002, 5.862498e+002
1.050108e+002, 5.931707e+002
1.054929e+002, 6.009276e+002
1.059750e+002, 6.107098e+002
1.064572e+002, 6.234594e+002
1.069393e+002, 6.397339e+002
1.074214e+002, 6.540671e+002
1.079035e+002, 6.663545e+002
1.083856e+002, 6.769883e+002
1.088677e+002, 6.861949e+002
1.093499e+002, 6.928146e+002
1.098320e+002, 6.993816e+002
1.103141e+002, 7.064645e+002
1.107962e+002, 7.144430e+002
1.112783e+002, 7.222054e+002
1.117604e+002, 7.303404e+002
1.122426e+002, 7.382287e+002
1.127247e+002, 7.447546e+002
1.132068e+002, 7.487179e+002
1.136889e+002, 7.521143e+002
1.141710e+002, 7.556240e+002
1.146531e+002, 7.592169e+002
1.151353e+002, 7.631306e+002
1.156174e+002, 7.678242e+002
1.160995e+002, 7.729415e+002
1.165816e+002, 7.776519e+002
1.170637e+002, 7.814446e+002
1.175458e+002, 7.847922e+002
1.180280e+002, 7.881210e+002
1.185101e+002, 7.920803e+002
1.189922e+002, 7.952474e+002
1.194743e+002, 7.954584e+002
1.199564e+002, 7.935929e+002
1.204385e+002, 7.936281e+002
1.209207e+002, 7.992250e+002
1.214028e+002, 8.075225e+002
1.218849e+002, 8.151901e+002
1.223670e+002, 8.194039e+002
1.228491e+002, 8.239720e+002
1.233312e+002, 8.338423e+002
1.238134e+002, 8.487043e+002
1.242955e+002, 8.622927e+002
1.247776e+002, 8.684178e+002
1.252597e+002, 8.695681e+002
1.257418e+002, 8.708064e+002
1.262239e+002, 8.736312e+002
1.267061e+002, 8.779911e+002
1.271882e+002, 8.838923e+002
1.276703e+002, 8.914424e+002
1.281524e+002, 8.998973e+002
1.286345e+002, 9.091352e+002
1.291166e+002, 9.188554e+002
1.295988e+002, 9.277491e+002
1.300809e+002, 9.343738e+002
1.305630e+002, 9.395515e+002
1.310451e+002, 9.464744e+002
1.315272e+002, 9.556750e+002
1.320093e+002, 9.652057e+002
1.324915e+002, 9.719339e+002
1.329736e+002, 9.758528e+002
1.334557e+002, 9.796751e+002
1.339378e+002, 9.849348e+002
1.344199e+002, 9.915377e+002
1.349020e+002, 9.976234e+002
1.353842e+002, 1.002691e+003
1.358663e+002, 1.007572e+003
1.363484e+002, 1.014428e+003
1.368305e+002, 1.023464e+003
1.373126e+002, 1.033402e+003
1.377947e+002, 1.043001e+003
1.382769e+002, 1.051933e+003
1.387590e+002, 1.063174e+003
1.392411e+002, 1.077745e+003
1.397232e+002, 1.094668e+003
1.402053e+002, 1.109287e+003
1.406874e+002, 1.121513e+003
1.411696e+002, 1.132057e+003
1.416517e+002, 1.141563e+003
1.421338e+002, 1.150909e+003
1.426159e+002, 1.157242e+003
1.430980e+002, 1.160538e+003
1.435801e+002, 1.160743e+003
1.440623e+002, 1.156972e+003
1.445444e+002, 1.148351e+003
1.450265e+002, 1.136860e+003
1.455086e+002, 1.124034e+003
1.459907e+002, 1.108736e+003
1.464728e+002, 1.093797e+003
1.469550e+002, 1.079244e+003
1.474371e+002, 1.065097e+003
1.479192e+002, 1.052296e+003
1.484013e+002, 1.041134e+003
1.488834e+002, 1.031175e+003
1.493655e+002, 1.021897e+003
1.498477e+002, 1.013396e+003
1.503298e+002, 1.005527e+003
1.508119e+002, 9.981860e+002
1.512940e+002, 9.912648e+002
1.517761e+002, 9.854620e+002
1.522583e+002, 9.810090e+002
1.527404e+002, 9.777001e+002
1.532225e+002, 9.753038e+002
1.537046e+002, 9.750541e+002
1.541867e+002, 9.746161e+002
1.546688e+002, 9.729923e+002
1.551510e+002, 9.694562e+002
1.556331e+002, 9.674824e+002
1.561152e+002, 9.699630e+002
1.565973e+002, 9.738176e+002
1.570794e+002, 9.748909e+002
1.575615e+002, 9.690311e+002
1.580437e+002, 9.629563e+002
1.585258e+002, 9.594747e+002
1.590079e+002, 9.596063e+002
1.594900e+002, 9.601791e+002
1.599721e+002, 9.610062e+002
1.604542e+002, 9.616092e+002
1.609364e+002, 9.611458e+002
1.614185e+002, 9.582903e+002
1.619006e+002, 9.549777e+002
1.623827e+002, 9.522684e+002
1.628648e+002, 9.504393e+002
1.633469e+002, 9.489235e+002
1.638291e+002, 9.479901e+002
1.643112e+002, 9.472188e+002
1.647933e+002, 9.456201e+002
1.652754e+002, 9.417014e+002
1.657575e+002, 9.373738e+002
1.662396e+002, 9.341288e+002
1.667218e+002, 9.325889e+002
1.672039e+002, 9.315731e+002
1.676860e+002, 9.304324e+002
1.681681e+002, 9.292558e+002
1.686502e+002, 9.282628e+002
1.691323e+002, 9.277224e+002
1.696145e+002, 9.273914e+002
1.700966e+002, 9.270324e+002
1.705787e+002, 9.265858e+002
1.710608e+002, 9.261069e+002
1.715429e+002, 9.255893e+002
1.720250e+002, 9.250438e+002
1.725072e+002, 9.245712e+002
1.729893e+002, 9.241849e+002
1.734714e+002, 9.238908e+002
1.739535e+002, 9.236288e+002
1.744356e+002, 9.230247e+002
1.749177e+002, 9.228481e+002
1.753999e+002, 9.245707e+002
1.758820e+002, 9.279277e+002
1.763641e+002, 9.306488e+002
1.768462e+002, 9.304161e+002
1.773283e+002, 9.284930e+002
1.778104e+002, 9.272977e+002
1.782926e+002, 9.278782e+002
1.787747e+002, 9.292316e+002
1.792568e+002, 9.301818e+002
1.797389e+002, 9.307257e+002
1.802210e+002, 9.307438e+002
1.807031e+002, 9.293468e+002
1.811853e+002, 9.272598e+002
1.816674e+002, 9.265251e+002
1.821495e+002, 9.285419e+002
1.826316e+002, 9.318267e+002
1.831137e+002, 9.332236e+002
1.835958e+002, 9.327038e+002
1.840780e+002, 9.321717e+002
1.845601e+002, 9.335643e+002
1.850422e+002, 9.365074e+002
1.855243e+002, 9.395742e+002
1.860064e+002, 9.423484e+002
1.864885e+002, 9.449022e+002
1.869707e+002, 9.472264e+002
1.874528e+002, 9.493063e+002
1.879349e+002, 9.515291e+002
1.884170e+002, 9.546760e+002
1.888991e+002, 9.585735e+002
1.893812e+002, 9.617047e+002
1.898634e+002, 9.630043e+002
1.903455e+002, 9.632158e+002
1.908276e+002, 9.654550e+002
1.913097e+002, 9.700321e+002
1.917918e+002, 9.751298e+002
1.922739e+002, 9.786370e+002
1.927561e+002, 9.806160e+002
1.932382e+002, 9.824339e+002
1.937203e+002, 9.842352e+002
1.942024e+002, 9.861576e+002
1.946845e+002, 9.894167e+002
1.951666e+002, 9.942509e+002
1.956488e+002, 9.994364e+002
1.961309e+002, 1.003315e+003
1.966130e+002, 1.005826e+003
1.970951e+002, 1.008568e+003
1.975772e+002, 1.012006e+003
1.980593e+002, 1.016132e+003
1.985415e+002, 1.021087e+003
1.990236e+002, 1.027126e+003
1.995057e+002, 1.033352e+003
1.999878e+002, 1.038607e+003
2.004699e+002, 1.042888e+003
2.009520e+002, 1.046513e+003
2.014342e+002, 1.049412e+003
2.019163e+002, 1.051651e+003
2.023984e+002, 1.054157e+003
2.028805e+002, 1.057079e+003
2.033626e+002, 1.060055e+003
2.038447e+002, 1.063024e+003
2.043269e+002, 1.066373e+003
2.048090e+002, 1.067820e+003
2.052911e+002, 1.066088e+003
2.057732e+002, 1.061073e+003
2.062553e+002, 1.056707e+003
2.067374e+002, 1.053059e+003
2.072196e+002, 1.049874e+003
2.077017e+002, 1.046996e+003
2.081838e+002, 1.044653e+003
2.086659e+002, 1.041659e+003
2.091480e+002, 1.037462e+003
2.096301e+002, 1.031895e+003
2.101123e+002, 1.026704e+003
2.105944e+002, 1.022065e+003
2.110765e+002, 1.017488e+003
2.115586e+002, 1.012140e+003
2.120407e+002, 1.005609e+003
2.125228e+002, 9.994191e+002
2.130050e+002, 9.941102e+002
2.134871e+002, 9.897646e+002
2.139692e+002, 9.856742e+002
2.144513e+002, 9.818635e+002
2.149334e+002, 9.782828e+002
2.154155e+002, 9.748024e+002
2.158977e+002, 9.714133e+002
2.163798e+002, 9.681501e+002
2.168619e+002, 9.650357e+002
2.173440e+002, 9.620814e+002
2.178261e+002, 9.593219e+002
2.183082e+002, 9.567660e+002
2.187904e+002, 9.544535e+002
2.192725e+002, 9.523336e+002
2.197546e+002, 9.500872e+002
2.202367e+002, 9.488430e+002
2.207188e+002, 9.492177e+002
2.212009e+002, 9.515488e+002
2.216831e+002, 9.532861e+002
2.221652e+002, 9.543088e+002
2.226473e+002, 9.548792e+002
2.231294e+002, 9.551638e+002
2.236115e+002, 9.545792e+002
2.240936e+002, 9.548968e+002
2.245758e+002, 9.566471e+002
2.250579e+002, 9.599332e+002
2.255400e+002, 9.640539e+002
2.260221e+002, 9.696766e+002
2.265042e+002, 9.755452e+002
2.269863e+002, 9.797532e+002
2.274685e+002, 9.812263e+002
2.279506e+002, 9.830879e+002
2.284327e+002, 9.859928e+002
2.289148e+002, 9.899405e+002
2.293969e+002, 9.951843e+002
2.298790e+002, 1.002436e+003
2.303612e+002, 1.010337e+003
2.308433e+002, 1.017281e+003
2.313254e+002, 1.023339e+003
2.318075e+002, 1.028380e+003
2.322896e+002, 1.032185e+003
2.327717e+002, 1.034607e+003
2.332539e+002, 1.037182e+003
2.337360e+002, 1.040610e+003
2.342181e+002, 1.043522e+003
2.347002e+002, 1.044423e+003
2.351823e+002, 1.043213e+003
2.356644e+002, 1.040148e+003
2.361466e+002, 1.034863e+003
2.366287e+002, 1.027180e+003
2.371108e+002, 1.020077e+003
2.375929e+002, 1.014176e+003
2.380750e+002, 1.008476e+003
2.385571e+002, 1.001840e+003
2.390393e+002, 9.934279e+002
2.395214e+002, 9.856751e+002
2.400035e+002, 9.791691e+002
2.404856e+002, 9.739095e+002
2.409677e+002, 9.688380e+002
2.414498e+002, 9.637839e+002
2.419320e+002, 9.590597e+002
2.424141e+002, 9.549747e+002
2.428962e+002, 9.519691e+002
2.433783e+002, 9.486955e+002
2.438604e+002, 9.447741e+002
2.443425e+002, 9.401844e+002
2.448247e+002, 9.358742e+002
2.453068e+002, 9.317669e+002
2.457889e+002, 9.279686e+002
2.462710e+002, 9.245408e+002
2.467531e+002, 9.215738e+002
2.472352e+002, 9.187683e+002
2.477174e+002, 9.160521e+002
2.481995e+002, 9.134600e+002
2.486816e+002, 9.110723e+002
2.491637e+002, 9.086248e+002
2.496458e+002, 9.067391e+002
2.501279e+002, 9.061526e+002
2.506101e+002, 9.079584e+002
2.510922e+002, 9.087282e+002
2.515743e+002, 9.075977e+002
2.520564e+002, 9.049005e+002
2.525385e+002, 9.032523e+002
2.530206e+002, 9.028682e+002
2.535028e+002, 9.032721e+002
2.539849e+002, 9.042216e+002
2.544670e+002, 9.060211e+002
2.549491e+002, 9.076057e+002
2.554312e+002, 9.088092e+002
2.559133e+002, 9.096623e+002
2.563955e+002, 9.104212e+002
2.568776e+002, 9.108982e+002
2.573597e+002, 9.114882e+002
2.578418e+002, 9.124993e+002
2.583239e+002, 9.142035e+002
2.588061e+002, 9.155316e+002
2.592882e+002, 9.163870e+002
2.597703e+002, 9.168120e+002
2.602524e+002, 9.169159e+002
2.607345e+002, 9.165341e+002
2.612166e+002, 9.161687e+002
2.616988e+002, 9.160710e+002
2.621809e+002, 9.162415e+002
2.626630e+002, 9.168476e+002
2.631451e+002, 9.181970e+002
2.636272e+002, 9.198951e+002
2.641093e+002, 9.208978e+002
2.645915e+002, 9.213538e+002
2.650736e+002, 9.208834e+002
2.655557e+002, 9.189340e+002
2.660378e+002, 9.148986e+002
2.665199e+002, 9.121458e+002
2.670020e+002, 9.110635e+002
2.674842e+002, 9.110516e+002
2.679663e+002, 9.108904e+002
2.684484e+002, 9.104816e+002
2.689305e+002, 9.101849e+002
2.694126e+002, 9.101254e+002
2.698947e+002, 9.102871e+002
2.703769e+002, 9.107429e+002
2.708590e+002, 9.115782e+002
2.713411e+002, 9.125543e+002
2.718232e+002, 9.132103e+002
2.723053e+002, 9.134182e+002
2.727874e+002, 9.136883e+002
2.732696e+002, 9.140518e+002
2.737517e+002, 9.144609e+002
2.742338e+002, 9.161031e+002
2.747159e+002, 9.197263e+002
2.751980e+002, 9.231477e+002
2.756801e+002, 9.225406e+002
2.761623e+002, 9.170258e+002
2.766444e+002, 9.128692e+002
2.771265e+002, 9.126789e+002
2.776086e+002, 9.161351e+002
2.780907e+002, 9.177256e+002
2.785728e+002, 9.171965e+002
2.790550e+002, 9.156517e+002
2.795371e+002, 9.140641e+002
2.800192e+002, 9.124094e+002
2.805013e+002, 9.112123e+002
2.809834e+002, 9.105891e+002
2.814655e+002, 9.105482e+002
2.819477e+002, 9.112990e+002
2.824298e+002, 9.129820e+002
2.829119e+002, 9.147617e+002
2.833940e+002, 9.156921e+002
2.838761e+002, 9.157854e+002
2.843582e+002, 9.162872e+002
2.848404e+002, 9.176949e+002
2.853225e+002, 9.195409e+002
2.858046e+002, 9.199714e+002
2.862867e+002, 9.187879e+002
2.867688e+002, 9.181693e+002
2.872509e+002, 9.206224e+002
2.877331e+002, 9.256957e+002
2.882152e+002, 9.291775e+002
2.886973e+002, 9.298641e+002
2.891794e+002, 9.292628e+002
2.896615e+002, 9.307155e+002
2.901436e+002, 9.342172e+002
2.906258e+002, 9.379248e+002
2.911079e+002, 9.403583e+002
2.915900e+002, 9.419099e+002
2.920721e+002, 9.443054e+002
2.925542e+002, 9.477928e+002
2.930363e+002, 9.520198e+002
2.935185e+002, 9.564777e+002
2.940006e+002, 9.612219e+002
2.944827e+002, 9.662767e+002
2.949648e+002, 9.718867e+002
2.954469e+002, 9.779147e+002
2.959290e+002, 9.838743e+002
2.964112e+002, 9.897465e+002
2.968933e+002, 9.956655e+002
2.973754e+002, 1.001920e+003
2.978575e+002, 1.008338e+003
2.983396e+002, 1.014427e+003
2.988217e+002, 1.019649e+003
2.993039e+002, 1.024420e+003
2.997860e+002, 1.029420e+003
3.002681e+002, 1.034713e+003
3.007502e+002, 1.039891e+003
3.012323e+002, 1.045150e+003
3.017144e+002, 1.050032e+003
3.021966e+002, 1.053205e+003
3.026787e+002, 1.053045e+003
3.031608e+002, 1.051612e+003
3.036429e+002, 1.051801e+003
3.041250e+002, 1.053506e+003
3.046071e+002, 1.054627e+003
3.050893e+002, 1.053153e+003
3.055714e+002, 1.050057e+003
3.060535e+002, 1.046994e+003
3.065356e+002, 1.044990e+003
3.070177e+002, 1.042640e+003
3.074998e+002, 1.038210e+003
3.079820e+002, 1.032046e+003
3.084641e+002, 1.026207e+003
3.089462e+002, 1.022223e+003
3.094283e+002, 1.019131e+003
3.099104e+002, 1.015874e+003
3.103925e+002, 1.011978e+003
3.108747e+002, 1.008351e+003
3.113568e+002, 1.005770e+003
3.118389e+002, 1.004014e+003
3.123210e+002, 1.002458e+003
3.128031e+002, 1.000859e+003
3.132852e+002, 9.992914e+002
3.137674e+002, 9.977118e+002
3.142495e+002, 9.959854e+002
3.147316e+002, 9.947332e+002
3.152137e+002, 9.942651e+002
3.156958e+002, 9.944963e+002
3.161779e+002, 9.952809e+002
3.166601e+002, 9.979489e+002
3.171422e+002, 1.000073e+003
3.176243e+002, 1.000141e+003
3.181064e+002, 9.977543e+002
3.185885e+002, 9.951003e+002
3.190706e+002, 9.918935e+002
3.195528e+002, 9.891754e+002
3.200349e+002, 9.881297e+002
3.205170e+002, 9.906591e+002
3.209991e+002, 9.933885e+002
3.214812e+002, 9.952385e+002
3.219633e+002, 9.961655e+002
3.224455e+002, 9.970214e+002
3.229276e+002, 9.977090e+002
3.234097e+002, 9.985441e+002
3.238918e+002, 9.997621e+002
3.243739e+002, 1.001507e+003
3.248560e+002, 1.003502e+003
3.253382e+002, 1.005577e+003
3.258203e+002, 1.007803e+003
3.263024e+002, 1.010618e+003
3.267845e+002, 1.015253e+003
3.272666e+002, 1.019601e+003
3.277487e+002, 1.022621e+003
3.282309e+002, 1.022502e+003
3.287130e+002, 1.023476e+003
3.291951e+002, 1.026271e+003
3.296772e+002, 1.030138e+003
3.301593e+002, 1.033243e+003
3.306414e+002, 1.035683e+003
3.311236e+002, 1.037220e+003
3.316057e+002, 1.037713e+003
3.320878e+002, 1.036908e+003
3.325699e+002, 1.035850e+003
3.330520e+002, 1.034657e+003
3.335341e+002, 1.033165e+003
3.340163e+002, 1.031057e+003
3.344984e+002, 1.027990e+003
3.349805e+002, 1.025056e+003
3.354626e+002, 1.022655e+003
3.359447e+002, 1.020828e+003
3.364268e+002, 1.018502e+003
3.369090e+002, 1.015823e+003
3.373911e+002, 1.012397e+003
3.378732e+002, 1.007461e+003
3.383553e+002, 1.000356e+003
3.388374e+002, 9.944901e+002
3.393195e+002, 9.907391e+002
3.398017e+002, 9.886162e+002
3.402838e+002, 9.857280e+002
3.407659e+002, 9.818544e+002
3.412480e+002, 9.778771e+002
3.417301e+002, 9.743444e+002
3.422122e+002, 9.712716e+002
3.426944e+002, 9.683421e+002
3.431765e+002, 9.655867e+002
3.436586e+002, 9.628517e+002
3.441407e+002, 9.598577e+002
3.446228e+002, 9.566166e+002
3.451049e+002, 9.533434e+002
3.455871e+002, 9.498907e+002
3.460692e+002, 9.464188e+002
3.465513e+002, 9.442430e+002
3.470334e+002, 9.436058e+002
3.475155e+002, 9.434135e+002
3.479977e+002, 9.422155e+002
3.484798e+002, 9.402004e+002
3.489619e+002, 9.383546e+002
3.494440e+002, 9.370942e+002
3.499261e+002, 9.362645e+002
3.504082e+002, 9.354996e+002
3.508904e+002, 9.347908e+002
3.513725e+002, 9.344034e+002
3.518546e+002, 9.347748e+002
3.523367e+002, 9.355997e+002
3.528188e+002, 9.362625e+002
3.533009e+002, 9.365768e+002
3.537831e+002, 9.366324e+002
3.542652e+002, 9.364216e+002
3.547473e+002, 9.359915e+002
3.552294e+002, 9.355848e+002
3.557115e+002, 9.352567e+002
3.561936e+002, 9.350859e+002
3.566758e+002, 9.350834e+002
3.571579e+002, 9.351261e+002
3.576400e+002, 9.357667e+002
3.581221e+002, 9.378281e+002
3.586042e+002, 9.407752e+002
3.590863e+002, 9.435604e+002
3.595685e+002, 9.455701e+002
3.600506e+002, 9.474152e+002
3.605327e+002, 9.496804e+002
3.610148e+002, 9.525272e+002
3.614969e+002, 9.547057e+002
3.619790e+002, 9.542424e+002
3.624612e+002, 9.533815e+002
3.629433e+002, 9.545125e+002
3.634254e+002, 9.605073e+002
3.639075e+002, 9.663461e+002
3.643896e+002, 9.704502e+002
3.648717e+002, 9.728783e+002
3.653539e+002, 9.749329e+002
3.658360e+002, 9.760972e+002
3.663181e+002, 9.774362e+002
3.668002e+002, 9.796180e+002
3.672823e+002, 9.838430e+002
3.677644e+002, 9.874401e+002
3.682466e+002, 9.897561e+002
3.687287e+002, 9.912947e+002
3.692108e+002, 9.934589e+002
3.696929e+002, 9.975064e+002
3.701750e+002, 1.000907e+003
3.706571e+002, 1.002825e+003
3.711393e+002, 1.003126e+003
3.716214e+002, 1.002406e+003
3.721035e+002, 1.000028e+003
3.725856e+002, 9.971187e+002
3.730677e+002, 9.952282e+002
3.735498e+002, 9.949289e+002
3.740320e+002, 9.943837e+002
3.745141e+002, 9.928795e+002
3.749962e+002, 9.905754e+002
3.754783e+002, 9.899954e+002
3.759604e+002, 9.918947e+002
3.764425e+002, 9.939053e+002
3.769247e+002, 9.940201e+002
3.774068e+002, 9.920307e+002
3.778889e+002, 9.896084e+002
3.783710e+002, 9.864948e+002
3.788531e+002, 9.835630e+002
3.793352e+002, 9.833798e+002
3.798174e+002, 9.861624e+002
3.802995e+002, 9.890084e+002
3.807816e+002, 9.902165e+002
3.812637e+002, 9.899765e+002
3.817458e+002, 9.893700e+002
3.822279e+002, 9.882758e+002
3.827101e+002, 9.873869e+002
3.831922e+002, 9.879264e+002
3.836743e+002, 9.895556e+002
3.841564e+002, 9.906612e+002
3.846385e+002, 9.899263e+002
3.851206e+002, 9.886091e+002
3.856028e+002, 9.891991e+002
3.860849e+002, 9.916166e+002
3.865670e+002, 9.943104e+002
3.870491e+002, 9.961014e+002
3.875312e+002, 9.973846e+002
3.880133e+002, 9.987643e+002
3.884955e+002, 1.000255e+003
3.889776e+002, 1.002150e+003
3.894597e+002, 1.005094e+003
3.899418e+002, 1.008722e+003
3.904239e+002, 1.011972e+003
3.909060e+002, 1.014226e+003
3.913882e+002, 1.015936e+003
3.918703e+002, 1.017446e+003
3.923524e+002, 1.018834e+003
3.928345e+002, 1.019887e+003
3.933166e+002, 1.020150e+003
3.937987e+002, 1.020121e+003
3.942809e+002, 1.020428e+003
3.947630e+002, 1.022537e+003
3.952451e+002, 1.023751e+003
3.957272e+002, 1.022806e+003
3.962093e+002, 1.019789e+003
3.966914e+002, 1.016776e+003
3.971736e+002, 1.013650e+003
3.976557e+002, 1.010997e+003
3.981378e+002, 1.009173e+003
3.986199e+002, 1.008973e+003
3.991020e+002, 1.008667e+003
3.995841e+002, 1.008513e+003
4.000663e+002, 1.008202e+003
4.005484e+002, 1.006938e+003
4.010305e+002, 1.003935e+003
4.015126e+002, 1.000961e+003
4.019947e+002, 9.985646e+002
4.024768e+002, 9.968395e+002
4.029590e+002, 9.954156e+002
4.034411e+002, 9.947375e+002
4.039232e+002, 9.938635e+002
4.044053e+002, 9.914832e+002
4.048874e+002, 9.869559e+002
4.053695e+002, 9.831785e+002
4.058517e+002, 9.808593e+002
4.063338e+002, 9.796967e+002
4.068159e+002, 9.780727e+002
4.072980e+002, 9.757787e+002
4.077801e+002, 9.740647e+002
4.082622e+002, 9.740314e+002
4.087444e+002, 9.755651e+002
4.092265e+002, 9.771072e+002
4.097086e+002, 9.785204e+002
4.101907e+002, 9.799043e+002
4.106728e+002, 9.814274e+002
4.111549e+002, 9.830674e+002
4.116371e+002, 9.847006e+002
4.121192e+002, 9.861267e+002
4.126013e+002, 9.875051e+002
4.130834e+002, 9.891125e+002
