##NAMES=Yofortierite
##RRUFFID=R080111
##IDEAL CHEMISTRY=(Mn^2+^,Mg,Fe^3+^)_5_Si_8_O_20_(OH,H_2_O)_2_&#183;7H_2_O
##LOCALITY=Mont Saint-Hilaire, Quebec, Canada
##OWNER=RRUFF
##SOURCE=William W. Pinch
##DESCRIPTION=Orange-brown thin fibers associated with albite
##STATUS=The identification of this mineral is not yet confirmed.
##URL=rruff.info/R080111
92.52344, 30436.94
93.00555, 30064.26
93.48767, 30120.42
93.96979, 31351.96
94.45190, 32615.21
94.93402, 33784.58
95.41614, 34419.14
95.89825, 34679.34
96.38037, 34846.37
96.86249, 34925.10
97.34460, 34945.34
97.82672, 34950.23
98.30884, 34932.73
98.79095, 34898.37
99.27307, 34801.77
99.75519, 34621.89
100.2373, 34453.13
100.7194, 34321.79
101.2015, 34215.66
101.6837, 34121.44
102.1658, 34042.16
102.6479, 33979.00
103.1300, 33929.46
103.6121, 33894.87
104.0942, 33878.07
104.5764, 33871.49
105.0585, 33869.71
105.5406, 33868.86
106.0227, 33868.83
106.5048, 33869.26
106.9869, 33854.70
107.4691, 33842.47
107.9512, 33835.05
108.4333, 33834.45
108.9154, 33846.33
109.3975, 33880.96
109.8796, 33943.61
110.3618, 33986.35
110.8439, 33988.12
111.3260, 33985.82
111.8081, 33995.66
112.2902, 34018.98
112.7723, 34046.27
113.2544, 34063.93
113.7366, 34062.54
114.2187, 34068.98
114.7008, 34087.47
115.1829, 34110.39
115.6650, 34130.44
116.1471, 34144.95
116.6293, 34156.85
117.1114, 34174.13
117.5935, 34204.14
118.0756, 34224.70
118.5577, 34222.41
119.0398, 34205.66
119.5220, 34195.20
120.0041, 34201.98
120.4862, 34219.27
120.9683, 34230.16
121.4504, 34230.19
121.9325, 34230.64
122.4147, 34244.31
122.8968, 34272.68
123.3789, 34293.57
123.8610, 34283.41
124.3431, 34263.45
124.8252, 34253.74
125.3074, 34261.54
125.7895, 34281.30
126.2716, 34303.41
126.7537, 34333.07
127.2358, 34354.46
127.7179, 34360.15
128.2001, 34356.80
128.6822, 34353.59
129.1643, 34356.79
129.6464, 34365.48
130.1285, 34367.14
130.6107, 34347.76
131.0928, 34334.73
131.5749, 34338.38
132.0570, 34354.59
132.5391, 34372.85
133.0212, 34383.64
133.5034, 34385.37
133.9855, 34392.58
134.4676, 34411.00
134.9497, 34429.53
135.4318, 34442.66
135.9139, 34449.73
136.3960, 34452.25
136.8782, 34449.86
137.3603, 34440.29
137.8424, 34441.07
138.3245, 34459.60
138.8066, 34486.44
139.2887, 34512.82
139.7709, 34538.05
140.2530, 34557.21
140.7351, 34560.53
141.2172, 34549.68
141.6993, 34538.28
142.1814, 34529.25
142.6636, 34523.56
143.1457, 34525.31
143.6278, 34537.98
144.1099, 34556.21
144.5920, 34576.21
145.0741, 34597.72
145.5563, 34618.31
146.0384, 34636.18
146.5205, 34651.34
147.0026, 34664.01
147.4847, 34674.10
147.9668, 34681.81
148.4490, 34687.23
148.9311, 34690.30
149.4132, 34690.66
149.8953, 34686.13
150.3774, 34669.38
150.8595, 34663.29
151.3417, 34672.04
151.8238, 34688.22
152.3059, 34709.87
152.7880, 34735.35
153.2701, 34758.85
153.7522, 34765.35
154.2344, 34724.38
154.7165, 34700.13
155.1986, 34708.12
155.6807, 34730.33
156.1628, 34742.00
156.6449, 34729.63
157.1271, 34701.97
157.6092, 34695.77
158.0913, 34728.70
158.5734, 34758.90
159.0555, 34777.17
159.5376, 34784.22
160.0198, 34780.45
160.5019, 34762.64
160.9840, 34735.85
161.4661, 34718.96
161.9482, 34713.78
162.4303, 34715.73
162.9125, 34725.96
163.3946, 34743.95
163.8767, 34757.87
164.3588, 34760.31
164.8409, 34753.63
165.3230, 34740.87
165.8052, 34715.43
166.2873, 34690.57
166.7694, 34686.72
167.2515, 34709.72
167.7336, 34733.93
168.2157, 34748.46
168.6979, 34756.63
169.1800, 34761.46
169.6621, 34763.67
170.1442, 34763.91
170.6263, 34764.22
171.1084, 34766.01
171.5906, 34765.59
172.0727, 34760.20
172.5548, 34752.53
173.0369, 34746.29
173.5190, 34743.71
174.0011, 34744.45
174.4833, 34745.90
174.9654, 34751.44
175.4475, 34753.90
175.9296, 34748.03
176.4117, 34737.90
176.8938, 34731.20
177.3760, 34734.28
177.8581, 34747.51
178.3402, 34755.43
178.8223, 34756.61
179.3044, 34754.80
179.7865, 34748.06
180.2687, 34738.80
180.7508, 34734.04
181.2329, 34741.77
181.7150, 34764.14
182.1971, 34766.83
182.6792, 34731.50
183.1614, 34694.93
183.6435, 34678.98
184.1256, 34684.15
184.6077, 34696.67
185.0898, 34705.70
185.5719, 34710.66
186.0541, 34713.54
186.5362, 34710.93
187.0183, 34707.93
187.5004, 34711.08
187.9825, 34721.41
188.4646, 34729.89
188.9468, 34724.96
189.4289, 34710.05
189.9110, 34699.27
190.3931, 34700.53
190.8752, 34706.38
191.3573, 34704.46
191.8395, 34691.88
192.3216, 34677.46
192.8037, 34664.98
193.2858, 34655.61
193.7679, 34653.28
194.2500, 34672.25
194.7322, 34701.17
195.2143, 34698.93
195.6964, 34642.75
196.1785, 34589.59
196.6606, 34572.06
197.1427, 34580.34
197.6249, 34593.52
198.1070, 34600.04
198.5891, 34600.12
199.0712, 34596.27
199.5533, 34584.49
200.0354, 34572.48
200.5176, 34563.45
200.9997, 34556.46
201.4818, 34548.77
201.9639, 34536.54
202.4460, 34519.34
202.9281, 34513.02
203.4103, 34530.69
203.8924, 34548.07
204.3745, 34560.09
204.8566, 34566.04
205.3387, 34565.68
205.8208, 34557.45
206.3030, 34539.48
206.7851, 34532.23
207.2672, 34540.50
207.7493, 34553.83
208.2314, 34576.00
208.7135, 34601.61
209.1957, 34615.35
209.6778, 34599.62
210.1599, 34546.47
210.6420, 34529.63
211.1241, 34583.30
211.6062, 34635.78
212.0884, 34647.27
212.5705, 34619.52
213.0526, 34579.71
213.5347, 34549.79
214.0168, 34530.87
214.4989, 34520.98
214.9811, 34531.96
215.4632, 34542.03
215.9453, 34533.51
216.4274, 34506.73
216.9095, 34479.55
217.3916, 34468.93
217.8737, 34475.23
218.3559, 34472.54
218.8380, 34449.46
219.3201, 34424.64
219.8022, 34415.00
220.2843, 34421.91
220.7664, 34434.84
221.2486, 34450.52
221.7307, 34466.18
222.2128, 34469.71
222.6949, 34449.50
223.1770, 34421.36
223.6591, 34402.57
224.1413, 34394.14
224.6234, 34390.49
225.1055, 34389.81
225.5876, 34390.86
226.0697, 34391.71
226.5518, 34391.20
227.0340, 34390.32
227.5161, 34390.42
227.9982, 34391.29
228.4803, 34393.34
228.9624, 34400.13
229.4445, 34407.38
229.9267, 34408.43
230.4088, 34397.92
230.8909, 34382.35
231.3730, 34376.63
231.8551, 34387.89
232.3372, 34390.82
232.8194, 34369.59
233.3015, 34336.78
233.7836, 34305.25
234.2657, 34278.87
234.7478, 34259.21
235.2299, 34252.62
235.7121, 34270.54
236.1942, 34278.21
236.6763, 34257.98
237.1584, 34227.12
237.6405, 34203.07
238.1227, 34193.30
238.6048, 34194.37
239.0869, 34199.03
239.5690, 34214.04
240.0511, 34220.04
240.5332, 34211.11
241.0154, 34194.03
241.4975, 34172.05
241.9796, 34146.31
242.4617, 34123.27
242.9438, 34121.86
243.4259, 34168.01
243.9081, 34194.61
244.3902, 34181.48
244.8723, 34153.73
245.3544, 34133.56
245.8365, 34129.74
246.3186, 34138.25
246.8008, 34150.43
247.2829, 34171.32
247.7650, 34188.27
248.2471, 34202.15
248.7292, 34211.31
249.2113, 34213.89
249.6935, 34209.28
250.1756, 34198.74
250.6577, 34184.06
251.1398, 34151.60
251.6219, 34135.86
252.1040, 34154.75
252.5862, 34179.94
253.0683, 34183.14
253.5504, 34157.04
254.0325, 34119.12
254.5146, 34098.24
254.9967, 34108.71
255.4789, 34111.31
255.9610, 34101.09
256.4431, 34086.34
256.9252, 34074.79
257.4073, 34068.19
257.8894, 34062.04
258.3716, 34049.25
258.8537, 34023.67
259.3358, 34010.02
259.8179, 34022.32
260.3000, 34038.30
260.7821, 34037.03
261.2643, 34015.30
261.7464, 33986.68
262.2285, 33964.54
262.7106, 33949.48
263.1927, 33941.79
263.6748, 33946.21
264.1570, 33954.71
264.6391, 33964.54
265.1212, 33974.43
265.6033, 33974.91
266.0854, 33952.60
266.5675, 33906.35
267.0497, 33876.11
267.5318, 33873.40
268.0139, 33879.59
268.4960, 33879.23
268.9781, 33871.80
269.4602, 33868.34
269.9424, 33881.80
270.4245, 33907.77
270.9066, 33915.95
271.3887, 33894.79
271.8708, 33864.10
272.3529, 33837.52
272.8351, 33815.11
273.3172, 33793.52
273.7993, 33770.37
274.2814, 33746.88
274.7635, 33725.93
275.2456, 33706.57
275.7278, 33691.22
276.2099, 33682.34
276.6920, 33679.57
277.1741, 33679.95
277.6562, 33683.95
278.1383, 33689.14
278.6205, 33691.21
279.1026, 33690.42
279.5847, 33685.77
280.0668, 33672.73
280.5489, 33653.29
281.0310, 33640.07
281.5132, 33638.33
281.9953, 33644.39
282.4774, 33653.11
282.9595, 33665.21
283.4416, 33675.03
283.9237, 33679.98
284.4059, 33679.97
284.8880, 33673.64
285.3701, 33656.84
285.8522, 33638.72
286.3343, 33631.39
286.8164, 33634.18
287.2986, 33632.39
287.7807, 33611.55
288.2628, 33579.11
288.7449, 33561.46
289.2270, 33568.89
289.7091, 33579.48
290.1913, 33573.08
290.6734, 33553.95
291.1555, 33536.91
291.6376, 33534.68
292.1197, 33538.98
292.6018, 33527.98
293.0840, 33495.14
293.5661, 33460.36
294.0482, 33434.38
294.5303, 33415.91
295.0124, 33403.48
295.4945, 33398.05
295.9767, 33397.82
296.4588, 33402.32
296.9409, 33415.09
297.4230, 33420.38
297.9051, 33401.22
298.3872, 33372.50
298.8694, 33352.39
299.3515, 33349.59
299.8336, 33351.21
300.3157, 33337.71
300.7978, 33305.72
301.2799, 33278.49
301.7621, 33271.75
302.2442, 33270.18
302.7263, 33258.05
303.2084, 33230.55
303.6905, 33203.85
304.1726, 33198.65
304.6548, 33216.23
305.1369, 33224.37
305.6190, 33206.56
306.1011, 33183.46
306.5832, 33172.59
307.0653, 33174.73
307.5475, 33176.46
308.0296, 33163.78
308.5117, 33138.51
308.9938, 33122.00
309.4759, 33120.77
309.9580, 33125.25
310.4402, 33132.77
310.9223, 33141.15
311.4044, 33142.76
311.8865, 33129.34
312.3686, 33104.29
312.8507, 33081.11
313.3329, 33056.42
313.8150, 33040.20
314.2971, 33041.46
314.7792, 33053.16
315.2613, 33062.07
315.7434, 33059.02
316.2256, 33051.43
316.7077, 33059.64
317.1898, 33093.88
317.6719, 33114.82
318.1540, 33091.23
318.6361, 33050.80
319.1183, 33022.93
319.6004, 33017.60
320.0825, 33023.59
320.5646, 33026.64
321.0467, 33026.25
321.5288, 33026.43
322.0110, 33034.60
322.4931, 33039.78
322.9752, 33031.52
323.4573, 33008.01
323.9394, 32979.83
324.4215, 32956.00
324.9037, 32936.58
325.3858, 32917.07
325.8679, 32892.11
326.3500, 32872.34
326.8321, 32867.89
327.3142, 32876.63
327.7964, 32884.97
328.2785, 32885.84
328.7606, 32879.34
329.2427, 32864.15
329.7248, 32834.58
330.2069, 32806.27
330.6891, 32789.44
331.1712, 32780.66
331.6533, 32772.73
332.1354, 32761.87
332.6175, 32750.15
333.0996, 32741.22
333.5818, 32734.56
334.0639, 32732.24
334.5460, 32745.14
335.0281, 32759.51
335.5102, 32756.80
335.9923, 32726.83
336.4745, 32690.78
336.9566, 32674.30
337.4387, 32678.53
337.9208, 32683.33
338.4029, 32684.18
338.8850, 32681.07
339.3671, 32671.91
339.8492, 32655.85
340.3314, 32643.15
340.8135, 32649.52
341.2956, 32669.66
341.7777, 32667.09
342.2598, 32621.28
342.7419, 32571.39
343.2241, 32552.80
343.7062, 32560.38
344.1883, 32570.31
344.6704, 32573.48
345.1525, 32570.73
345.6346, 32562.81
346.1168, 32548.42
346.5989, 32533.15
347.0810, 32519.12
347.5631, 32507.16
348.0452, 32499.91
348.5273, 32503.01
349.0095, 32506.71
349.4916, 32500.90
349.9737, 32485.61
350.4558, 32462.06
350.9379, 32422.47
351.4200, 32380.21
351.9022, 32356.84
352.3843, 32357.95
352.8664, 32365.55
353.3485, 32372.51
353.8306, 32377.31
354.3127, 32372.50
354.7949, 32352.52
355.2770, 32327.83
355.7591, 32309.77
356.2412, 32297.77
356.7233, 32293.06
357.2054, 32307.11
357.6876, 32325.19
358.1697, 32319.20
358.6518, 32282.42
359.1339, 32243.96
359.6160, 32231.85
360.0981, 32241.18
360.5803, 32245.07
361.0624, 32236.37
361.5445, 32224.23
362.0266, 32215.93
362.5087, 32211.24
362.9908, 32207.50
363.4730, 32204.90
363.9551, 32201.07
364.4372, 32188.67
364.9193, 32160.67
365.4014, 32136.46
365.8835, 32125.87
366.3657, 32124.51
366.8478, 32123.70
367.3299, 32120.57
367.8120, 32116.85
368.2941, 32114.80
368.7762, 32113.71
369.2584, 32116.67
369.7405, 32133.08
370.2226, 32148.47
370.7047, 32145.79
371.1868, 32123.83
371.6689, 32098.57
372.1511, 32084.92
372.6332, 32083.59
373.1153, 32074.01
373.5974, 32052.70
374.0795, 32027.67
374.5616, 32001.05
375.0438, 31973.81
375.5259, 31945.77
376.0080, 31916.01
376.4901, 31887.77
376.9722, 31873.39
377.4543, 31886.37
377.9365, 31895.28
378.4186, 31895.69
378.9007, 31890.83
379.3828, 31882.43
379.8649, 31871.39
380.3470, 31861.22
380.8292, 31857.55
381.3113, 31864.77
381.7934, 31864.67
382.2755, 31854.10
382.7576, 31840.06
383.2397, 31824.99
383.7219, 31809.94
384.2040, 31796.26
384.6861, 31784.99
385.1682, 31776.24
385.6503, 31770.16
386.1324, 31778.90
386.6146, 31776.97
387.0967, 31747.16
387.5788, 31708.60
388.0609, 31687.43
388.5430, 31694.72
389.0251, 31716.63
389.5073, 31725.16
389.9894, 31714.20
390.4715, 31701.61
390.9536, 31686.20
391.4357, 31671.06
391.9178, 31655.15
392.4000, 31640.11
392.8821, 31632.09
393.3642, 31640.81
393.8463, 31667.08
394.3284, 31677.93
394.8105, 31656.27
395.2927, 31638.23
395.7748, 31640.75
396.2569, 31654.23
396.7390, 31662.49
397.2211, 31657.34
397.7032, 31642.73
398.1854, 31626.27
398.6675, 31606.44
399.1496, 31589.64
399.6317, 31583.03
400.1138, 31576.96
400.5959, 31561.85
401.0781, 31536.43
401.5602, 31512.34
402.0423, 31501.84
402.5244, 31503.74
403.0065, 31504.17
403.4886, 31500.71
403.9708, 31496.83
404.4529, 31495.24
404.9350, 31495.18
405.4171, 31494.50
405.8992, 31492.86
406.3813, 31489.71
406.8635, 31482.75
407.3456, 31471.25
407.8277, 31462.55
408.3098, 31462.30
408.7919, 31466.16
409.2740, 31466.41
409.7562, 31461.24
410.2383, 31456.21
410.7204, 31458.22
411.2025, 31463.33
411.6846, 31458.34
412.1667, 31437.58
412.6489, 31412.69
413.1310, 31398.39
413.6131, 31394.19
414.0952, 31389.99
414.5773, 31385.92
415.0594, 31379.91
415.5416, 31366.97
416.0237, 31348.33
416.5058, 31335.02
416.9879, 31335.53
417.4700, 31346.91
417.9521, 31353.04
418.4343, 31352.60
418.9164, 31349.31
419.3985, 31338.82
419.8806, 31327.55
420.3627, 31327.54
420.8448, 31342.44
421.3270, 31360.96
421.8091, 31365.87
422.2912, 31350.58
422.7733, 31339.50
423.2554, 31335.74
423.7375, 31333.05
424.2197, 31329.61
424.7018, 31324.21
425.1839, 31314.25
425.6660, 31297.12
426.1481, 31274.61
426.6302, 31258.65
427.1124, 31259.73
427.5945, 31254.87
428.0766, 31235.20
428.5587, 31211.67
429.0408, 31194.91
429.5229, 31188.28
430.0051, 31188.07
430.4872, 31190.41
430.9693, 31196.90
431.4514, 31199.65
431.9335, 31203.15
432.4156, 31198.33
432.8978, 31173.96
433.3799, 31137.70
433.8620, 31108.12
434.3441, 31098.14
434.8262, 31101.76
435.3083, 31102.85
435.7905, 31102.13
436.2726, 31096.68
436.7547, 31080.58
437.2368, 31061.66
437.7189, 31045.85
438.2010, 31034.06
438.6832, 31027.00
439.1653, 31030.88
439.6474, 31041.98
440.1295, 31037.60
440.6116, 31006.88
441.0938, 30974.43
441.5759, 30960.83
442.0580, 30962.31
442.5401, 30970.09
443.0222, 30990.28
443.5043, 31009.82
443.9865, 31015.46
444.4686, 31007.92
444.9507, 30992.82
445.4328, 30968.35
445.9149, 30942.47
446.3970, 30936.01
446.8792, 30957.37
447.3613, 30970.61
447.8434, 30961.25
448.3255, 30940.75
448.8076, 30922.29
449.2897, 30908.25
449.7719, 30895.25
450.2540, 30879.24
450.7361, 30859.79
451.2182, 30849.60
451.7003, 30857.67
452.1824, 30863.83
452.6646, 30861.03
453.1467, 30851.35
453.6288, 30837.62
454.1109, 30821.02
454.5930, 30803.96
455.0751, 30790.81
455.5573, 30780.46
456.0394, 30776.57
456.5215, 30784.22
457.0036, 30792.70
457.4857, 30796.49
457.9678, 30795.24
458.4500, 30790.30
458.9321, 30781.43
459.4142, 30770.18
459.8963, 30766.50
460.3784, 30776.63
460.8605, 30783.21
461.3427, 30781.82
461.8248, 30775.21
462.3069, 30766.09
462.7890, 30755.19
463.2711, 30741.06
463.7532, 30718.01
464.2354, 30687.34
464.7175, 30670.51
465.1996, 30677.26
465.6817, 30686.77
466.1638, 30682.81
466.6459, 30669.91
467.1281, 30659.35
467.6102, 30655.47
468.0923, 30654.74
468.5744, 30652.73
469.0565, 30649.71
469.5386, 30651.09
470.0208, 30662.37
470.5029, 30674.46
470.9850, 30668.81
471.4671, 30642.31
471.9492, 30619.71
472.4313, 30608.62
472.9135, 30603.59
473.3956, 30601.69
473.8777, 30601.50
474.3598, 30596.37
474.8419, 30580.31
475.3240, 30554.87
475.8062, 30534.58
476.2883, 30529.71
476.7704, 30517.18
477.2525, 30482.60
477.7346, 30442.44
478.2167, 30417.46
478.6989, 30412.67
479.1810, 30416.80
479.6631, 30415.16
480.1452, 30405.58
480.6273, 30401.12
481.1094, 30413.02
481.5916, 30418.12
482.0737, 30402.97
482.5558, 30376.54
483.0379, 30354.71
483.5200, 30345.26
484.0021, 30342.61
484.4843, 30336.19
484.9664, 30324.89
485.4485, 30314.57
485.9306, 30308.45
486.4127, 30301.81
486.8948, 30290.46
487.3770, 30275.27
487.8591, 30261.66
488.3412, 30256.73
488.8233, 30254.38
489.3054, 30239.90
489.7875, 30211.72
490.2697, 30187.69
490.7518, 30179.03
491.2339, 30179.51
491.7160, 30175.66
492.1981, 30166.68
492.6802, 30155.92
493.1624, 30143.77
493.6445, 30131.13
494.1266, 30119.78
494.6087, 30109.91
495.0908, 30099.46
495.5729, 30086.47
496.0551, 30070.96
496.5372, 30054.97
497.0193, 30035.84
497.5014, 30019.40
497.9835, 30008.75
498.4656, 30001.31
498.9478, 29994.62
499.4299, 29987.53
499.9120, 29977.91
500.3941, 29963.23
500.8762, 29944.04
501.3583, 29916.71
501.8405, 29865.24
502.3226, 29821.90
502.8047, 29802.01
503.2868, 29798.15
503.7689, 29796.81
504.2510, 29791.55
504.7331, 29784.63
505.2152, 29782.03
505.6974, 29785.77
506.1795, 29781.25
506.6616, 29760.41
507.1437, 29735.06
507.6258, 29712.70
508.1079, 29693.45
508.5901, 29677.09
509.0722, 29663.83
509.5543, 29653.37
510.0364, 29646.21
510.5185, 29642.33
511.0006, 29637.80
511.4828, 29631.19
511.9649, 29622.41
512.4470, 29611.03
512.9291, 29596.37
513.4113, 29581.65
513.8934, 29562.87
514.3755, 29547.30
514.8576, 29546.67
515.3397, 29559.48
515.8218, 29570.35
516.3040, 29568.02
516.7861, 29553.60
517.2682, 29535.57
517.7503, 29506.87
518.2324, 29483.31
518.7145, 29468.94
519.1967, 29458.54
519.6788, 29446.69
520.1609, 29432.75
520.6430, 29420.62
521.1251, 29415.70
521.6072, 29417.53
522.0894, 29411.66
522.5715, 29393.08
523.0536, 29374.54
523.5357, 29363.29
524.0178, 29353.16
524.4999, 29335.60
524.9821, 29307.77
525.4642, 29279.56
525.9463, 29257.62
526.4284, 29242.52
526.9105, 29240.16
527.3926, 29257.89
527.8748, 29268.99
528.3569, 29244.88
528.8390, 29196.38
529.3211, 29160.77
529.8032, 29151.64
530.2853, 29145.00
530.7675, 29126.24
531.2496, 29101.12
531.7317, 29082.36
532.2138, 29073.63
532.6959, 29065.93
533.1780, 29046.78
533.6602, 29012.15
534.1423, 28991.10
534.6244, 28994.87
535.1065, 28997.34
535.5886, 28990.51
536.0707, 28975.42
536.5529, 28952.52
537.0350, 28922.45
537.5171, 28891.16
537.9992, 28869.55
538.4813, 28860.05
538.9634, 28847.89
539.4456, 28826.23
539.9277, 28809.28
540.4098, 28808.29
540.8919, 28816.13
541.3740, 28818.23
541.8561, 28807.94
542.3383, 28791.88
542.8204, 28778.10
543.3025, 28766.11
543.7846, 28750.25
544.2667, 28726.16
544.7488, 28703.54
545.2310, 28697.57
545.7131, 28705.80
546.1952, 28704.28
546.6773, 28683.87
547.1594, 28657.87
547.6415, 28628.39
548.1237, 28600.45
548.6058, 28588.04
549.0879, 28597.59
549.5700, 28613.75
550.0521, 28610.03
550.5342, 28576.12
551.0164, 28554.29
551.4985, 28546.66
551.9806, 28547.12
552.4627, 28562.08
552.9448, 28581.49
553.4269, 28586.77
553.9091, 28568.45
554.3912, 28538.65
554.8733, 28518.49
555.3554, 28509.28
555.8375, 28499.02
556.3196, 28482.67
556.8018, 28469.00
557.2839, 28468.76
557.7660, 28475.57
558.2481, 28470.63
558.7302, 28437.43
559.2123, 28401.51
559.6945, 28395.59
560.1766, 28411.81
560.6587, 28412.88
561.1408, 28384.86
561.6229, 28347.18
562.1050, 28322.77
562.5872, 28313.80
563.0693, 28308.31
563.5514, 28310.63
564.0335, 28312.08
564.5156, 28306.86
564.9977, 28297.85
565.4799, 28291.38
565.9620, 28289.81
566.4441, 28288.55
566.9262, 28279.06
567.4083, 28257.37
567.8904, 28243.11
568.3726, 28245.95
568.8547, 28246.16
569.3368, 28237.46
569.8189, 28221.38
570.3010, 28199.86
570.7831, 28172.35
571.2653, 28144.95
571.7474, 28124.28
572.2295, 28110.05
572.7116, 28101.16
573.1937, 28101.26
573.6758, 28097.10
574.1580, 28069.06
574.6401, 28026.18
575.1222, 28004.17
575.6043, 28022.93
576.0864, 28044.44
576.5685, 28051.48
577.0507, 28048.53
577.5328, 28042.62
578.0149, 28035.62
578.4970, 28025.98
578.9791, 28011.73
579.4612, 27992.76
579.9434, 27973.77
580.4255, 27950.63
580.9076, 27932.64
581.3897, 27928.29
581.8718, 27926.29
582.3539, 27913.55
582.8361, 27887.55
583.3182, 27857.31
583.8003, 27827.00
584.2824, 27798.37
584.7645, 27786.18
585.2466, 27793.54
585.7288, 27808.55
586.2108, 27833.90
586.6929, 27859.25
587.1750, 27868.50
587.6572, 27857.84
588.1393, 27842.39
588.6214, 27828.34
589.1035, 27813.66
589.5856, 27793.25
590.0677, 27767.87
590.5499, 27747.93
591.0320, 27741.24
591.5141, 27743.49
591.9962, 27738.91
592.4783, 27725.71
592.9604, 27707.81
593.4426, 27680.24
593.9247, 27652.50
594.4068, 27631.97
594.8889, 27617.74
595.3710, 27603.90
595.8531, 27586.47
596.3353, 27567.88
596.8174, 27552.81
597.2995, 27541.14
597.7816, 27535.94
598.2637, 27547.87
598.7458, 27555.51
599.2280, 27534.21
599.7101, 27490.31
600.1922, 27458.55
600.6743, 27460.24
601.1564, 27469.13
601.6385, 27463.79
602.1207, 27447.39
602.6028, 27428.10
603.0849, 27408.18
603.5670, 27391.84
604.0491, 27386.45
604.5313, 27395.94
605.0134, 27390.75
605.4955, 27349.92
605.9776, 27320.40
606.4597, 27330.51
606.9418, 27354.71
607.4240, 27358.81
607.9061, 27333.67
608.3882, 27297.57
608.8703, 27267.37
609.3524, 27243.48
609.8345, 27231.88
610.3167, 27237.96
610.7988, 27243.79
611.2809, 27241.50
611.7630, 27233.39
612.2451, 27222.33
612.7272, 27208.66
613.2094, 27191.73
613.6915, 27169.28
614.1736, 27144.46
614.6557, 27118.26
615.1378, 27092.25
615.6199, 27075.33
616.1021, 27073.81
616.5842, 27082.55
617.0663, 27087.38
617.5484, 27088.57
618.0305, 27084.58
618.5126, 27072.25
618.9948, 27057.90
619.4769, 27043.73
619.9590, 27030.46
620.4411, 27019.85
620.9232, 27013.65
621.4053, 27006.65
621.8875, 26986.19
622.3696, 26952.74
622.8517, 26934.40
623.3338, 26941.91
623.8159, 26954.07
624.2980, 26954.37
624.7802, 26945.30
625.2623, 26934.15
625.7444, 26921.67
626.2265, 26907.51
626.7086, 26889.42
627.1907, 26870.50
627.6729, 26856.93
628.1550, 26848.91
628.6371, 26838.11
629.1192, 26815.70
629.6013, 26784.35
630.0834, 26768.72
630.5656, 26790.20
631.0477, 26790.90
631.5298, 26741.61
632.0119, 26687.35
632.4940, 26662.25
632.9761, 26665.57
633.4583, 26674.76
633.9404, 26681.08
634.4225, 26681.70
634.9046, 26669.40
635.3867, 26645.19
635.8688, 26621.69
636.3510, 26601.73
636.8331, 26586.97
637.3152, 26581.75
637.7973, 26587.63
638.2794, 26584.45
638.7615, 26567.05
639.2437, 26546.16
639.7258, 26522.21
640.2079, 26498.97
640.6900, 26482.18
641.1721, 26472.76
641.6542, 26465.94
642.1364, 26456.44
642.6185, 26444.59
643.1006, 26437.36
643.5827, 26441.57
644.0648, 26435.03
644.5469, 26396.37
645.0291, 26351.74
645.5112, 26324.51
645.9933, 26316.40
646.4754, 26313.74
646.9575, 26314.51
647.4396, 26315.00
647.9218, 26312.63
648.4039, 26306.70
648.8860, 26293.07
649.3681, 26269.14
649.8502, 26244.26
650.3323, 26234.11
650.8145, 26245.07
651.2966, 26241.17
651.7787, 26207.73
652.2608, 26176.92
652.7429, 26162.60
653.2250, 26154.45
653.7072, 26137.49
654.1893, 26108.32
654.6714, 26079.79
655.1535, 26065.03
655.6356, 26060.56
656.1177, 26053.00
656.5999, 26040.88
657.0820, 26036.80
657.5641, 26051.96
658.0462, 26073.67
658.5283, 26075.63
659.0104, 26053.56
659.4926, 26038.45
659.9747, 26043.44
660.4568, 26048.29
660.9389, 26039.42
661.4210, 26020.54
661.9031, 25999.68
662.3853, 25980.05
662.8674, 25962.76
663.3495, 25950.11
663.8316, 25942.39
664.3137, 25931.84
664.7958, 25915.36
665.2780, 25901.35
665.7601, 25895.14
666.2422, 25892.51
666.7243, 25888.66
667.2064, 25882.84
667.6885, 25878.38
668.1707, 25883.06
668.6528, 25885.99
669.1349, 25872.32
669.6170, 25844.66
670.0991, 25815.35
670.5812, 25789.90
671.0634, 25769.46
671.5455, 25756.51
672.0276, 25753.65
672.5097, 25749.31
672.9918, 25745.16
673.4739, 25737.70
673.9561, 25722.08
674.4382, 25704.23
674.9203, 25692.39
675.4024, 25688.62
675.8845, 25685.65
676.3666, 25676.95
676.8488, 25665.00
677.3309, 25655.77
677.8130, 25649.42
678.2951, 25639.87
678.7772, 25621.31
679.2593, 25603.39
679.7415, 25606.02
680.2236, 25642.31
680.7057, 25657.61
681.1878, 25644.06
681.6699, 25618.39
682.1520, 25575.31
682.6342, 25529.64
683.1163, 25503.54
683.5984, 25502.85
684.0805, 25512.81
684.5626, 25524.16
685.0447, 25533.86
685.5269, 25520.21
686.0090, 25477.00
686.4911, 25444.19
686.9732, 25444.76
687.4553, 25460.28
687.9374, 25460.20
688.4196, 25442.96
688.9017, 25429.45
689.3838, 25428.13
689.8659, 25426.38
690.3480, 25414.73
690.8301, 25398.03
691.3123, 25385.38
691.7944, 25379.57
692.2765, 25375.64
692.7586, 25367.76
693.2407, 25356.20
693.7228, 25345.65
694.2050, 25335.89
694.6871, 25327.16
695.1692, 25320.88
695.6513, 25314.41
696.1334, 25303.50
696.6155, 25288.15
697.0977, 25276.71
697.5798, 25275.78
698.0619, 25275.64
698.5440, 25268.70
699.0261, 25257.27
699.5082, 25247.00
699.9904, 25239.35
700.4725, 25230.22
700.9546, 25213.50
701.4367, 25190.54
701.9188, 25183.00
702.4009, 25203.50
702.8831, 25214.43
703.3652, 25197.90
703.8473, 25174.74
704.3294, 25160.57
704.8115, 25154.54
705.2936, 25145.53
705.7758, 25123.21
706.2579, 25102.05
706.7400, 25095.94
707.2221, 25099.54
707.7042, 25100.32
708.1863, 25095.51
708.6685, 25092.46
709.1506, 25099.03
709.6327, 25112.89
710.1148, 25116.50
710.5969, 25106.37
711.0790, 25092.15
711.5612, 25067.90
712.0433, 25046.41
712.5254, 25038.78
713.0075, 25041.24
713.4896, 25040.66
713.9717, 25029.74
714.4539, 25018.48
714.9360, 25018.44
715.4181, 25024.28
715.9002, 25024.98
716.3823, 25018.60
716.8644, 25003.45
717.3466, 24975.74
717.8287, 24942.01
718.3108, 24926.95
718.7929, 24943.90
719.2750, 24954.34
719.7571, 24958.12
720.2393, 24954.50
720.7214, 24936.77
721.2035, 24912.72
721.6856, 24897.61
722.1677, 24897.99
722.6498, 24899.59
723.1320, 24889.31
723.6141, 24872.08
724.0962, 24857.25
724.5783, 24845.61
725.0604, 24836.54
725.5425, 24829.96
726.0247, 24825.08
726.5068, 24820.39
726.9889, 24816.24
727.4710, 24811.47
727.9531, 24805.07
728.4352, 24799.46
728.9174, 24798.50
729.3995, 24797.40
729.8816, 24788.07
730.3637, 24769.18
730.8458, 24752.56
731.3279, 24750.13
731.8101, 24753.22
732.2922, 24746.38
732.7743, 24731.04
733.2564, 24719.53
733.7385, 24717.13
734.2206, 24714.18
734.7028, 24695.83
735.1849, 24659.69
735.6670, 24644.26
736.1491, 24669.92
736.6312, 24690.56
737.1133, 24701.41
737.5955, 24702.54
738.0776, 24689.32
738.5597, 24665.15
739.0418, 24645.10
739.5239, 24634.53
740.0060, 24634.55
740.4882, 24655.75
740.9703, 24688.61
741.4524, 24701.55
741.9345, 24688.05
742.4166, 24666.52
742.8987, 24651.79
743.3809, 24641.96
743.8630, 24627.39
744.3451, 24601.10
744.8272, 24582.69
745.3093, 24580.64
745.7914, 24578.82
746.2736, 24569.19
746.7557, 24553.21
747.2378, 24532.42
747.7199, 24504.22
748.2020, 24485.07
748.6841, 24496.22
749.1663, 24520.99
749.6484, 24530.73
750.1305, 24524.63
750.6126, 24515.31
751.0947, 24509.25
751.5768, 24503.27
752.0590, 24490.17
752.5411, 24466.15
753.0232, 24454.30
753.5053, 24474.25
753.9874, 24479.94
754.4695, 24439.72
754.9517, 24389.81
755.4338, 24372.58
755.9159, 24391.51
756.3980, 24409.28
756.8801, 24407.72
757.3622, 24397.44
757.8444, 24385.67
758.3265, 24373.60
758.8086, 24364.26
759.2907, 24358.21
759.7728, 24351.90
760.2549, 24341.67
760.7371, 24328.45
761.2192, 24318.57
761.7013, 24314.07
762.1834, 24307.54
762.6655, 24295.81
763.1476, 24284.03
763.6298, 24277.50
764.1119, 24273.76
764.5940, 24264.76
765.0761, 24243.99
765.5582, 24228.17
766.0403, 24228.38
766.5225, 24235.85
767.0046, 24244.34
767.4867, 24250.93
767.9688, 24249.54
768.4509, 24236.85
768.9330, 24218.62
769.4152, 24204.77
769.8973, 24195.35
770.3794, 24181.41
770.8615, 24157.89
771.3436, 24143.24
771.8257, 24149.84
772.3079, 24166.68
772.7900, 24179.31
773.2721, 24188.05
773.7542, 24189.72
774.2363, 24180.60
774.7184, 24168.10
775.2006, 24152.57
775.6827, 24137.78
776.1648, 24131.28
776.6469, 24132.23
777.1290, 24128.19
777.6111, 24105.85
778.0933, 24077.49
778.5754, 24075.46
779.0575, 24098.49
779.5396, 24111.11
780.0217, 24104.54
780.5038, 24093.87
780.9860, 24092.23
781.4681, 24095.64
781.9502, 24086.27
782.4323, 24047.43
782.9144, 24023.64
783.3965, 24034.98
783.8787, 24043.90
784.3608, 24020.76
784.8429, 23982.47
785.3250, 23962.22
785.8071, 23970.54
786.2892, 23985.09
786.7714, 23990.04
787.2535, 23987.07
787.7356, 23975.69
788.2177, 23957.85
788.6998, 23946.95
789.1819, 23948.65
789.6641, 23951.53
790.1462, 23940.22
790.6283, 23914.88
791.1104, 23901.48
791.5925, 23911.87
792.0746, 23914.35
792.5568, 23895.62
793.0389, 23874.28
793.5210, 23863.30
794.0031, 23860.84
794.4852, 23858.38
794.9673, 23851.99
795.4495, 23847.65
795.9316, 23851.59
796.4137, 23858.13
796.8958, 23860.70
797.3779, 23858.46
797.8600, 23851.15
798.3422, 23838.39
798.8243, 23824.73
799.3064, 23819.50
799.7885, 23823.11
800.2706, 23818.16
800.7527, 23801.48
801.2349, 23785.54
801.7170, 23776.38
802.1991, 23769.38
802.6812, 23758.91
803.1633, 23745.23
803.6454, 23728.03
804.1276, 23699.14
804.6097, 23677.12
805.0918, 23665.74
805.5739, 23667.15
806.0560, 23694.89
806.5381, 23739.50
807.0203, 23765.09
807.5024, 23746.96
807.9845, 23712.26
808.4666, 23697.83
808.9487, 23699.15
809.4308, 23700.54
809.9130, 23700.19
810.3951, 23692.09
810.8772, 23671.12
811.3593, 23644.00
811.8414, 23624.31
812.3235, 23613.76
812.8057, 23603.29
813.2878, 23589.70
813.7699, 23579.96
814.2520, 23580.63
814.7341, 23582.69
815.2162, 23571.65
815.6984, 23549.24
816.1805, 23541.56
816.6626, 23577.95
817.1447, 23613.44
817.6268, 23611.79
818.1089, 23588.79
818.5911, 23567.04
819.0732, 23550.67
819.5553, 23535.60
820.0374, 23518.93
820.5195, 23502.85
821.0016, 23492.53
821.4838, 23488.15
821.9659, 23482.34
822.4480, 23473.21
822.9301, 23467.37
823.4122, 23470.81
823.8943, 23477.09
824.3765, 23473.17
824.8586, 23455.25
825.3407, 23447.04
825.8228, 23463.05
826.3049, 23472.22
826.7870, 23456.13
827.2692, 23433.19
827.7513, 23423.31
828.2334, 23427.06
828.7155, 23433.00
829.1976, 23438.13
829.6797, 23436.96
830.1619, 23416.19
830.6440, 23385.83
831.1261, 23372.90
831.6082, 23378.63
832.0903, 23381.60
832.5724, 23369.04
833.0546, 23348.57
833.5367, 23335.39
834.0188, 23330.65
834.5009, 23323.99
834.9830, 23313.09
835.4651, 23305.02
835.9473, 23308.90
836.4294, 23311.75
836.9115, 23293.36
837.3936, 23255.67
837.8757, 23236.03
838.3578, 23255.69
838.8400, 23275.20
839.3221, 23285.74
839.8042, 23285.04
840.2863, 23263.82
840.7684, 23229.51
841.2505, 23204.14
841.7327, 23199.13
842.2148, 23201.06
842.6969, 23194.32
843.1790, 23181.69
843.6611, 23170.79
844.1432, 23162.01
844.6254, 23153.29
845.1075, 23143.58
845.5896, 23134.46
846.0717, 23127.74
846.5538, 23123.40
847.0359, 23122.46
847.5181, 23128.12
848.0002, 23130.74
848.4823, 23131.69
848.9644, 23125.64
849.4465, 23103.74
849.9286, 23071.97
850.4108, 23048.12
850.8929, 23036.67
851.3750, 23029.66
851.8571, 23030.62
852.3392, 23029.32
852.8214, 23012.86
853.3035, 22988.71
853.7856, 22974.29
854.2677, 22974.36
854.7498, 22974.64
855.2319, 22958.10
855.7141, 22933.96
856.1962, 22925.46
856.6783, 22930.19
857.1604, 22929.91
857.6425, 22919.93
858.1246, 22908.58
858.6068, 22903.00
859.0889, 22901.32
859.5710, 22896.55
860.0531, 22888.76
860.5352, 22877.51
861.0173, 22859.98
861.4995, 22842.71
861.9816, 22826.92
862.4637, 22813.76
862.9458, 22804.91
863.4279, 22800.57
863.9100, 22798.74
864.3922, 22806.00
864.8743, 22807.37
865.3564, 22787.42
865.8385, 22761.69
866.3206, 22749.24
866.8027, 22750.47
867.2849, 22754.64
867.7670, 22756.46
868.2491, 22755.25
868.7312, 22747.75
869.2133, 22736.84
869.6954, 22733.49
870.1776, 22737.34
870.6597, 22732.34
871.1418, 22710.49
871.6239, 22683.21
872.1060, 22666.42
872.5881, 22660.12
873.0703, 22652.74
873.5524, 22644.32
874.0345, 22634.74
874.5166, 22621.26
874.9987, 22609.71
875.4808, 22608.46
875.9630, 22612.84
876.4451, 22608.13
876.9272, 22588.20
877.4093, 22570.51
877.8914, 22559.45
878.3735, 22550.54
878.8557, 22540.78
879.3378, 22531.27
879.8199, 22523.18
880.3020, 22517.08
880.7841, 22515.25
881.2662, 22525.28
881.7484, 22534.57
882.2305, 22523.36
882.7126, 22500.04
883.1947, 22485.02
883.6768, 22480.98
884.1589, 22478.51
884.6411, 22471.58
885.1232, 22462.79
885.6053, 22458.98
886.0874, 22460.53
886.5695, 22452.11
887.0516, 22431.20
887.5338, 22409.25
888.0159, 22389.95
888.4980, 22372.53
888.9801, 22355.32
889.4622, 22338.32
889.9443, 22328.19
890.4265, 22332.39
890.9086, 22332.74
891.3907, 22324.56
891.8728, 22315.08
892.3549, 22307.66
892.8370, 22302.55
893.3192, 22299.75
893.8013, 22299.32
894.2834, 22300.29
894.7655, 22308.20
895.2476, 22311.55
895.7297, 22298.50
896.2119, 22274.96
896.6940, 22248.81
897.1761, 22223.18
897.6582, 22202.32
898.1403, 22189.65
898.6224, 22181.43
899.1046, 22171.91
899.5867, 22161.35
900.0688, 22150.17
900.5509, 22138.47
901.0330, 22130.83
901.5151, 22130.32
901.9973, 22129.60
902.4794, 22117.18
902.9615, 22093.05
903.4436, 22071.57
903.9257, 22052.51
904.4078, 22036.75
904.8900, 22026.25
905.3721, 22016.87
905.8542, 22004.67
906.3363, 21991.30
906.8184, 21982.62
907.3005, 21982.70
907.7827, 21978.01
908.2648, 21964.23
908.7469, 21948.46
909.2290, 21930.93
909.7111, 21915.28
910.1932, 21906.56
910.6754, 21904.52
911.1575, 21902.70
911.6396, 21898.81
912.1217, 21892.48
912.6038, 21882.28
913.0859, 21869.97
913.5681, 21855.48
914.0502, 21841.06
914.5323, 21835.59
915.0144, 21842.64
915.4965, 21848.21
915.9786, 21832.74
916.4607, 21802.58
916.9428, 21780.06
917.4249, 21764.84
917.9070, 21751.44
918.3892, 21738.55
918.8713, 21728.54
919.3534, 21723.67
919.8355, 21722.70
920.3176, 21722.13
920.7997, 21722.98
921.2819, 21721.28
921.7640, 21719.66
922.2461, 21709.99
922.7282, 21682.88
923.2103, 21651.13
923.6924, 21628.56
924.1746, 21614.86
924.6567, 21610.99
925.1388, 21627.89
925.6209, 21638.72
926.1030, 21636.35
926.5851, 21628.30
927.0673, 21616.98
927.5494, 21604.56
928.0315, 21593.44
928.5136, 21584.19
928.9957, 21578.12
929.4778, 21577.62
929.9600, 21578.96
930.4421, 21580.19
930.9242, 21580.85
931.4063, 21582.51
931.8884, 21583.60
932.3705, 21577.12
932.8527, 21558.54
933.3348, 21535.56
933.8169, 21515.89
934.2990, 21500.26
934.7811, 21493.15
935.2632, 21493.26
935.7454, 21489.82
936.2275, 21479.30
936.7096, 21468.54
937.1917, 21464.88
937.6738, 21465.43
938.1559, 21457.59
938.6381, 21439.66
939.1202, 21427.84
939.6023, 21425.51
940.0844, 21423.07
940.5665, 21414.44
941.0486, 21404.54
941.5308, 21402.37
942.0129, 21409.22
942.4950, 21408.29
942.9771, 21390.34
943.4592, 21378.39
943.9413, 21380.49
944.4235, 21384.50
944.9056, 21385.21
945.3877, 21381.77
945.8698, 21371.15
946.3519, 21349.98
946.8340, 21335.84
947.3162, 21338.25
947.7983, 21343.10
948.2804, 21346.65
948.7625, 21346.42
949.2446, 21336.48
949.7267, 21320.03
950.2089, 21310.89
950.6910, 21318.02
951.1731, 21324.44
951.6552, 21313.88
952.1373, 21297.27
952.6194, 21289.73
953.1016, 21287.49
953.5837, 21276.26
954.0658, 21253.80
954.5479, 21236.07
955.0300, 21237.75
955.5121, 21248.58
955.9943, 21250.11
956.4764, 21244.20
956.9585, 21238.64
957.4406, 21233.99
957.9227, 21225.35
958.4048, 21210.02
958.8870, 21194.54
959.3691, 21187.83
959.8512, 21188.93
960.3333, 21191.70
960.8154, 21197.21
961.2975, 21195.86
961.7797, 21184.82
962.2618, 21170.14
962.7439, 21154.16
963.2260, 21139.29
963.7081, 21131.98
964.1902, 21135.75
964.6724, 21127.73
965.1545, 21094.77
965.6366, 21072.19
966.1187, 21074.58
966.6008, 21084.08
967.0829, 21092.13
967.5651, 21096.13
968.0472, 21086.59
968.5293, 21055.59
969.0114, 21031.00
969.4935, 21016.99
969.9756, 21009.58
970.4578, 21012.33
970.9399, 21016.93
971.4220, 21014.08
971.9041, 21004.22
972.3862, 20994.32
972.8683, 20986.84
973.3505, 20979.37
973.8326, 20974.07
974.3147, 20965.03
974.7968, 20941.60
975.2789, 20912.65
975.7610, 20895.28
976.2432, 20891.96
976.7253, 20889.82
977.2074, 20880.40
977.6895, 20869.07
978.1716, 20861.16
978.6537, 20855.75
979.1359, 20852.36
979.6180, 20849.93
980.1001, 20845.34
980.5822, 20837.49
981.0643, 20828.11
981.5464, 20818.79
982.0286, 20809.38
982.5107, 20797.68
982.9928, 20785.33
983.4749, 20782.06
983.9570, 20788.55
984.4391, 20793.76
984.9213, 20791.93
985.4034, 20785.22
985.8855, 20775.26
986.3676, 20763.09
986.8497, 20759.76
987.3318, 20766.32
987.8140, 20768.66
988.2961, 20762.95
988.7782, 20757.94
989.2603, 20759.42
989.7424, 20765.32
990.2245, 20772.63
990.7067, 20782.93
991.1888, 20780.82
991.6709, 20759.64
992.1530, 20742.53
992.6351, 20736.38
993.1172, 20733.29
993.5994, 20725.14
994.0815, 20715.82
994.5636, 20718.37
995.0457, 20739.90
995.5278, 20752.85
996.0099, 20758.48
996.4921, 20753.75
996.9742, 20724.44
997.4563, 20695.48
997.9384, 20692.88
998.4205, 20708.62
998.9026, 20711.68
999.3848, 20689.78
999.8669, 20677.34
1000.349, 20696.16
1000.831, 20708.29
1001.313, 20690.01
1001.795, 20659.63
1002.277, 20635.06
1002.760, 20618.51
1003.242, 20607.45
1003.724, 20603.36
1004.206, 20599.57
1004.688, 20595.20
1005.170, 20587.96
1005.652, 20570.46
1006.134, 20551.87
1006.617, 20548.86
1007.099, 20560.61
1007.581, 20567.60
1008.063, 20557.91
1008.545, 20546.20
1009.027, 20542.79
1009.509, 20544.83
1009.991, 20555.25
1010.473, 20566.51
1010.956, 20560.51
1011.438, 20535.51
1011.920, 20510.28
1012.402, 20496.09
1012.884, 20490.71
1013.366, 20495.29
1013.848, 20504.81
1014.330, 20510.35
1014.813, 20511.79
1015.295, 20511.77
1015.777, 20511.06
1016.259, 20508.24
1016.741, 20501.69
1017.223, 20493.23
1017.705, 20486.57
1018.187, 20480.94
1018.669, 20472.43
1019.152, 20461.61
1019.634, 20454.84
1020.116, 20454.46
1020.598, 20456.40
1021.080, 20457.15
1021.562, 20456.06
1022.044, 20450.63
1022.526, 20441.23
1023.008, 20429.62
1023.491, 20415.95
1023.973, 20408.32
1024.455, 20410.33
1024.937, 20417.76
1025.419, 20426.71
1025.901, 20436.02
1026.383, 20440.95
1026.865, 20441.51
1027.348, 20434.98
1027.830, 20419.50
1028.312, 20406.34
1028.794, 20401.00
1029.276, 20398.63
1029.758, 20392.77
1030.240, 20384.48
1030.722, 20381.98
1031.204, 20385.04
1031.687, 20397.30
1032.169, 20425.31
1032.651, 20443.85
1033.133, 20437.84
1033.615, 20422.68
1034.097, 20419.85
1034.579, 20427.75
1035.061, 20419.58
1035.544, 20381.65
1036.026, 20364.52
1036.508, 20383.39
1036.990, 20402.44
1037.472, 20403.83
1037.954, 20398.10
1038.436, 20401.28
1038.918, 20412.55
1039.401, 20407.52
1039.883, 20369.31
1040.365, 20346.68
1040.847, 20355.03
1041.329, 20362.74
1041.811, 20355.27
1042.293, 20340.12
1042.775, 20324.23
1043.257, 20307.92
1043.740, 20300.71
1044.222, 20311.93
1044.704, 20318.04
1045.186, 20318.57
1045.668, 20313.11
1046.150, 20297.13
1046.632, 20277.85
1047.114, 20262.02
1047.596, 20250.25
1048.079, 20246.47
1048.561, 20260.48
1049.043, 20267.90
1049.525, 20255.39
1050.007, 20247.62
1050.489, 20265.05
1050.971, 20287.94
1051.453, 20291.18
1051.936, 20275.48
1052.418, 20260.45
1052.900, 20250.63
1053.382, 20239.34
1053.864, 20217.09
1054.346, 20202.33
1054.828, 20213.44
1055.310, 20231.51
1055.792, 20233.55
1056.275, 20220.03
1056.757, 20205.88
1057.239, 20192.39
1057.721, 20182.78
1058.203, 20184.30
1058.685, 20182.69
1059.167, 20159.31
1059.649, 20135.87
1060.131, 20143.60
1060.614, 20176.80
1061.096, 20198.54
1061.578, 20197.33
1062.060, 20188.81
1062.542, 20173.63
1063.024, 20157.91
1063.506, 20143.01
1063.988, 20130.95
1064.471, 20126.72
1064.953, 20127.46
1065.435, 20121.42
1065.917, 20102.24
1066.399, 20087.65
1066.881, 20089.42
1067.363, 20092.31
1067.845, 20089.07
1068.328, 20081.12
1068.810, 20066.51
1069.292, 20049.38
1069.774, 20042.01
1070.256, 20050.02
1070.738, 20054.99
1071.220, 20046.92
1071.702, 20036.12
1072.184, 20025.42
1072.667, 20017.58
1073.149, 20018.69
1073.631, 20024.37
1074.113, 20021.83
1074.595, 20006.73
1075.077, 19995.36
1075.559, 19994.68
1076.041, 20000.00
1076.523, 20020.01
1077.006, 20035.06
1077.488, 20018.21
1077.970, 19983.12
1078.452, 19964.22
1078.934, 19969.59
1079.416, 19971.73
1079.898, 19949.66
1080.380, 19932.44
1080.862, 19942.49
1081.345, 19957.55
1081.827, 19959.95
1082.309, 19951.19
1082.791, 19934.83
1083.273, 19912.61
1083.755, 19894.16
1084.237, 19881.81
1084.719, 19876.67
1085.202, 19889.83
1085.684, 19900.26
1086.166, 19884.11
1086.648, 19857.24
1087.130, 19845.95
1087.612, 19852.69
1088.094, 19860.78
1088.576, 19867.00
1089.058, 19867.77
1089.541, 19858.96
1090.023, 19846.89
1090.505, 19836.66
1090.987, 19825.43
1091.469, 19803.02
1091.951, 19774.32
1092.433, 19765.46
1092.915, 19794.63
1093.397, 19814.07
1093.880, 19797.50
1094.362, 19774.42
1094.844, 19755.91
1095.326, 19744.63
1095.808, 19745.93
1096.290, 19755.68
1096.772, 19761.84
1097.254, 19761.24
1097.737, 19757.99
1098.219, 19754.19
1098.701, 19747.07
1099.183, 19731.10
1099.665, 19715.01
1100.147, 19709.82
1100.629, 19709.88
1101.111, 19700.96
1101.594, 19680.02
1102.076, 19660.42
1102.558, 19644.90
1103.040, 19632.51
1103.522, 19623.12
1104.004, 19616.66
1104.486, 19616.08
1104.968, 19617.03
1105.450, 19610.35
1105.932, 19595.73
1106.415, 19589.15
1106.897, 19601.25
1107.379, 19609.96
1107.861, 19609.46
1108.343, 19606.12
1108.825, 19604.33
1109.307, 19600.60
1109.789, 19585.58
1110.272, 19562.57
1110.754, 19555.95
1111.236, 19583.82
1111.718, 19597.07
1112.200, 19581.93
1112.682, 19563.82
1113.164, 19545.30
1113.646, 19532.89
1114.129, 19536.61
1114.611, 19551.06
1115.093, 19557.88
1115.575, 19554.50
1116.057, 19550.87
1116.539, 19547.37
1117.021, 19542.97
1117.503, 19535.11
1117.985, 19529.06
1118.468, 19530.63
1118.950, 19534.75
1119.432, 19530.34
1119.914, 19515.85
1120.396, 19511.11
1120.878, 19522.25
1121.360, 19529.96
1121.842, 19533.21
1122.324, 19529.71
1122.807, 19512.84
1123.289, 19496.37
1123.771, 19500.83
1124.253, 19522.38
1124.735, 19527.59
1125.217, 19511.95
1125.699, 19495.38
1126.181, 19477.03
1126.664, 19463.15
1127.146, 19455.45
1127.628, 19454.94
1128.110, 19465.16
1128.592, 19479.85
1129.074, 19478.13
1129.556, 19457.09
1130.038, 19453.01
1130.521, 19469.48
1131.003, 19476.10
1131.485, 19464.68
1131.967, 19450.67
1132.449, 19443.46
1132.931, 19441.07
1133.413, 19440.59
1133.895, 19441.89
1134.377, 19445.47
1134.859, 19451.11
1135.342, 19451.01
1135.824, 19444.26
1136.306, 19441.08
1136.788, 19446.07
1137.270, 19451.32
1137.752, 19448.39
1138.234, 19439.88
1138.716, 19431.80
1139.199, 19423.84
1139.681, 19411.51
1140.163, 19397.03
1140.645, 19397.49
1141.127, 19415.38
1141.609, 19427.25
1142.091, 19416.49
1142.573, 19395.35
1143.056, 19379.86
1143.538, 19366.95
1144.020, 19344.71
1144.502, 19321.33
1144.984, 19323.79
1145.466, 19348.49
1145.948, 19361.10
1146.430, 19347.43
1146.912, 19335.80
1147.395, 19358.29
1147.877, 19387.29
1148.359, 19392.01
1148.841, 19383.12
1149.323, 19370.56
1149.805, 19358.95
1150.287, 19356.33
1150.769, 19362.81
1151.251, 19366.82
1151.734, 19362.02
1152.216, 19353.86
1152.698, 19343.02
1153.180, 19333.33
1153.662, 19326.58
1154.144, 19323.97
1154.626, 19330.36
1155.108, 19341.92
1155.591, 19345.49
1156.073, 19336.03
1156.555, 19328.99
1157.037, 19335.08
1157.519, 19337.79
1158.001, 19329.66
1158.483, 19316.37
1158.965, 19294.05
1159.448, 19273.59
1159.930, 19279.36
1160.412, 19312.38
1160.894, 19323.46
1161.376, 19283.58
1161.858, 19258.84
1162.340, 19262.38
1162.822, 19272.34
1163.304, 19288.87
1163.786, 19300.35
1164.269, 19293.79
1164.751, 19273.87
1165.233, 19255.80
1165.715, 19238.66
1166.197, 19228.11
1166.679, 19225.27
1167.161, 19227.31
1167.643, 19237.74
1168.126, 19241.04
1168.608, 19224.74
1169.090, 19204.16
1169.572, 19204.15
1170.054, 19220.37
1170.536, 19217.49
1171.018, 19194.23
1171.500, 19178.74
1171.983, 19173.14
1172.465, 19182.15
1172.947, 19208.14
1173.429, 19232.81
1173.911, 19241.07
1174.393, 19237.39
1174.875, 19225.03
1175.357, 19208.69
1175.839, 19211.56
1176.322, 19227.25
1176.804, 19224.64
1177.286, 19202.04
1177.768, 19184.10
1178.250, 19181.90
1178.732, 19183.40
1179.214, 19175.69
1179.696, 19167.27
1180.178, 19173.42
1180.661, 19183.76
1181.143, 19180.77
1181.625, 19168.76
1182.107, 19160.37
1182.589, 19157.57
1183.071, 19154.44
1183.553, 19148.90
1184.035, 19139.72
1184.518, 19118.96
1185.000, 19102.55
1185.482, 19107.91
1185.964, 19118.46
1186.446, 19116.22
1186.928, 19104.54
1187.410, 19095.31
1187.892, 19090.74
1188.375, 19082.13
1188.857, 19056.84
1189.339, 19043.34
1189.821, 19059.68
1190.303, 19074.54
1190.785, 19072.48
1191.267, 19061.54
1191.749, 19049.74
1192.231, 19036.91
1192.714, 19021.59
1193.196, 19001.09
1193.678, 18988.93
1194.160, 18987.72
1194.642, 18988.32
1195.124, 18990.27
1195.606, 18989.75
1196.088, 18983.63
1196.570, 18976.80
1197.053, 18976.90
1197.535, 18981.71
1198.017, 18979.18
1198.499, 18969.50
1198.981, 18964.63
1199.463, 18964.77
1199.945, 18954.69
1200.427, 18930.69
1200.910, 18916.15
1201.392, 18928.29
1201.874, 18947.63
1202.356, 18945.94
1202.838, 18931.59
1203.320, 18921.46
1203.802, 18913.49
1204.284, 18902.36
1204.766, 18888.48
1205.249, 18874.12
1205.731, 18860.80
1206.213, 18854.83
1206.695, 18865.88
1207.177, 18871.62
1207.659, 18844.87
1208.141, 18815.75
1208.623, 18813.14
1209.105, 18822.46
1209.588, 18827.08
1210.070, 18824.88
1210.552, 18816.18
1211.034, 18800.14
1211.516, 18787.21
1211.998, 18776.21
1212.480, 18773.81
1212.962, 18796.49
1213.445, 18810.80
1213.927, 18790.29
1214.409, 18759.36
1214.891, 18741.18
1215.373, 18735.44
1215.855, 18743.13
1216.337, 18771.06
1216.819, 18780.60
1217.302, 18766.61
1217.784, 18754.03
1218.266, 18748.44
1218.748, 18742.21
1219.230, 18731.04
1219.712, 18716.82
1220.194, 18701.21
1220.676, 18685.44
1221.158, 18672.93
1221.641, 18663.70
1222.123, 18658.69
1222.605, 18657.11
1223.087, 18655.72
1223.569, 18653.09
1224.051, 18644.25
1224.533, 18625.97
1225.015, 18610.84
1225.497, 18614.45
1225.980, 18625.13
1226.462, 18630.78
1226.944, 18633.85
1227.426, 18638.54
1227.908, 18643.00
1228.390, 18641.60
1228.872, 18634.59
1229.354, 18630.97
1229.837, 18638.35
1230.319, 18635.74
1230.801, 18604.29
1231.283, 18576.58
1231.765, 18567.57
1232.247, 18566.68
1232.729, 18567.60
1233.211, 18570.01
1233.693, 18575.03
1234.176, 18582.48
1234.658, 18583.37
1235.140, 18574.99
1235.622, 18569.01
1236.104, 18567.32
1236.586, 18562.27
1237.068, 18550.44
1237.550, 18540.18
1238.032, 18538.00
1238.515, 18538.85
1238.997, 18534.94
1239.479, 18526.56
1239.961, 18513.33
1240.443, 18496.84
1240.925, 18485.24
1241.407, 18478.23
1241.889, 18469.29
1242.372, 18457.52
1242.854, 18451.60
1243.336, 18458.17
1243.818, 18464.68
1244.300, 18459.00
1244.782, 18448.21
1245.264, 18434.40
1245.746, 18423.59
1246.229, 18425.49
1246.711, 18434.83
1247.193, 18442.37
1247.675, 18445.79
1248.157, 18440.58
1248.639, 18417.96
1249.121, 18402.17
1249.603, 18404.45
1250.085, 18404.29
1250.568, 18392.10
1251.050, 18379.16
1251.532, 18371.02
1252.014, 18368.66
1252.496, 18375.62
1252.978, 18390.20
1253.460, 18392.24
1253.942, 18379.62
1254.424, 18379.35
1254.907, 18393.64
1255.389, 18400.44
1255.871, 18393.78
1256.353, 18385.40
1256.835, 18382.94
1257.317, 18381.01
1257.799, 18371.22
1258.281, 18358.89
1258.764, 18355.21
1259.246, 18355.16
1259.728, 18348.81
1260.210, 18338.58
1260.692, 18331.92
1261.174, 18329.84
1261.656, 18328.96
1262.138, 18328.53
1262.620, 18326.20
1263.103, 18318.15
1263.585, 18311.59
1264.067, 18312.17
1264.549, 18312.63
1265.031, 18302.34
1265.513, 18292.37
1265.995, 18303.54
1266.477, 18329.36
1266.959, 18335.11
1267.442, 18314.44
1267.924, 18298.70
1268.406, 18287.55
1268.888, 18283.19
1269.370, 18286.77
1269.852, 18292.32
1270.334, 18297.44
1270.816, 18297.19
1271.299, 18284.63
1271.781, 18268.02
1272.263, 18264.24
1272.745, 18269.49
1273.227, 18279.70
1273.709, 18289.09
1274.191, 18280.91
1274.673, 18258.95
1275.156, 18243.28
1275.638, 18240.58
1276.120, 18243.37
1276.602, 18248.88
1277.084, 18256.44
1277.566, 18272.90
1278.048, 18282.45
1278.530, 18270.20
1279.012, 18250.98
1279.495, 18237.94
1279.977, 18230.15
1280.459, 18223.22
1280.941, 18215.95
1281.423, 18210.65
1281.905, 18209.92
1282.387, 18212.89
1282.869, 18221.19
1283.351, 18224.17
1283.834, 18218.87
1284.316, 18208.75
1284.798, 18195.36
1285.280, 18182.83
1285.762, 18177.11
1286.244, 18187.23
##END=



