##NAMES=Yugawaralite
##RRUFFID=R050407
##IDEAL CHEMISTRY=Ca(Si_6_Al_2_)O_16_&#183;4H_2_O
##LOCALITY=Malad quarry, Mumbai, Maharashtra, India
##OWNER=RRUFF
##SOURCE=G.R. Rossman
##DESCRIPTION=Group of colorless flat tabular crystals
##STATUS=The identification of this mineral has been confirmed by X-ray diffraction and chemical analysis
##URL=rruff.info/R050407
##MEASURED CHEMISTRY=Ca_1.00_(Si_6.00_Al_2.00_)O_16_Â·4H_2_O
92.52344, 809.1242
93.00555, 802.2296
93.48767, 803.7004
93.96979, 832.6341
94.45190, 860.1351
94.93402, 885.0510
95.41614, 893.5290
95.89825, 888.0218
96.38037, 875.3412
96.86249, 856.3934
97.34460, 833.2079
97.82672, 803.0851
98.30884, 774.6303
98.79095, 750.0239
99.27307, 727.1097
99.75519, 702.7949
100.2373, 677.0273
100.7194, 651.2487
101.2015, 629.4190
101.6837, 612.0870
102.1658, 597.2335
102.6479, 583.3127
103.1300, 570.1007
103.6121, 558.4438
104.0942, 549.4232
104.5764, 542.2000
105.0585, 536.1837
105.5406, 531.5757
106.0227, 527.9491
106.5048, 523.9921
106.9869, 518.8751
107.4691, 514.3183
107.9512, 511.2388
108.4333, 509.2892
108.9154, 507.6212
109.3975, 505.3083
109.8796, 502.0399
110.3618, 500.0467
110.8439, 500.1137
111.3260, 500.7260
111.8081, 501.3517
112.2902, 501.8719
112.7723, 502.4160
113.2544, 503.1403
113.7366, 503.8893
114.2187, 505.2184
114.7008, 507.2161
115.1829, 509.6783
115.6650, 512.7131
116.1471, 516.3849
116.6293, 520.0555
117.1114, 522.0333
117.5935, 521.4810
118.0756, 521.0886
118.5577, 521.8491
119.0398, 523.2612
119.5220, 524.1076
120.0041, 523.7291
120.4862, 522.4717
120.9683, 521.3304
121.4504, 520.4587
121.9325, 519.4443
122.4147, 518.2289
122.8968, 516.8765
123.3789, 514.5114
123.8610, 510.3160
124.3431, 504.9282
124.8252, 498.6974
125.3074, 491.5663
125.7895, 483.8442
126.2716, 476.0631
126.7537, 467.9739
127.2358, 460.4181
127.7179, 453.5604
128.2001, 447.2950
128.6822, 441.4286
129.1643, 435.9157
129.6464, 430.7167
130.1285, 425.6196
130.6107, 420.2055
131.0928, 415.2892
131.5749, 411.1067
132.0570, 407.6202
132.5391, 404.6341
133.0212, 401.9664
133.5034, 399.5348
133.9855, 398.2182
134.4676, 398.7321
134.9497, 399.5385
135.4318, 399.5762
135.9139, 398.8298
136.3960, 398.2501
136.8782, 398.9542
137.3603, 401.2117
137.8424, 403.6760
138.3245, 405.8452
138.8066, 408.3441
139.2887, 412.1642
139.7709, 417.7346
140.2530, 423.7270
140.7351, 428.2309
141.2172, 431.3697
141.6993, 434.8755
142.1814, 439.8192
142.6636, 445.7779
143.1457, 451.1260
143.6278, 454.8211
144.1099, 458.5904
144.5920, 464.0279
145.0741, 471.1094
145.5563, 478.5706
146.0384, 485.2974
146.5205, 491.1808
147.0026, 497.1651
147.4847, 503.4257
147.9668, 509.8453
148.4490, 516.6005
148.9311, 523.6414
149.4132, 530.5140
149.8953, 536.3498
150.3774, 540.2999
150.8595, 545.0241
151.3417, 551.1216
151.8238, 557.6752
152.3059, 564.1320
152.7880, 570.2117
153.2701, 575.8487
153.7522, 580.7794
154.2344, 584.3610
154.7165, 587.8313
155.1986, 591.5214
155.6807, 595.0560
156.1628, 598.0001
156.6449, 600.1343
157.1271, 601.4948
157.6092, 602.1169
158.0913, 601.5948
158.5734, 600.9659
159.0555, 601.0833
159.5376, 601.4094
160.0198, 600.4267
160.5019, 597.0391
160.9840, 591.7599
161.4661, 586.9836
161.9482, 583.3177
162.4303, 579.5023
162.9125, 574.5699
163.3946, 568.5644
163.8767, 562.4727
164.3588, 556.8996
164.8409, 551.6390
165.3230, 546.2426
165.8052, 540.3810
166.2873, 534.6136
166.7694, 529.7049
167.2515, 525.6531
167.7336, 522.4542
168.2157, 520.3073
168.6979, 518.8824
169.1800, 517.8808
169.6621, 517.2314
170.1442, 516.8900
170.6263, 516.6307
171.1084, 515.9396
171.5906, 516.2835
172.0727, 518.4186
172.5548, 521.6421
173.0369, 524.9941
173.5190, 527.8890
174.0011, 530.4014
174.4833, 533.1547
174.9654, 536.1285
175.4475, 539.4304
175.9296, 543.1248
176.4117, 547.1576
176.8938, 551.5098
177.3760, 556.2101
177.8581, 561.2765
178.3402, 565.9695
178.8223, 570.2552
179.3044, 574.2507
179.7865, 577.8619
180.2687, 581.1777
180.7508, 584.3791
181.2329, 587.5702
181.7150, 590.7547
182.1971, 594.2006
182.6792, 598.2031
183.1614, 602.1798
183.6435, 605.7626
184.1256, 608.9457
184.6077, 612.0565
185.0898, 615.5308
185.5719, 619.3475
186.0541, 622.1920
186.5362, 623.9548
187.0183, 624.7653
187.5004, 624.5704
187.9825, 623.3362
188.4646, 621.5981
188.9468, 619.8967
189.4289, 618.1168
189.9110, 615.6005
190.3931, 612.1630
190.8752, 607.9142
191.3573, 602.7413
191.8395, 596.2728
192.3216, 589.9016
192.8037, 585.1827
193.2858, 581.4496
193.7679, 577.1185
194.2500, 570.9853
194.7322, 563.6730
195.2143, 557.1851
195.6964, 552.1765
196.1785, 547.0764
196.6606, 541.0700
197.1427, 534.3354
197.6249, 527.2905
198.1070, 519.9298
198.5891, 512.3510
199.0712, 505.5823
199.5533, 500.1129
200.0354, 494.9970
200.5176, 490.1690
200.9997, 485.4428
201.4818, 480.4855
201.9639, 474.9945
202.4460, 468.9503
202.9281, 463.1292
203.4103, 457.7092
203.8924, 452.4098
204.3745, 447.3141
204.8566, 442.2882
205.3387, 437.1616
205.8208, 431.7596
206.3030, 426.0203
206.7851, 420.3890
207.2672, 414.8773
207.7493, 409.4417
208.2314, 404.1148
208.7135, 398.8903
209.1957, 393.7218
209.6778, 388.5233
210.1599, 383.2318
210.6420, 378.6035
211.1241, 374.5656
211.6062, 371.1057
212.0884, 368.6271
212.5705, 366.9047
213.0526, 364.9253
213.5347, 361.5996
214.0168, 356.6920
214.4989, 353.1841
214.9811, 351.9096
215.4632, 351.2382
215.9453, 349.9608
216.4274, 348.0675
216.9095, 346.5709
217.3916, 346.4316
217.8737, 347.7308
218.3559, 348.9221
218.8380, 349.9666
219.3201, 350.9174
219.8022, 351.7086
220.2843, 352.3374
220.7664, 353.1807
221.2486, 354.6735
221.7307, 356.6816
222.2128, 358.5430
222.6949, 360.1113
223.1770, 361.5219
223.6591, 362.8843
224.1413, 364.1917
224.6234, 365.5281
225.1055, 367.2012
225.5876, 368.9222
226.0697, 370.0969
226.5518, 370.4221
227.0340, 370.1853
227.5161, 369.6808
227.9982, 368.7867
228.4803, 368.0466
228.9624, 368.3026
229.4445, 368.7971
229.9267, 368.4030
230.4088, 366.3163
230.8909, 363.4465
231.3730, 361.6898
231.8551, 361.6027
232.3372, 361.2259
232.8194, 359.5175
233.3015, 357.1566
233.7836, 354.9060
234.2657, 353.1171
234.7478, 351.5584
235.2299, 349.5842
235.7121, 346.6345
236.1942, 344.4361
236.6763, 343.9324
237.1584, 344.1346
237.6405, 343.9817
238.1227, 342.9849
238.6048, 341.5044
239.0869, 340.4980
239.5690, 340.3691
240.0511, 340.0034
240.5332, 339.3135
241.0154, 338.2766
241.4975, 336.8201
241.9796, 334.9112
242.4617, 332.6904
242.9438, 330.5260
243.4259, 328.4314
243.9081, 326.3649
244.3902, 324.5417
244.8723, 322.6470
245.3544, 320.3920
245.8365, 317.6532
246.3186, 314.5349
246.8008, 311.2267
247.2829, 307.6137
247.7650, 303.9695
248.2471, 300.0366
248.7292, 296.2130
249.2113, 292.9463
249.6935, 290.3683
250.1756, 288.1536
250.6577, 285.6486
251.1398, 282.3641
251.6219, 279.5312
252.1040, 277.0780
252.5862, 275.1050
253.0683, 273.8408
253.5504, 273.3215
254.0325, 273.1814
254.5146, 272.8258
254.9967, 272.0473
255.4789, 271.4403
255.9610, 271.0447
256.4431, 270.7986
256.9252, 270.6186
257.4073, 270.4935
257.8894, 270.5180
258.3716, 270.8041
258.8537, 271.3664
259.3358, 272.2931
259.8179, 274.0830
260.3000, 275.9451
260.7821, 277.0882
261.2643, 277.4042
261.7464, 277.5287
262.2285, 278.2105
262.7106, 279.6506
263.1927, 280.6168
263.6748, 280.6857
264.1570, 280.5265
264.6391, 280.7390
265.1212, 281.3733
265.6033, 282.0007
266.0854, 282.0934
266.5675, 281.6423
267.0497, 281.8841
267.5318, 283.8691
268.0139, 285.8439
268.4960, 286.1388
268.9781, 284.7396
269.4602, 283.2547
269.9424, 282.9429
270.4245, 283.6641
270.9066, 284.0165
271.3887, 283.8102
271.8708, 283.3491
272.3529, 282.7729
272.8351, 282.1013
273.3172, 281.5281
273.7993, 281.2997
274.2814, 281.2131
274.7635, 280.6691
275.2456, 279.4147
275.7278, 277.9767
276.2099, 276.6575
276.6920, 275.4559
277.1741, 274.3568
277.6562, 273.3483
278.1383, 272.4643
278.6205, 271.7727
279.1026, 271.3972
279.5847, 270.9306
280.0668, 270.0756
280.5489, 268.8727
281.0310, 267.6176
281.5132, 266.5438
281.9953, 265.2968
282.4774, 263.2605
282.9595, 260.2385
283.4416, 257.5793
283.9237, 256.1880
284.4059, 255.8632
284.8880, 255.8413
285.3701, 256.2144
285.8522, 256.4522
286.3343, 255.9133
286.8164, 254.6400
287.2986, 253.4050
287.7807, 252.5352
288.2628, 252.0149
288.7449, 251.7564
289.2270, 251.6371
289.7091, 252.0175
290.1913, 253.6207
290.6734, 256.0583
291.1555, 257.9208
291.6376, 257.9851
292.1197, 257.0530
292.6018, 257.2280
293.0840, 259.1455
293.5661, 260.8641
294.0482, 260.7282
294.5303, 259.5315
295.0124, 258.6899
295.4945, 258.9491
295.9767, 259.7796
296.4588, 260.1693
296.9409, 259.9434
297.4230, 259.8801
297.9051, 260.8802
298.3872, 262.1317
298.8694, 262.5857
299.3515, 261.7240
299.8336, 260.3375
300.3157, 259.5084
300.7978, 259.3473
301.2799, 259.0469
301.7621, 258.2519
302.2442, 257.1845
302.7263, 255.8922
303.2084, 254.3088
303.6905, 252.9367
304.1726, 252.4836
304.6548, 253.0026
305.1369, 253.1684
305.6190, 252.2669
306.1011, 251.2174
306.5832, 250.6095
307.0653, 250.4971
307.5475, 250.8809
308.0296, 252.0059
308.5117, 253.7908
308.9938, 255.2175
309.4759, 255.7098
309.9580, 256.3671
310.4402, 257.9361
310.9223, 260.2768
311.4044, 262.8344
311.8865, 265.4946
312.3686, 268.1285
312.8507, 270.1203
313.3329, 271.0427
313.8150, 272.0394
314.2971, 273.9346
314.7792, 276.3172
315.2613, 278.4353
315.7434, 279.8726
316.2256, 280.8931
316.7077, 282.1935
317.1898, 284.0901
317.6719, 285.3914
318.1540, 285.2022
318.6361, 284.3043
319.1183, 283.5821
319.6004, 283.4360
320.0825, 283.1458
320.5646, 281.7377
321.0467, 279.1309
321.5288, 275.9058
322.0110, 271.4926
322.4931, 266.9750
322.9752, 263.5383
323.4573, 261.4133
323.9394, 258.9711
324.4215, 254.1363
324.9037, 247.0059
325.3858, 241.1055
325.8679, 237.6152
326.3500, 235.0658
326.8321, 232.4643
327.3142, 229.7973
327.7964, 227.2497
328.2785, 224.9142
328.7606, 222.7953
329.2427, 220.9159
329.7248, 219.3787
330.2069, 217.9243
330.6891, 216.3139
331.1712, 214.6600
331.6533, 213.2014
332.1354, 212.0709
332.6175, 211.1901
333.0996, 210.3553
333.5818, 209.4773
334.0639, 208.9268
334.5460, 209.0994
335.0281, 209.6344
335.5102, 210.1262
335.9923, 210.3934
336.4745, 210.7753
336.9566, 211.6863
337.4387, 213.1394
337.9208, 214.8401
338.4029, 216.8372
338.8850, 218.9566
339.3671, 220.9740
339.8492, 222.8669
340.3314, 224.8689
340.8135, 227.1114
341.2956, 229.6121
341.7777, 232.4014
342.2598, 235.6233
342.7419, 238.9473
343.2241, 242.0231
343.7062, 244.9222
344.1883, 247.9595
344.6704, 251.4632
345.1525, 255.1828
345.6346, 258.5944
346.1168, 261.6600
346.5989, 264.4390
347.0810, 266.7805
347.5631, 268.8608
348.0452, 271.0133
348.5273, 273.5828
349.0095, 276.0248
349.4916, 277.7679
349.9737, 278.8032
350.4558, 279.2860
350.9379, 279.2124
351.4200, 278.6068
351.9022, 277.7067
352.3843, 276.7152
352.8664, 274.8929
353.3485, 271.4321
353.8306, 266.6527
354.3127, 261.7664
354.7949, 256.9701
355.2770, 252.3725
355.7591, 248.0783
356.2412, 244.0786
356.7233, 240.2312
357.2054, 236.2166
357.6876, 232.4063
358.1697, 229.4928
358.6518, 227.6336
359.1339, 226.1648
359.6160, 224.4884
360.0981, 222.7030
360.5803, 221.3946
361.0624, 220.9315
361.5445, 220.7534
362.0266, 220.4660
362.5087, 220.0665
362.9908, 219.6301
363.4730, 219.2269
363.9551, 218.7924
364.4372, 218.1696
364.9193, 217.5091
365.4014, 216.4537
365.8835, 214.5820
366.3657, 212.2431
366.8478, 210.1286
367.3299, 208.4813
367.8120, 207.1033
368.2941, 205.7489
368.7762, 204.5009
369.2584, 202.9301
369.7405, 200.7192
370.2226, 198.3157
370.7047, 196.0539
371.1868, 193.9943
371.6689, 192.3022
372.1511, 191.2129
372.6332, 190.7589
373.1153, 189.8604
373.5974, 188.3471
374.0795, 186.6038
374.5616, 184.5125
375.0438, 182.3211
375.5259, 180.6236
376.0080, 179.7992
376.4901, 179.5948
376.9722, 179.1290
377.4543, 177.7577
377.9365, 176.9539
378.4186, 177.2995
378.9007, 178.0906
379.3828, 178.5284
379.8649, 178.4012
380.3470, 178.0799
380.8292, 178.0607
381.3113, 178.3608
381.7934, 178.9777
382.2755, 179.8842
382.7576, 181.0819
383.2397, 182.6131
383.7219, 184.4462
384.2040, 186.5067
384.6861, 188.7634
385.1682, 191.1955
385.6503, 193.3839
386.1324, 194.6231
386.6146, 196.4076
387.0967, 199.3083
387.5788, 202.7849
388.0609, 206.1502
388.5430, 209.1021
389.0251, 211.8856
389.5073, 215.0234
389.9894, 218.6884
390.4715, 222.3736
390.9536, 225.8991
391.4357, 229.5389
391.9178, 233.4602
392.4000, 237.6835
392.8821, 242.2002
393.3642, 247.1940
393.8463, 252.7114
394.3284, 257.3155
394.8105, 260.1950
395.2927, 263.0947
395.7748, 266.6848
396.2569, 270.6768
396.7390, 274.5312
397.2211, 277.8958
397.7032, 281.1498
398.1854, 285.3538
398.6675, 291.1390
399.1496, 295.9960
399.6317, 298.4996
400.1138, 300.2724
400.5959, 302.5230
401.0781, 305.4485
401.5602, 308.3405
402.0423, 310.6190
402.5244, 312.2941
403.0065, 313.4910
403.4886, 314.1544
403.9708, 314.3909
404.4529, 314.2877
404.9350, 313.8724
405.4171, 313.1906
405.8992, 312.0397
406.3813, 310.7481
406.8635, 309.9818
407.3456, 309.8333
407.8277, 309.3355
408.3098, 307.9085
408.7919, 305.8442
409.2740, 303.6714
409.7562, 301.3809
410.2383, 299.0680
410.7204, 296.4796
411.2025, 293.8801
411.6846, 292.1896
412.1667, 291.8733
412.6489, 291.8205
413.1310, 290.2859
413.6131, 287.2958
414.0952, 285.5146
414.5773, 286.3792
415.0594, 287.9862
415.5416, 288.5183
416.0237, 287.9825
416.5058, 287.4250
416.9879, 287.3966
417.4700, 287.9588
417.9521, 289.4242
418.4343, 292.4230
418.9164, 295.3975
419.3985, 297.8766
419.8806, 300.0930
420.3627, 302.3281
420.8448, 304.6814
421.3270, 307.1760
421.8091, 309.8633
422.2912, 312.8025
422.7733, 315.7493
423.2554, 318.2048
423.7375, 321.0784
424.2197, 325.2321
424.7018, 330.3336
425.1839, 335.2815
425.6660, 339.2751
426.1481, 342.4274
426.6302, 345.6195
427.1124, 348.6486
427.5945, 351.9657
428.0766, 355.9814
428.5587, 360.1160
429.0408, 363.9009
429.5229, 367.1619
430.0051, 369.9370
430.4872, 371.9758
430.9693, 372.7682
431.4514, 374.9218
431.9335, 380.6653
432.4156, 385.8958
432.8978, 388.0695
433.3799, 388.3297
433.8620, 389.8541
434.3441, 395.0501
434.8262, 402.4918
435.3083, 407.7919
435.7905, 409.9382
436.2726, 412.7006
436.7547, 418.3175
437.2368, 424.7177
437.7189, 429.9264
438.2010, 433.5057
438.6832, 437.0043
439.1653, 442.2206
439.6474, 448.6729
440.1295, 453.6912
440.6116, 456.4533
441.0938, 458.4809
441.5759, 461.0560
442.0580, 463.9675
442.5401, 466.5469
443.0222, 468.9142
443.5043, 470.6428
443.9865, 471.2354
444.4686, 470.7437
444.9507, 469.7111
445.4328, 468.5261
445.9149, 466.7880
446.3970, 463.5183
446.8792, 458.4942
447.3613, 453.0115
447.8434, 447.2766
448.3255, 441.3363
448.8076, 435.2411
449.2897, 428.9763
449.7719, 422.5303
450.2540, 415.8322
450.7361, 408.8340
451.2182, 402.2298
451.7003, 396.0953
452.1824, 390.2071
452.6646, 384.6315
453.1467, 379.1852
453.6288, 373.4962
454.1109, 367.3842
454.5930, 361.3275
455.0751, 356.2581
455.5573, 352.6568
456.0394, 349.1591
456.5215, 345.4899
457.0036, 342.1347
457.4857, 339.3801
457.9678, 337.2036
458.4500, 335.3459
458.9321, 333.5353
459.4142, 331.9099
459.8963, 331.2936
460.3784, 331.9872
460.8605, 333.2147
461.3427, 334.7103
461.8248, 336.5980
462.3069, 339.0766
462.7890, 342.1949
463.2711, 345.6475
463.7532, 349.3286
464.2354, 353.2044
464.7175, 356.3511
465.1996, 358.1264
465.6817, 360.0248
466.1638, 363.3897
466.6459, 367.6963
467.1281, 371.6526
467.6102, 374.8261
468.0923, 377.4549
468.5744, 379.4194
469.0565, 380.8450
469.5386, 382.8990
470.0208, 386.1588
470.5029, 390.1344
470.9850, 394.0455
471.4671, 397.9700
471.9492, 401.5612
472.4313, 404.6455
472.9135, 407.4213
473.3956, 410.2291
473.8777, 413.0386
474.3598, 415.3447
474.8419, 416.6632
475.3240, 417.1184
475.8062, 417.8948
476.2883, 419.7932
476.7704, 421.0008
477.2525, 421.0694
477.7346, 420.2861
478.2167, 419.0754
478.6989, 417.5202
479.1810, 415.2832
479.6631, 411.8200
480.1452, 406.9402
480.6273, 401.8943
481.1094, 397.5104
481.5916, 392.1104
482.0737, 384.6323
482.5558, 375.8281
483.0379, 367.0718
483.5200, 359.0361
484.0021, 351.0665
484.4843, 341.6778
484.9664, 330.4033
485.4485, 319.6835
485.9306, 310.3570
486.4127, 301.4294
486.8948, 292.3521
487.3770, 283.0776
487.8591, 273.7442
488.3412, 264.0175
488.8233, 254.4377
489.3054, 246.2986
489.7875, 239.7852
490.2697, 233.3848
490.7518, 226.2317
491.2339, 218.8426
491.7160, 212.0617
492.1981, 205.8903
492.6802, 200.4228
493.1624, 196.2616
493.6445, 192.6749
494.1266, 188.4417
494.6087, 183.3572
495.0908, 178.3362
495.5729, 174.1292
496.0551, 170.7508
496.5372, 167.7159
497.0193, 165.1917
497.5014, 162.7654
497.9835, 160.2771
498.4656, 157.8126
498.9478, 155.5434
499.4299, 153.5115
499.9120, 151.5077
500.3941, 149.1787
500.8762, 146.2808
501.3583, 143.9716
501.8405, 142.8092
502.3226, 141.6748
502.8047, 140.2787
503.2868, 138.6055
503.7689, 136.6046
504.2510, 134.1513
504.7331, 131.7322
505.2152, 130.3733
505.6974, 130.2702
506.1795, 129.9922
506.6616, 129.1701
507.1437, 128.1573
507.6258, 127.1806
508.1079, 126.2414
508.5901, 125.3439
509.0722, 124.6376
509.5543, 123.9007
510.0364, 122.5675
510.5185, 120.6569
511.0006, 119.3314
511.4828, 119.4225
511.9649, 120.1763
512.4470, 119.9104
512.9291, 118.3041
513.4113, 116.9696
513.8934, 116.3744
514.3755, 116.2202
514.8576, 116.4474
515.3397, 116.9187
515.8218, 117.0286
516.3040, 116.2683
516.7861, 114.7804
517.2682, 113.6108
517.7503, 112.8778
518.2324, 112.3349
518.7145, 112.0623
519.1967, 111.9051
519.6788, 111.6956
520.1609, 111.4202
520.6430, 111.2145
521.1251, 111.2277
521.6072, 111.4542
522.0894, 111.7103
522.5715, 112.1330
523.0536, 112.3576
523.5357, 112.2686
524.0178, 111.9399
524.4999, 111.3277
524.9821, 109.9656
525.4642, 110.6278
525.9463, 110.9490
526.4284, 110.9510
526.9105, 109.4924
527.3926, 110.0616
527.8748, 109.9047
528.3569, 109.7774
528.8390, 110.8087
529.3211, 109.8807
529.8032, 111.0183
530.2853, 111.4178
530.7675, 112.2454
531.2496, 112.3419
531.7317, 112.7451
532.2138, 114.0032
532.6959, 114.8840
533.1780, 113.5717
533.6602, 113.5656
534.1423, 114.4238
534.6244, 117.3781
535.1065, 119.7241
535.5886, 120.0126
536.0707, 119.1538
536.5529, 118.5251
537.0350, 118.6836
537.5171, 119.3409
537.9992, 120.1049
538.4813, 121.0141
538.9634, 121.8211
539.4456, 122.3804
539.9277, 122.9834
540.4098, 123.6593
540.8919, 124.4819
541.3740, 125.6380
541.8561, 127.3384
542.3383, 129.1047
542.8204, 130.2598
543.3025, 130.8732
543.7846, 131.6171
544.2667, 132.6754
544.7488, 133.8708
545.2310, 135.0489
545.7131, 136.2084
546.1952, 137.3389
546.6773, 138.3509
547.1594, 139.4059
547.6415, 140.8638
548.1237, 142.4430
548.6058, 143.4293
549.0879, 143.5197
549.5700, 143.1030
550.0521, 142.8098
550.5342, 142.7343
551.0164, 142.4945
551.4985, 142.0141
551.9806, 141.4778
552.4627, 141.0627
552.9448, 140.6310
553.4269, 139.9351
553.9091, 138.8583
554.3912, 137.4560
554.8733, 135.7483
555.3554, 133.6648
555.8375, 131.7269
556.3196, 130.2270
556.8018, 128.6140
557.2839, 126.4338
557.7660, 123.8602
558.2481, 121.4067
558.7302, 119.3003
559.2123, 117.3457
559.6945, 115.3937
560.1766, 113.4407
560.6587, 111.4011
561.1408, 109.1514
561.6229, 107.1519
562.1050, 106.1579
562.5872, 106.4268
563.0693, 105.7618
563.5514, 103.2163
564.0335, 100.6635
564.5156, 99.02742
564.9977, 98.07864
565.4799, 97.36790
565.9620, 96.71203
566.4441, 96.05786
566.9262, 95.32860
567.4083, 94.52980
567.8904, 93.63216
568.3726, 92.64481
568.8547, 91.53740
569.3368, 90.12666
569.8189, 88.63017
570.3010, 87.40752
570.7831, 86.59114
571.2653, 86.01762
571.7474, 85.51845
572.2295, 85.09445
572.7116, 84.79715
573.1937, 84.75987
573.6758, 84.53693
574.1580, 83.54365
574.6401, 82.01616
575.1222, 80.88120
575.6043, 80.29322
576.0864, 80.03736
576.5685, 80.39113
577.0507, 80.90340
577.5328, 80.67819
578.0149, 79.53200
578.4970, 78.24626
578.9791, 77.69093
579.4612, 77.90639
579.9434, 77.83833
580.4255, 77.21024
580.9076, 76.61696
581.3897, 76.11059
581.8718, 75.71837
582.3539, 75.51567
582.8361, 75.49551
583.3182, 75.47749
583.8003, 75.23769
584.2824, 74.81802
584.7645, 74.54777
585.2466, 74.47160
585.7288, 74.41301
586.2108, 74.19301
586.6929, 73.98609
587.1750, 74.11095
587.6572, 74.69993
588.1393, 75.13363
588.6214, 75.09576
589.1035, 74.75830
589.5856, 74.21442
590.0677, 73.53014
590.5499, 73.06940
591.0320, 73.09775
591.5141, 73.47957
591.9962, 73.71358
592.4783, 73.71507
592.9604, 73.67601
593.4426, 73.64109
593.9247, 73.53374
594.4068, 73.14834
594.8889, 72.62479
595.3710, 72.39684
595.8531, 72.80126
596.3353, 73.56282
596.8174, 74.04408
597.2995, 74.20625
597.7816, 74.30237
598.2637, 74.45184
598.7458, 74.47367
599.2280, 74.09720
599.7101, 73.42136
600.1922, 72.98552
600.6743, 73.10406
601.1564, 73.40288
601.6385, 73.59787
602.1207, 73.71661
602.6028, 73.84138
603.0849, 73.99668
603.5670, 74.18242
604.0491, 74.38004
604.5313, 74.55588
605.0134, 74.96336
605.4955, 75.99872
605.9776, 76.78126
606.4597, 76.77565
606.9418, 76.46931
607.4240, 76.55207
607.9061, 77.19688
608.3882, 77.92751
608.8703, 78.01605
609.3524, 77.55638
609.8345, 77.94493
610.3167, 79.56924
610.7988, 81.11317
611.2809, 81.74879
611.7630, 82.00035
612.2451, 82.59332
612.7272, 83.64604
613.2094, 84.74313
613.6915, 85.80354
614.1736, 86.74654
614.6557, 87.32440
615.1378, 87.61007
615.6199, 88.13576
616.1021, 89.26145
616.5842, 90.74136
617.0663, 91.83783
617.5484, 92.00839
618.0305, 92.74442
618.5126, 94.49026
618.9948, 96.33280
619.4769, 97.86874
619.9590, 99.06614
620.4411, 99.85798
620.9232, 100.1006
621.4053, 100.3800
621.8875, 101.9030
622.3696, 104.6356
622.8517, 106.6730
623.3338, 107.6002
623.8159, 107.9479
624.2980, 107.9082
624.7802, 107.6149
625.2623, 107.5019
625.7444, 107.4438
626.2265, 107.7976
626.7086, 109.4411
627.1907, 111.2981
627.6729, 111.5983
628.1550, 110.1481
628.6371, 108.3413
629.1192, 107.3902
629.6013, 107.1898
630.0834, 106.9160
630.5656, 106.5305
631.0477, 106.1299
631.5298, 105.7823
632.0119, 105.3875
632.4940, 104.8227
632.9761, 104.1202
633.4583, 103.4462
633.9404, 102.7557
634.4225, 102.2712
634.9046, 102.5400
635.3867, 103.4906
635.8688, 104.1120
636.3510, 103.9644
636.8331, 103.6850
637.3152, 104.0871
637.7973, 105.2618
638.2794, 106.2168
638.7615, 106.5911
639.2437, 107.1366
639.7258, 108.4611
640.2079, 110.0304
640.6900, 111.0221
641.1721, 111.2673
641.6542, 111.2938
642.1364, 111.6500
642.6185, 112.3128
643.1006, 112.9987
643.5827, 113.7581
644.0648, 114.4255
644.5469, 115.1811
645.0291, 115.6571
645.5112, 115.3476
645.9933, 114.2310
646.4754, 113.1977
646.9575, 112.9466
647.4396, 112.7675
647.9218, 111.8852
648.4039, 110.3681
648.8860, 108.6081
649.3681, 106.7459
649.8502, 104.7671
650.3323, 102.5956
650.8145, 100.1189
651.2966, 97.97002
651.7787, 96.11502
652.2608, 94.61467
652.7429, 93.84641
653.2250, 93.28742
653.7072, 92.20598
654.1893, 90.44039
654.6714, 88.67328
655.1535, 87.51723
655.6356, 86.87267
656.1177, 86.44141
656.5999, 86.23446
657.0820, 86.10223
657.5641, 86.03032
658.0462, 85.94429
658.5283, 85.67628
659.0104, 85.19745
659.4926, 84.73685
659.9747, 84.17720
660.4568, 83.78677
660.9389, 84.02855
661.4210, 84.51739
661.9031, 84.34019
662.3853, 83.16490
662.8674, 81.81299
663.3495, 81.62099
663.8316, 82.71382
664.3137, 82.86130
664.7958, 81.36755
665.2780, 80.19482
665.7601, 80.73457
666.2422, 81.81364
666.7243, 82.05010
667.2064, 81.22113
667.6885, 80.21819
668.1707, 79.48299
668.6528, 78.77353
669.1349, 77.67033
669.6170, 76.29617
670.0991, 75.24326
670.5812, 74.80324
671.0634, 74.71598
671.5455, 74.55833
672.0276, 74.36409
672.5097, 73.97405
672.9918, 73.13957
673.4739, 72.38171
673.9561, 71.92772
674.4382, 71.61387
674.9203, 71.23747
675.4024, 70.74928
675.8845, 70.17561
676.3666, 69.42391
676.8488, 68.63660
677.3309, 68.12321
677.8130, 67.89802
678.2951, 67.83977
678.7772, 67.90538
679.2593, 68.08492
679.7415, 68.40071
680.2236, 69.00311
680.7057, 69.24627
681.1878, 69.10542
681.6699, 68.64323
682.1520, 67.49822
682.6342, 66.19407
683.1163, 65.61473
683.5984, 65.97878
684.0805, 66.47939
684.5626, 66.10195
685.0447, 65.06563
685.5269, 64.68729
686.0090, 65.14791
686.4911, 65.32243
686.9732, 64.58641
687.4553, 63.42699
687.9374, 62.59842
688.4196, 62.10762
688.9017, 61.75793
689.3838, 61.40446
689.8659, 61.30253
690.3480, 61.93126
690.8301, 62.82244
691.3123, 63.08909
691.7944, 62.48692
692.2765, 61.67603
692.7586, 61.41031
693.2407, 61.65318
693.7228, 61.90575
694.2050, 62.19783
694.6871, 62.42471
695.1692, 62.56204
695.6513, 62.60368
696.1334, 62.58211
696.6155, 62.49468
697.0977, 62.19996
697.5798, 61.34534
698.0619, 60.56009
698.5440, 60.48892
699.0261, 60.79650
699.5082, 60.78048
699.9904, 60.24476
700.4725, 59.05550
700.9546, 59.37032
701.4367, 59.42385
701.9188, 59.23052
702.4009, 58.02786
702.8831, 58.14622
703.3652, 57.74608
703.8473, 57.33206
704.3294, 57.65855
704.8115, 56.64250
705.2936, 56.97288
705.7758, 56.77654
706.2579, 56.83260
706.7400, 56.36677
707.2221, 56.07226
707.7042, 56.31525
708.1863, 56.27267
708.6685, 55.77679
709.1506, 55.89482
709.6327, 54.93766
710.1148, 54.93850
710.5969, 55.35709
711.0790, 54.92659
711.5612, 55.09295
712.0433, 55.04271
712.5254, 54.29668
713.0075, 54.51317
713.4896, 54.79079
713.9717, 55.13201
714.4539, 55.31861
714.9360, 54.93409
715.4181, 54.29039
715.9002, 54.18740
716.3823, 54.72529
716.8644, 55.25241
717.3466, 54.76888
717.8287, 55.31874
718.3108, 55.61542
718.7929, 55.67339
719.2750, 54.73014
719.7571, 55.11614
720.2393, 54.99168
720.7214, 54.86150
721.2035, 55.47998
721.6856, 54.76405
722.1677, 55.40266
722.6498, 55.52276
723.1320, 55.90335
723.6141, 55.77018
724.0962, 55.81647
724.5783, 56.40841
725.0604, 56.72289
725.5425, 56.59225
726.0247, 57.08366
726.5068, 56.50796
726.9889, 56.89844
727.4710, 57.71479
727.9531, 57.69018
728.4352, 58.27058
728.9174, 58.64257
729.3995, 58.95678
729.8816, 59.48612
730.3637, 59.54578
730.8458, 59.47395
731.3279, 59.47375
731.8101, 59.50944
732.2922, 59.44718
732.7743, 59.33414
733.2564, 59.53065
733.7385, 60.20539
734.2206, 60.95692
734.7028, 61.19947
735.1849, 60.85641
735.6670, 61.16903
736.1491, 62.88560
736.6312, 64.30646
737.1133, 65.15285
737.5955, 65.61279
738.0776, 65.54228
738.5597, 65.15706
739.0418, 65.38802
739.5239, 67.29588
740.0060, 69.33157
740.4882, 69.37111
740.9703, 68.06153
741.4524, 67.42070
741.9345, 67.86755
742.4166, 68.62303
742.8987, 69.07551
743.3809, 69.27224
743.8630, 69.45882
744.3451, 69.77055
744.8272, 69.81754
745.3093, 69.29536
745.7914, 68.79754
746.2736, 68.75911
746.7557, 68.95918
747.2378, 68.87267
747.7199, 68.25845
748.2020, 67.67321
748.6841, 67.72783
749.1663, 68.01169
749.6484, 67.75623
750.1305, 66.97319
750.6126, 66.15138
751.0947, 65.51894
751.5768, 65.12136
752.0590, 65.06355
752.5411, 65.41560
753.0232, 65.79295
753.5053, 66.43172
753.9874, 66.76807
754.4695, 66.53905
754.9517, 66.00053
755.4338, 65.24091
755.9159, 64.31415
756.3980, 63.86048
756.8801, 64.55254
757.3622, 65.53682
757.8444, 65.98508
758.3265, 66.07057
758.8086, 66.21864
759.2907, 66.54355
759.7728, 66.93976
760.2549, 67.27986
760.7371, 67.61418
761.2192, 68.27270
761.7013, 69.38607
762.1834, 70.48909
762.6655, 71.69809
763.1476, 72.65859
763.6298, 73.06087
764.1119, 73.04626
764.5940, 73.01135
765.0761, 73.03243
765.5582, 73.04928
766.0403, 72.94872
766.5225, 72.88438
767.0046, 73.25527
767.4867, 73.85886
767.9688, 73.83844
768.4509, 72.73806
768.9330, 71.30114
769.4152, 70.83180
769.8973, 71.36910
770.3794, 71.74310
770.8615, 71.92535
771.3436, 71.93922
771.8257, 71.52596
772.3079, 71.14773
772.7900, 71.64496
773.2721, 73.11732
773.7542, 74.10595
774.2363, 73.91687
774.7184, 73.71138
775.2006, 73.97655
775.6827, 74.62447
776.1648, 75.64294
776.6469, 76.93061
777.1290, 78.11832
777.6111, 78.87724
778.0933, 79.39717
778.5754, 80.09556
779.0575, 80.96777
779.5396, 81.85116
780.0217, 82.71439
780.5038, 83.59270
780.9860, 84.46966
781.4681, 85.39628
781.9502, 86.62791
782.4323, 88.54044
782.9144, 90.13190
783.3965, 91.18531
783.8787, 92.07332
784.3608, 93.05952
784.8429, 94.02130
785.3250, 94.70134
785.8071, 95.01866
786.2892, 95.15927
786.7714, 95.16451
787.2535, 95.15086
787.7356, 95.41935
788.2177, 95.91886
788.6998, 96.29929
789.1819, 96.45242
789.6641, 96.27044
790.1462, 95.61436
790.6283, 94.48495
791.1104, 93.03172
791.5925, 91.00269
792.0746, 89.08705
792.5568, 87.78204
793.0389, 86.29545
793.5210, 83.67942
794.0031, 80.37294
794.4852, 77.96068
794.9673, 77.26368
795.4495, 76.83492
795.9316, 75.88338
796.4137, 74.61932
796.8958, 73.28197
797.3779, 71.89703
797.8600, 70.32793
798.3422, 68.48991
798.8243, 66.74403
799.3064, 65.80248
799.7885, 65.69867
800.2706, 65.26492
800.7527, 64.40063
801.2349, 63.50509
801.7170, 62.73300
802.1991, 62.01138
802.6812, 61.17409
803.1633, 60.21608
803.6454, 59.54797
804.1276, 59.30650
804.6097, 59.24363
805.0918, 59.54310
805.5739, 59.79689
806.0560, 59.44854
806.5381, 58.60683
807.0203, 57.91587
807.5024, 57.77662
807.9845, 57.88214
808.4666, 57.88417
808.9487, 57.77163
809.4308, 57.48954
809.9130, 57.02952
810.3951, 56.38826
810.8772, 55.45470
811.3593, 54.60183
811.8414, 54.65687
812.3235, 55.98668
812.8057, 56.85060
813.2878, 57.24446
813.7699, 57.15546
814.2520, 56.19163
814.7341, 55.00831
815.2162, 54.29507
815.6984, 54.07463
816.1805, 53.84155
816.6626, 53.10372
817.1447, 52.57454
817.6268, 53.17460
818.1089, 54.15919
818.5911, 54.12163
819.0732, 53.07845
819.5553, 52.38745
820.0374, 52.99521
820.5195, 54.15465
821.0016, 54.20587
821.4838, 53.10823
821.9659, 52.36234
822.4480, 52.05653
822.9301, 52.20174
823.4122, 53.11419
823.8943, 54.21392
824.3765, 54.38634
824.8586, 53.38514
825.3407, 52.75732
825.8228, 52.74890
826.3049, 52.88445
826.7870, 53.07514
827.2692, 53.28049
827.7513, 53.59344
828.2334, 53.92059
828.7155, 53.82869
829.1976, 52.81786
829.6797, 51.79235
830.1619, 51.98499
830.6440, 52.90104
831.1261, 53.33748
831.6082, 53.18237
832.0903, 52.97111
832.5724, 53.00796
833.0546, 53.19016
833.5367, 53.36875
834.0188, 53.59811
834.5009, 53.40156
834.9830, 52.50295
835.4651, 51.72992
835.9473, 51.32034
836.4294, 51.23592
836.9115, 51.57613
837.3936, 52.30221
837.8757, 52.66691
838.3578, 52.10533
838.8400, 51.72666
839.3221, 52.03577
839.8042, 52.65887
840.2863, 53.47605
840.7684, 54.25164
841.2505, 54.41505
841.7327, 53.62820
842.2148, 52.58863
842.6969, 52.16404
843.1790, 52.14225
843.6611, 51.80309
844.1432, 51.15284
844.6254, 50.97720
845.1075, 51.67589
845.5896, 52.55117
846.0717, 52.65444
846.5538, 51.98217
847.0359, 51.36943
847.5181, 50.69770
848.0002, 50.33083
848.4823, 50.59830
848.9644, 50.95343
849.4465, 51.09585
849.9286, 51.02211
850.4108, 50.70152
850.8929, 49.91042
851.3750, 49.37300
851.8571, 49.51283
852.3392, 49.85702
852.8214, 50.12502
853.3035, 50.26139
853.7856, 50.17173
854.2677, 49.85140
854.7498, 49.57256
855.2319, 49.64512
855.7141, 49.91712
856.1962, 50.02201
856.6783, 49.98936
857.1604, 50.05805
857.6425, 50.29416
858.1246, 50.52009
858.6068, 50.59955
859.0889, 50.53764
859.5710, 50.33554
860.0531, 49.91160
860.5352, 49.56261
861.0173, 49.33205
861.4995, 49.13518
861.9816, 48.86700
862.4637, 48.64217
862.9458, 48.62724
863.4279, 48.84227
863.9100, 49.11325
864.3922, 49.42701
864.8743, 49.75325
865.3564, 50.24593
865.8385, 50.63617
866.3206, 50.54670
866.8027, 50.01310
867.2849, 49.31514
867.7670, 48.52508
868.2491, 47.99262
868.7312, 48.47760
869.2133, 49.54452
869.6954, 49.87928
870.1776, 49.42506
870.6597, 48.91349
871.1418, 48.67953
871.6239, 48.46574
872.1060, 47.82232
872.5881, 46.75903
873.0703, 46.54911
873.5524, 47.72149
874.0345, 48.38179
874.5166, 47.85509
874.9987, 46.99448
875.4808, 46.25578
875.9630, 45.72542
876.4451, 45.75854
876.9272, 46.82867
877.4093, 47.48528
877.8914, 47.11744
878.3735, 46.58931
878.8557, 46.37675
879.3378, 46.38137
879.8199, 46.43385
880.3020, 46.47708
880.7841, 46.43277
881.2662, 46.13665
881.7484, 45.82984
882.2305, 45.87804
882.7126, 46.13554
883.1947, 46.20154
883.6768, 46.05003
884.1589, 46.05383
884.6411, 46.47345
885.1232, 47.05193
885.6053, 47.25207
886.0874, 47.06337
886.5695, 46.97474
887.0516, 47.07206
887.5338, 46.93293
888.0159, 46.30856
888.4980, 45.51891
888.9801, 44.90997
889.4622, 44.48129
889.9443, 44.21991
890.4265, 44.36700
890.9086, 44.33259
891.3907, 43.60126
891.8728, 43.12239
892.3549, 43.81048
892.8370, 45.08665
893.3192, 45.79600
893.8013, 45.65503
894.2834, 45.24504
894.7655, 44.72271
895.2476, 44.16908
895.7297, 43.56134
896.2119, 43.00711
896.6940, 42.68493
897.1761, 42.61747
897.6582, 42.71841
898.1403, 42.96199
898.6224, 43.23732
899.1046, 43.36938
899.5867, 43.37539
900.0688, 43.37071
900.5509, 43.36055
901.0330, 43.08815
901.5151, 42.37791
901.9973, 41.64836
902.4794, 41.56866
902.9615, 42.13987
903.4436, 42.38650
903.9257, 42.16686
904.4078, 42.01414
904.8900, 42.24068
905.3721, 42.29860
905.8542, 41.52795
906.3363, 40.27272
906.8184, 39.62616
907.3005, 39.87340
907.7827, 40.07456
908.2648, 40.02749
908.7469, 40.00850
909.2290, 40.36515
909.7111, 40.70164
910.1932, 40.34606
910.6754, 39.35455
911.1575, 38.68422
911.6396, 38.95583
912.1217, 39.48341
912.6038, 39.96853
913.0859, 40.21444
913.5681, 39.65763
914.0502, 38.56741
914.5323, 37.97452
915.0144, 38.32479
915.4965, 39.04774
915.9786, 39.52540
916.4607, 39.80739
916.9428, 40.10216
917.4249, 40.39611
917.9070, 40.44137
918.3892, 40.15672
918.8713, 39.85443
919.3534, 39.78151
919.8355, 39.87881
920.3176, 39.97987
920.7997, 40.10814
921.2819, 40.16668
921.7640, 40.21439
922.2461, 40.07465
922.7282, 39.65440
923.2103, 39.03197
923.6924, 38.05661
924.1746, 36.77819
924.6567, 36.37953
925.1388, 37.65873
925.6209, 38.76226
926.1030, 39.44535
926.5851, 39.76681
927.0673, 39.56162
927.5494, 39.09529
928.0315, 38.81768
928.5136, 38.84060
928.9957, 38.91496
929.4778, 38.96861
929.9600, 38.96380
930.4421, 38.85202
930.9242, 38.67025
931.4063, 38.46605
931.8884, 38.25132
932.3705, 37.97717
932.8527, 37.57947
933.3348, 37.36858
933.8169, 38.02641
934.2990, 39.12458
934.7811, 39.39756
935.2632, 38.89674
935.7454, 38.35896
936.2275, 38.02507
936.7096, 37.86289
937.1917, 37.88058
937.6738, 37.98682
938.1559, 37.73593
938.6381, 37.03409
939.1202, 36.81957
939.6023, 37.34297
940.0844, 37.82055
940.5665, 37.78064
941.0486, 37.57769
941.5308, 37.81426
942.0129, 38.55779
942.4950, 39.00423
942.9771, 39.06943
943.4592, 38.96197
943.9413, 38.53297
944.4235, 38.12053
944.9056, 37.88799
945.3877, 37.83636
945.8698, 37.99445
946.3519, 38.43228
946.8340, 38.77287
947.3162, 38.96114
947.7983, 38.98240
948.2804, 38.59850
948.7625, 38.19559
949.2446, 38.38881
949.7267, 39.02203
950.2089, 39.20326
950.6910, 38.35599
951.1731, 37.57961
951.6552, 38.06115
952.1373, 38.86501
952.6194, 38.58945
953.1016, 37.67950
953.5837, 37.50695
954.0658, 38.37265
954.5479, 39.29801
955.0300, 39.46478
955.5121, 39.24952
955.9943, 39.30941
956.4764, 39.59457
956.9585, 39.93035
957.4406, 40.29346
957.9227, 40.61405
958.4048, 40.85175
958.8870, 41.17422
959.3691, 41.89853
959.8512, 42.90633
960.3333, 43.10913
960.8154, 42.34902
961.2975, 41.96844
961.7797, 42.26742
962.2618, 42.78709
962.7439, 43.32131
963.2260, 43.76588
963.7081, 43.84707
964.1902, 43.42751
964.6724, 43.38813
965.1545, 43.96863
965.6366, 44.53404
966.1187, 45.04180
966.6008, 45.38560
967.0829, 45.33132
967.5651, 45.05760
968.0472, 45.15098
968.5293, 45.87783
969.0114, 46.34983
969.4935, 46.29169
969.9756, 46.14000
970.4578, 46.20235
970.9399, 46.19242
971.4220, 45.65834
971.9041, 44.70840
972.3862, 44.01674
972.8683, 43.97686
973.3505, 43.86267
973.8326, 43.05053
974.3147, 42.22779
974.7968, 42.12872
975.2789, 42.43098
975.7610, 42.52686
976.2432, 42.27990
976.7253, 41.87467
977.2074, 41.31950
977.6895, 40.85746
978.1716, 40.78041
978.6537, 40.96574
979.1359, 41.34800
979.6180, 41.79655
980.1001, 41.87861
980.5822, 41.46091
981.0643, 41.01874
981.5464, 41.05718
982.0286, 41.38282
982.5107, 41.59858
982.9928, 41.70235
983.4749, 41.62661
983.9570, 41.38016
984.4391, 41.27130
984.9213, 41.48083
985.4034, 41.69672
985.8855, 41.37938
986.3676, 40.63826
986.8497, 40.55753
987.3318, 41.22479
987.8140, 41.49813
988.2961, 41.11299
988.7782, 40.48857
989.2603, 39.81127
989.7424, 39.22301
990.2245, 39.03243
990.7067, 39.28872
991.1888, 39.55256
991.6709, 39.84193
992.1530, 40.10310
992.6351, 40.34750
993.1172, 40.52608
993.5994, 40.59216
994.0815, 40.56535
994.5636, 40.47686
995.0457, 40.18138
995.5278, 40.23551
996.0099, 40.97005
996.4921, 41.62008
996.9742, 42.02830
997.4563, 42.24705
997.9384, 42.25033
998.4205, 42.10061
998.9026, 41.97700
999.3848, 41.79771
999.8669, 41.91299
1000.349, 42.52571
1000.831, 43.28988
1001.313, 44.26390
1001.795, 45.14672
1002.277, 45.51621
1002.760, 45.47181
1003.242, 45.59927
1003.724, 46.15652
1004.206, 46.71466
1004.688, 47.02560
1005.170, 47.31484
1005.652, 47.91740
1006.134, 48.53384
1006.617, 48.59786
1007.099, 48.14125
1007.581, 47.82644
1008.063, 48.01989
1008.545, 48.35704
1009.027, 48.70280
1009.509, 48.91028
1009.991, 48.57343
1010.473, 48.02349
1010.956, 48.15470
1011.438, 49.03659
1011.920, 49.63046
1012.402, 49.15615
1012.884, 48.25733
1013.366, 47.59138
1013.848, 47.13168
1014.330, 46.95132
1014.813, 46.92788
1015.295, 46.62733
1015.777, 45.94067
1016.259, 45.20524
1016.741, 44.61655
1017.223, 44.36787
1017.705, 45.20676
1018.187, 46.66617
1018.669, 46.88179
1019.152, 45.89351
1019.634, 45.27814
1020.116, 45.61391
1020.598, 46.07624
1021.080, 45.76566
1021.562, 45.05179
1022.044, 45.10120
1022.526, 45.81594
1023.008, 46.10239
1023.491, 45.85314
1023.973, 45.68742
1024.455, 45.86298
1024.937, 46.25382
1025.419, 46.78106
1025.901, 47.33758
1026.383, 47.31941
1026.865, 46.66304
1027.348, 46.52890
1027.830, 47.18043
1028.312, 47.32172
1028.794, 46.18507
1029.276, 44.89566
1029.758, 44.91341
1030.240, 46.05964
1030.722, 47.00882
1031.204, 47.85123
1031.687, 47.98555
1032.169, 47.07379
1032.651, 46.28520
1033.133, 46.23283
1033.615, 46.43441
1034.097, 46.17314
1034.579, 45.52258
1035.061, 45.70809
1035.544, 47.21588
1036.026, 48.29302
1036.508, 48.72626
1036.990, 48.81810
1037.472, 48.37399
1037.954, 48.01675
1038.436, 48.75390
1038.918, 50.52372
1039.401, 51.49571
1039.883, 51.07101
1040.365, 50.95979
1040.847, 51.53492
1041.329, 52.07283
1041.811, 52.11702
1042.293, 52.05068
1042.775, 52.49566
1043.257, 53.42591
1043.740, 53.83662
1044.222, 53.23343
1044.704, 52.87629
1045.186, 52.91953
1045.668, 53.11407
1046.150, 53.73140
1046.632, 54.19933
1047.114, 53.55775
1047.596, 51.91213
1048.079, 50.96507
1048.561, 51.41079
1049.043, 51.72689
1049.525, 51.80921
1050.007, 51.64504
1050.489, 50.97996
1050.971, 50.22776
1051.453, 49.98951
1051.936, 50.20227
1052.418, 50.07460
1052.900, 48.98441
1053.382, 48.39942
1053.864, 49.09860
1054.346, 49.79657
1054.828, 49.73357
1055.310, 49.36007
1055.792, 49.19587
1056.275, 49.26966
1056.757, 49.44185
1057.239, 49.88095
1057.721, 49.99971
1058.203, 49.13050
1058.685, 48.47776
1059.167, 49.03257
1059.649, 49.94610
1060.131, 50.16840
1060.614, 49.75521
1061.096, 49.44085
1061.578, 49.34915
1062.060, 49.54918
1062.542, 50.32103
1063.024, 51.09740
1063.506, 51.60820
1063.988, 51.91096
1064.471, 51.98827
1064.953, 51.93285
1065.435, 52.08416
1065.917, 52.69997
1066.399, 52.92490
1066.881, 51.99155
1067.363, 51.06890
1067.845, 50.80408
1068.328, 50.93462
1068.810, 51.48600
1069.292, 52.11741
1069.774, 51.82902
1070.256, 50.12053
1070.738, 48.80858
1071.220, 49.05722
1071.702, 49.48507
1072.184, 49.19989
1072.667, 48.75932
1073.149, 48.84284
1073.631, 49.29327
1074.113, 49.61972
1074.595, 49.71929
1075.077, 49.37516
1075.559, 47.76949
1076.041, 46.56690
1076.523, 47.12892
1077.006, 48.17783
1077.488, 48.47949
1077.970, 48.22830
1078.452, 48.07064
1078.934, 48.16087
1079.416, 48.49349
1079.898, 49.50051
1080.380, 50.20105
1080.862, 49.81382
1081.345, 49.14256
1081.827, 48.87625
1082.309, 48.89360
1082.791, 48.93435
1083.273, 48.92063
1083.755, 48.64405
1084.237, 47.44354
1084.719, 46.76879
1085.202, 47.83927
1085.684, 49.19500
1086.166, 49.56605
1086.648, 49.46462
1087.130, 49.78123
1087.612, 50.62481
1088.094, 51.58674
1088.576, 52.64635
1089.058, 53.53240
1089.541, 54.23374
1090.023, 54.61222
1090.505, 54.31652
1090.987, 53.80033
1091.469, 53.62123
1091.951, 53.80886
1092.433, 54.10411
1092.915, 54.39714
1093.397, 54.88084
1093.880, 55.95289
1094.362, 56.86324
1094.844, 57.07026
1095.326, 56.94863
1095.808, 56.78017
1096.290, 56.68287
1096.772, 56.90348
1097.254, 57.60317
1097.737, 58.09699
1098.219, 58.11836
1098.701, 57.92803
1099.183, 57.49487
1099.665, 57.03237
1100.147, 56.83161
1100.629, 56.71845
1101.111, 56.20201
1101.594, 55.14921
1102.076, 54.40145
1102.558, 54.43032
1103.040, 54.44778
1103.522, 54.11971
1104.004, 53.76958
1104.486, 53.51998
1104.968, 53.45626
1105.450, 53.73380
1105.932, 54.35571
1106.415, 55.02050
1106.897, 56.05845
1107.379, 56.55373
1107.861, 55.82725
1108.343, 55.09270
1108.825, 54.76982
1109.307, 54.92120
1109.789, 55.95327
1110.272, 57.63115
1110.754, 58.35168
1111.236, 57.09958
1111.718, 56.58681
1112.200, 57.49679
1112.682, 58.61267
1113.164, 59.79925
1113.646, 60.78010
1114.129, 61.13675
1114.611, 61.09850
1115.093, 61.39730
1115.575, 62.01439
1116.057, 63.08613
1116.539, 65.31528
1117.021, 66.92239
1117.503, 66.98760
1117.985, 67.01813
1118.468, 68.02755
1118.950, 69.62836
1119.432, 71.06760
1119.914, 72.30410
1120.396, 73.91266
1120.878, 76.28653
1121.360, 78.16830
1121.842, 79.21141
1122.324, 80.06987
1122.807, 80.83647
1123.289, 81.90565
1123.771, 84.02531
1124.253, 86.95247
1124.735, 88.51962
1125.217, 88.08171
1125.699, 88.69044
1126.181, 90.87641
1126.664, 92.89160
1127.146, 94.12855
1127.628, 95.00839
1128.110, 95.87489
1128.592, 96.71752
1129.074, 97.48465
1129.556, 98.15253
1130.038, 99.01857
1130.521, 100.1536
1131.003, 100.8962
1131.485, 101.0211
1131.967, 101.3271
1132.449, 102.4280
1132.931, 103.5702
1133.413, 103.3864
1133.895, 102.1297
1134.377, 101.6778
1134.859, 101.9931
1135.342, 102.1140
1135.824, 101.9048
1136.306, 100.9794
1136.788, 99.15417
1137.270, 97.13157
1137.752, 95.65883
1138.234, 94.53743
1138.716, 93.32403
1139.199, 92.02922
1139.681, 90.78737
1140.163, 89.53476
1140.645, 87.74882
1141.127, 85.36613
1141.609, 83.11995
1142.091, 81.52050
1142.573, 80.27222
1143.056, 78.90187
1143.538, 77.62856
1144.020, 77.20911
1144.502, 77.18292
1144.984, 76.20576
1145.466, 74.31906
1145.948, 72.64752
1146.430, 71.66402
1146.912, 70.88039
1147.395, 69.74084
1147.877, 68.72263
1148.359, 68.57752
1148.841, 68.74426
1149.323, 68.38969
1149.805, 67.67615
1150.287, 67.12156
1150.769, 66.84253
1151.251, 66.64864
1151.734, 66.43910
1152.216, 66.29659
1152.698, 66.34896
1153.180, 66.41599
1153.662, 66.56956
1154.144, 66.49664
1154.626, 65.47463
1155.108, 63.87946
1155.591, 63.13647
1156.073, 63.80428
1156.555, 64.15154
1157.037, 63.28635
1157.519, 62.36106
1158.001, 61.79600
1158.483, 61.39622
1158.965, 61.28523
1159.448, 61.09227
1159.930, 60.12651
1160.412, 58.34690
1160.894, 56.64047
1161.376, 55.16172
1161.858, 53.67553
1162.340, 52.00525
1162.822, 50.53377
1163.304, 49.36317
1163.786, 48.50628
1164.269, 48.10682
1164.751, 47.99955
1165.233, 47.59342
1165.715, 46.80206
1166.197, 46.11755
1166.679, 45.65730
1167.161, 44.94457
1167.643, 43.76528
1168.126, 42.61890
1168.608, 41.76574
1169.090, 41.19198
1169.572, 40.91156
1170.054, 40.87601
1170.536, 40.72744
1171.018, 40.46007
1171.500, 40.20119
1171.983, 39.96188
1172.465, 39.72890
1172.947, 39.50359
1173.429, 39.10630
1173.911, 38.35149
1174.393, 37.48979
1174.875, 37.09968
1175.357, 36.98898
1175.839, 36.26733
1176.322, 35.12895
1176.804, 34.36358
1177.286, 34.12844
1177.768, 34.51674
1178.250, 35.54522
1178.732, 36.50400
1179.214, 36.68768
1179.696, 36.47400
1180.178, 36.47247
1180.661, 36.34664
1181.143, 35.23544
1181.625, 33.67082
1182.107, 32.97181
1182.589, 33.27925
1183.071, 33.66500
1183.553, 33.66744
1184.035, 33.77263
1184.518, 34.72714
1185.000, 35.38513
1185.482, 34.55643
1185.964, 33.32343
1186.446, 32.78876
1186.928, 32.84016
1187.410, 33.02624
1187.892, 33.27345
1188.375, 33.38663
1188.857, 33.31825
1189.339, 33.11300
1189.821, 32.58688
1190.303, 32.15637
1190.785, 32.13670
1191.267, 32.21779
1191.749, 31.94188
1192.231, 31.48811
1192.714, 31.63064
1193.196, 32.73169
1193.678, 32.95846
1194.160, 31.87032
1194.642, 31.13880
1195.124, 31.20457
1195.606, 31.31198
1196.088, 30.96397
1196.570, 30.61379
1197.053, 30.92117
1197.535, 31.75780
1198.017, 32.63152
1198.499, 33.52442
1198.981, 33.56095
1199.463, 32.73406
1199.945, 32.28271
1200.427, 32.54144
1200.910, 32.72812
1201.392, 32.28405
1201.874, 31.65978
1202.356, 31.62719
1202.838, 31.80347
1203.320, 31.04072
1203.802, 29.95940
1204.284, 30.39785
1204.766, 31.88718
1205.249, 32.09327
1205.731, 30.46660
1206.213, 29.05392
1206.695, 29.12984
1207.177, 29.78809
1207.659, 30.86443
1208.141, 31.67717
1208.623, 31.36004
1209.105, 30.60830
1209.588, 30.26343
1210.070, 30.31490
1210.552, 30.43470
1211.034, 30.57928
1211.516, 30.55519
1211.998, 29.94830
1212.480, 29.71041
1212.962, 30.66129
1213.445, 31.34649
1213.927, 30.67188
1214.409, 29.60322
1214.891, 29.11018
1215.373, 29.12844
1215.855, 29.41958
1216.337, 30.12741
1216.819, 30.44283
1217.302, 30.25956
1217.784, 30.10672
1218.266, 30.11971
1218.748, 30.00675
1219.230, 29.56389
1219.712, 29.12392
1220.194, 29.13715
1220.676, 29.46172
1221.158, 29.68963
1221.641, 29.81350
1222.123, 29.72355
1222.605, 29.47666
1223.087, 29.38859
1223.569, 29.51759
1224.051, 29.72702
1224.533, 29.95280
1225.015, 29.99337
1225.497, 29.33430
1225.980, 28.68846
1226.462, 29.15773
1226.944, 29.94481
1227.426, 29.89174
1227.908, 29.34453
1228.390, 29.20859
1228.872, 29.58118
1229.354, 29.90157
1229.837, 30.04523
1230.319, 29.92480
1230.801, 29.14013
1231.283, 28.56911
1231.765, 28.83660
1232.247, 29.21434
1232.729, 29.23674
1233.211, 28.91448
1233.693, 28.13061
1234.176, 26.92690
1234.658, 26.60434
1235.140, 27.59526
1235.622, 28.11581
1236.104, 27.93223
1236.586, 27.89797
1237.068, 28.33272
1237.550, 28.59033
1238.032, 28.13180
1238.515, 27.54012
1238.997, 27.86386
1239.479, 28.83992
1239.961, 29.55239
1240.443, 29.94828
1240.925, 29.53867
1241.407, 28.53160
1241.889, 28.00026
1242.372, 28.22665
1242.854, 28.83795
1243.336, 29.70918
1243.818, 30.23355
1244.300, 29.45172
1244.782, 28.46459
1245.264, 28.48135
1245.746, 28.81250
1246.229, 28.40221
1246.711, 27.69984
1247.193, 27.90720
1247.675, 29.09996
1248.157, 29.89463
1248.639, 29.79450
1249.121, 29.59759
1249.603, 29.49829
1250.085, 29.23109
1250.568, 28.42479
1251.050, 27.79575
1251.532, 27.90059
1252.014, 28.39539
1252.496, 28.75885
1252.978, 28.97624
1253.460, 28.78471
1253.942, 28.10273
1254.424, 28.05616
1254.907, 28.74900
1255.389, 28.81644
1255.871, 27.89806
1256.353, 27.21909
1256.835, 27.58938
1257.317, 28.22814
1257.799, 28.09218
1258.281, 27.59956
1258.764, 27.38993
1259.246, 27.44210
1259.728, 27.93330
1260.210, 28.57735
1260.692, 28.69116
1261.174, 28.25115
1261.656, 27.82482
1262.138, 27.61130
1262.620, 27.55978
1263.103, 27.65812
1263.585, 27.90004
1264.067, 28.44141
1264.549, 28.95530
1265.031, 29.21168
1265.513, 29.30774
1265.995, 29.46552
1266.477, 29.60724
1266.959, 29.23914
1267.442, 28.05632
1267.924, 27.69276
1268.406, 28.36412
1268.888, 28.90364
1269.370, 29.12452
1269.852, 28.86220
1270.334, 27.97698
1270.816, 27.18562
1271.299, 27.28655
1271.781, 27.89936
1272.263, 28.36921
1272.745, 28.69059
1273.227, 28.82952
1273.709, 28.81890
1274.191, 28.67995
1274.673, 28.47453
1275.156, 28.32849
1275.638, 28.29262
1276.120, 28.46854
1276.602, 29.27635
1277.084, 29.66691
1277.566, 28.62160
1278.048, 27.59704
1278.530, 27.51395
1279.012, 27.83440
1279.495, 28.09547
1279.977, 28.29085
1280.459, 28.44055
1280.941, 28.53745
1281.423, 28.87165
1281.905, 29.60990
1282.387, 29.89323
1282.869, 29.53367
1283.351, 29.56053
1283.834, 30.33049
1284.316, 30.97477
1284.798, 30.88796
1285.280, 30.50214
1285.762, 30.34116
1286.244, 30.41978
##END=



