##NAMES=Zavaritskite
##RRUFFID=R070488
##IDEAL CHEMISTRY=Bi^3+^OF
##LOCALITY=Moldava, Dubí, Krusné Hory Mts (Erzgebirge), Ústí Region, Bohemia (Böhmen; Boehmen), Czech Republic
##OWNER=RRUFF
##SOURCE=Michael Scott
##DESCRIPTION=Dark gray submetallic massive
##STATUS=The identification of this mineral is not yet confirmed.
##URL=rruff.info/R070488
156.4232, 1205.342
156.9053, 1223.196
157.3874, 1235.516
157.8695, 1240.427
158.3516, 1247.122
158.8338, 1248.286
159.3159, 1239.392
159.7980, 1218.295
160.2801, 1199.677
160.7622, 1187.941
161.2443, 1180.969
161.7265, 1175.820
162.2086, 1169.543
162.6907, 1166.262
163.1728, 1169.181
163.6549, 1181.504
164.1370, 1192.439
164.6192, 1196.340
165.1013, 1195.490
165.5834, 1195.320
166.0655, 1201.325
166.5476, 1207.297
167.0297, 1207.582
167.5119, 1196.432
167.9940, 1186.136
168.4761, 1184.992
168.9582, 1191.299
169.4403, 1197.947
169.9224, 1201.846
170.4046, 1203.541
170.8867, 1203.541
171.3688, 1199.882
171.8509, 1196.317
172.3330, 1195.315
172.8151, 1196.850
173.2973, 1201.320
173.7794, 1215.382
174.2615, 1232.005
174.7436, 1239.205
175.2257, 1219.172
175.7078, 1193.911
176.1900, 1192.499
176.6721, 1216.979
177.1542, 1242.625
177.6363, 1246.379
178.1184, 1233.727
178.6005, 1218.852
179.0827, 1206.805
179.5648, 1197.301
180.0469, 1188.900
180.5290, 1180.704
181.0111, 1176.666
181.4932, 1186.763
181.9754, 1207.438
182.4575, 1221.673
182.9396, 1212.832
183.4217, 1190.435
183.9038, 1179.035
184.3859, 1184.408
184.8681, 1196.254
185.3502, 1198.414
185.8323, 1191.634
186.3144, 1184.890
186.7965, 1183.770
187.2786, 1187.664
187.7608, 1195.011
188.2429, 1207.439
188.7250, 1220.964
189.2071, 1226.538
189.6892, 1224.053
190.1713, 1217.917
190.6535, 1209.857
191.1356, 1200.315
191.6177, 1193.872
192.0998, 1191.916
192.5819, 1193.681
193.0640, 1198.402
193.5462, 1206.887
194.0283, 1213.328
194.5104, 1208.406
194.9925, 1192.355
195.4746, 1183.370
195.9567, 1190.824
196.4389, 1210.824
196.9210, 1218.278
197.4031, 1210.922
197.8852, 1198.666
198.3673, 1192.068
198.8494, 1191.207
199.3316, 1195.892
199.8137, 1210.122
200.2958, 1233.457
200.7779, 1243.218
201.2600, 1236.459
201.7421, 1222.277
202.2243, 1213.897
202.7064, 1211.999
203.1885, 1212.401
203.6706, 1213.996
204.1527, 1216.986
204.6348, 1218.968
205.1170, 1219.906
205.5991, 1219.832
206.0812, 1218.262
206.5633, 1214.469
207.0454, 1211.710
207.5275, 1211.773
208.0097, 1215.091
208.4918, 1219.621
208.9739, 1227.308
209.4560, 1234.836
209.9381, 1231.458
210.4202, 1212.852
210.9024, 1194.833
211.3845, 1187.578
211.8666, 1194.487
212.3487, 1198.540
212.8308, 1198.294
213.3129, 1194.367
213.7951, 1187.852
214.2772, 1176.414
214.7593, 1167.036
215.2414, 1165.377
215.7235, 1174.258
216.2056, 1181.881
216.6878, 1187.218
217.1699, 1190.234
217.6520, 1189.511
218.1341, 1182.549
218.6162, 1175.744
219.0983, 1174.252
219.5805, 1180.021
220.0626, 1186.152
220.5447, 1192.176
221.0268, 1197.880
221.5089, 1202.258
221.9910, 1206.817
222.4732, 1208.077
222.9553, 1201.953
223.4374, 1184.341
223.9195, 1168.868
224.4016, 1158.027
224.8837, 1151.833
225.3659, 1148.010
225.8480, 1146.796
226.3301, 1147.652
226.8122, 1150.526
227.2943, 1157.254
227.7764, 1162.138
228.2586, 1163.483
228.7407, 1160.957
229.2228, 1159.282
229.7049, 1160.493
230.1870, 1160.591
230.6691, 1153.025
231.1513, 1128.474
231.6334, 1114.173
232.1155, 1120.870
232.5976, 1153.192
233.0797, 1172.719
233.5618, 1175.405
234.0440, 1168.673
234.5261, 1161.140
235.0082, 1149.249
235.4903, 1143.142
235.9724, 1147.835
236.4545, 1167.743
236.9367, 1178.524
237.4188, 1178.251
237.9009, 1170.435
238.3830, 1159.202
238.8651, 1139.867
239.3472, 1125.050
239.8294, 1119.502
240.3115, 1125.708
240.7936, 1131.884
241.2757, 1139.207
241.7578, 1145.717
242.2399, 1147.588
242.7221, 1142.122
243.2042, 1136.345
243.6863, 1133.009
244.1684, 1133.716
244.6505, 1131.091
245.1326, 1121.812
245.6148, 1110.918
246.0969, 1109.391
246.5790, 1125.161
247.0611, 1137.324
247.5432, 1136.079
248.0253, 1112.691
248.5075, 1101.918
248.9896, 1109.420
249.4717, 1127.009
249.9538, 1137.491
250.4359, 1138.514
250.9180, 1136.271
251.4002, 1132.568
251.8823, 1125.971
252.3644, 1121.949
252.8465, 1121.269
253.3286, 1122.861
253.8107, 1124.591
254.2929, 1127.441
254.7750, 1128.778
255.2571, 1126.510
255.7392, 1117.250
256.2213, 1114.682
256.7035, 1123.625
257.1856, 1137.274
257.6677, 1138.408
258.1498, 1121.624
258.6319, 1102.419
259.1140, 1086.806
259.5962, 1073.175
260.0783, 1068.323
260.5604, 1076.414
261.0425, 1091.489
261.5246, 1097.335
262.0067, 1090.350
262.4889, 1081.806
262.9710, 1076.148
263.4531, 1072.895
263.9352, 1075.282
264.4173, 1087.263
264.8994, 1102.951
265.3816, 1106.475
265.8637, 1093.548
266.3458, 1078.616
266.8279, 1067.466
267.3100, 1059.671
267.7921, 1058.641
268.2743, 1067.342
268.7564, 1081.108
269.2385, 1087.634
269.7206, 1085.350
270.2027, 1080.584
270.6848, 1076.372
271.1670, 1072.954
271.6491, 1068.261
272.1312, 1060.724
272.6133, 1053.159
273.0954, 1054.006
273.5775, 1066.525
274.0597, 1076.056
274.5418, 1072.167
275.0239, 1052.053
275.5060, 1042.373
275.9881, 1047.358
276.4702, 1059.788
276.9524, 1064.554
277.4345, 1060.647
277.9166, 1053.585
278.3987, 1043.742
278.8808, 1030.598
279.3629, 1026.939
279.8451, 1036.916
280.3272, 1051.516
280.8093, 1050.209
281.2914, 1030.663
281.7735, 1011.881
282.2556, 1003.328
282.7378, 1004.829
283.2199, 1010.270
283.7020, 1021.054
284.1841, 1032.543
284.6662, 1035.786
285.1483, 1030.407
285.6305, 1023.320
286.1126, 1017.441
286.5947, 1012.719
287.0768, 1009.151
287.5589, 1007.362
288.0410, 1005.244
288.5232, 996.8802
289.0053, 982.6235
289.4874, 973.2213
289.9695, 977.5401
290.4516, 992.1960
290.9337, 1001.173
291.4159, 1003.383
291.8980, 1001.417
292.3801, 996.5172
292.8622, 989.3339
293.3443, 985.2786
293.8264, 989.8907
294.3086, 999.7463
294.7907, 1004.797
295.2728, 1004.302
295.7549, 1000.964
296.2370, 997.6778
296.7191, 994.3013
297.2013, 990.2170
297.6834, 985.6610
298.1655, 980.1840
298.6476, 970.8112
299.1297, 956.6378
299.6118, 945.8473
300.0940, 950.7278
300.5761, 966.6815
301.0582, 980.6725
301.5403, 985.0290
302.0224, 984.4190
302.5045, 986.2672
302.9867, 990.9971
303.4688, 993.3797
303.9509, 983.6298
304.4330, 968.2294
304.9151, 960.2364
305.3972, 972.5297
305.8794, 991.0764
306.3615, 1001.172
306.8436, 1002.803
307.3257, 1000.782
307.8078, 998.1574
308.2899, 994.3406
308.7721, 988.4866
309.2542, 974.4401
309.7363, 962.3079
310.2184, 961.7869
310.7005, 972.1672
311.1826, 983.5963
311.6648, 992.9448
312.1469, 998.9240
312.6290, 1000.125
313.1111, 992.4827
313.5932, 983.0695
314.0753, 974.9100
314.5575, 968.0768
315.0396, 962.7412
315.5217, 958.6472
316.0038, 956.2817
316.4859, 956.0420
316.9680, 958.4496
317.4502, 962.6220
317.9323, 969.9416
318.4144, 979.3785
318.8965, 986.3793
319.3786, 988.5578
319.8607, 988.2521
320.3429, 986.8988
320.8250, 984.3651
321.3071, 981.3594
321.7892, 978.7585
322.2713, 975.9443
322.7534, 971.0580
323.2356, 962.1047
323.7177, 952.0905
324.1998, 942.1157
324.6819, 929.5806
325.1640, 921.5211
325.6461, 922.4625
326.1283, 928.5622
326.6104, 931.0259
327.0925, 925.6569
327.5746, 919.4858
328.0567, 915.0114
328.5388, 913.4636
329.0210, 911.2434
329.5031, 907.9295
329.9852, 904.1098
330.4673, 900.8610
330.9494, 900.2759
331.4315, 897.8569
331.9137, 891.3699
332.3958, 878.6224
332.8779, 870.4739
333.3600, 868.2983
333.8421, 869.8524
334.3242, 872.7330
334.8064, 878.5964
335.2885, 882.4229
335.7706, 881.7035
336.2527, 875.8804
336.7348, 875.4838
337.2169, 883.6317
337.6991, 893.0201
338.1812, 895.3688
338.6633, 888.2635
339.1454, 882.4977
339.6275, 880.5713
340.1096, 882.0715
340.5918, 884.8588
341.0739, 890.6777
341.5560, 892.9857
342.0381, 881.0639
342.5202, 853.2563
343.0023, 840.4519
343.4845, 854.0500
343.9666, 883.2485
344.4487, 893.0804
344.9308, 882.1157
345.4129, 865.7880
345.8951, 852.2116
346.3772, 841.9529
346.8593, 842.2388
347.3414, 857.4781
347.8235, 878.0530
348.3056, 885.9952
348.7878, 882.1901
349.2699, 876.3527
349.7520, 875.7244
350.2341, 877.6393
350.7162, 874.5497
351.1983, 864.5445
351.6805, 853.4727
352.1626, 848.0162
352.6447, 847.4255
353.1268, 849.1868
353.6089, 852.4884
354.0910, 857.1410
354.5732, 864.4355
355.0553, 875.0146
355.5374, 882.4456
356.0195, 880.3273
356.5016, 871.5207
356.9837, 861.1555
357.4659, 847.8631
357.9480, 836.5131
358.4301, 831.2590
358.9122, 832.1693
359.3943, 835.8254
359.8764, 842.3301
360.3586, 849.8514
360.8407, 856.3420
361.3228, 864.3919
361.8049, 868.2689
362.2870, 862.6618
362.7691, 849.2354
363.2513, 838.5706
363.7334, 835.4771
364.2155, 835.7601
364.6976, 836.6396
365.1797, 838.1169
365.6618, 839.4015
366.1440, 840.7128
366.6261, 841.7719
367.1082, 841.7245
367.5903, 839.3888
368.0724, 836.7960
368.5545, 834.7936
369.0367, 833.7397
369.5188, 832.7903
370.0009, 831.8749
370.4830, 831.1017
370.9651, 830.5858
371.4472, 829.6044
371.9294, 829.9316
372.4115, 833.2412
372.8936, 841.2933
373.3757, 842.5942
373.8578, 833.1376
374.3399, 820.7923
374.8221, 814.9861
375.3042, 817.5138
375.7863, 821.4477
376.2684, 824.8396
376.7505, 827.9759
377.2326, 836.2586
377.7148, 852.6642
378.1969, 865.9359
378.6790, 862.8177
379.1611, 841.8740
379.6432, 827.7197
380.1253, 827.0204
380.6075, 833.6932
381.0896, 829.4074
381.5717, 813.3188
382.0538, 799.7507
382.5359, 799.7496
383.0180, 810.6913
383.5002, 820.9334
383.9823, 829.5587
384.4644, 835.9832
384.9465, 838.6249
385.4286, 838.0071
385.9107, 836.8453
386.3929, 836.7429
386.8750, 836.9052
387.3571, 835.6718
387.8392, 832.7699
388.3213, 830.2455
388.8034, 830.3128
389.2856, 831.9498
389.7677, 833.2973
390.2498, 832.7753
390.7319, 832.2855
391.2140, 833.5482
391.6961, 836.4446
392.1783, 839.4983
392.6604, 844.5046
393.1425, 848.0743
393.6246, 846.6899
394.1067, 833.8979
394.5888, 823.0833
395.0710, 821.7141
395.5531, 826.9408
396.0352, 829.2391
396.5173, 819.5983
396.9994, 810.9934
397.4815, 811.2156
397.9637, 827.8498
398.4458, 838.9122
398.9279, 838.5403
399.4100, 831.5477
399.8921, 826.1780
400.3742, 821.5181
400.8564, 819.7910
401.3385, 822.9846
401.8206, 832.5742
402.3027, 836.8704
402.7848, 831.6265
403.2669, 824.9592
403.7491, 825.6381
404.2312, 837.7797
404.7133, 847.1115
405.1954, 851.3651
405.6775, 850.8229
406.1596, 846.1478
406.6418, 835.7279
407.1239, 825.8288
407.6060, 822.0778
408.0881, 824.7813
408.5702, 824.1248
409.0523, 817.3724
409.5345, 809.5358
410.0166, 811.7227
410.4987, 823.5922
410.9808, 835.2039
411.4629, 841.0951
411.9450, 842.5846
412.4272, 844.8333
412.9093, 848.5355
413.3914, 849.2221
413.8735, 837.3547
414.3556, 818.3676
414.8377, 806.7222
415.3199, 812.4512
415.8020, 825.1771
416.2841, 834.2974
416.7662, 840.0728
417.2483, 843.7461
417.7304, 847.2018
418.2126, 848.6763
418.6947, 845.4042
419.1768, 831.7463
419.6589, 821.5616
420.1410, 825.5256
420.6231, 838.6121
421.1053, 848.3266
421.5874, 848.5682
422.0695, 845.3171
422.5516, 840.5416
423.0337, 833.1935
423.5158, 828.8078
423.9980, 831.6205
424.4801, 836.8245
424.9622, 838.6449
425.4443, 832.0397
425.9264, 826.9105
426.4085, 825.1646
426.8907, 826.7650
427.3728, 828.4748
427.8549, 830.0574
428.3370, 831.9652
428.8191, 834.4005
429.3012, 836.9545
429.7834, 841.6447
430.2655, 850.6287
430.7476, 860.7308
431.2297, 862.2534
431.7118, 853.5471
432.1939, 843.5283
432.6761, 835.9857
433.1582, 830.8422
433.6403, 827.4972
434.1224, 825.6699
434.6045, 826.5335
435.0866, 834.9127
435.5688, 848.9448
436.0509, 856.4507
436.5330, 848.2128
437.0151, 833.8400
437.4972, 831.5964
437.9793, 840.7289
438.4615, 853.4075
438.9436, 868.6017
439.4257, 882.1774
439.9078, 886.9841
440.3899, 878.4189
440.8720, 867.6595
441.3542, 863.4008
441.8363, 863.4915
442.3184, 863.2197
442.8005, 859.9254
443.2826, 856.1174
443.7647, 853.0123
444.2469, 850.6740
444.7290, 849.5792
445.2111, 850.2286
445.6932, 852.0571
446.1753, 854.5153
446.6574, 861.1307
447.1396, 864.3826
447.6217, 859.9017
448.1038, 849.1696
448.5859, 844.5316
449.0680, 847.3644
449.5501, 854.8937
450.0323, 867.4361
450.5144, 893.1370
450.9965, 903.4276
451.4786, 891.4091
451.9607, 869.5977
452.4428, 859.5963
452.9250, 863.5623
453.4071, 871.3222
453.8892, 881.4164
454.3713, 892.9699
454.8534, 898.2644
455.3355, 896.3313
455.8177, 893.3224
456.2998, 895.0685
456.7819, 900.8781
457.2640, 907.4729
457.7461, 915.0803
458.2282, 921.5264
458.7104, 922.7192
459.1925, 919.4258
459.6746, 915.2136
460.1567, 907.7379
460.6388, 902.5629
461.1209, 909.9991
461.6031, 932.8776
462.0852, 951.0856
462.5673, 946.9911
463.0494, 931.6871
463.5316, 919.6346
464.0137, 917.7827
464.4958, 918.6100
464.9779, 921.0460
465.4600, 924.3772
465.9421, 924.1773
466.4243, 912.6762
466.9064, 902.2427
467.3885, 900.3094
467.8706, 917.6000
468.3527, 925.6289
468.8348, 919.0428
469.3170, 904.6162
469.7991, 892.7435
470.2812, 883.3503
470.7633, 876.7714
471.2454, 874.7418
471.7275, 877.0234
472.2097, 872.4106
472.6918, 858.1099
473.1739, 843.8066
473.6560, 838.0873
474.1381, 841.0757
474.6202, 844.6046
475.1024, 848.1736
475.5845, 850.7806
476.0666, 849.6836
476.5487, 845.2565
477.0308, 841.1981
477.5129, 839.0386
477.9951, 838.6528
478.4772, 841.3621
478.9593, 847.4100
479.4414, 850.8286
479.9235, 839.8306
480.4056, 824.5214
480.8878, 821.0205
481.3699, 845.2942
481.8520, 869.1686
482.3341, 874.6013
482.8162, 865.7548
483.2983, 856.1188
483.7805, 849.6855
484.2626, 844.6478
484.7447, 839.6712
485.2268, 833.6491
485.7089, 830.8234
486.1910, 836.0309
486.6732, 842.8553
487.1553, 843.9791
487.6374, 832.8589
488.1195, 825.8063
488.6016, 827.3094
489.0837, 835.4803
489.5659, 837.7356
490.0480, 831.2825
490.5301, 825.2526
491.0122, 826.2587
491.4943, 835.1418
491.9764, 839.0508
492.4586, 836.3346
492.9407, 831.5281
493.4228, 831.0766
493.9049, 834.5347
494.3870, 838.0887
494.8691, 841.0244
495.3513, 842.7513
495.8334, 840.7601
496.3155, 835.5269
496.7976, 831.7675
497.2797, 835.1019
497.7618, 840.8136
498.2440, 842.7230
498.7261, 838.5485
499.2082, 834.0332
499.6903, 833.9496
500.1724, 835.6763
500.6545, 834.9648
501.1367, 827.0223
501.6188, 819.6406
502.1009, 816.0019
502.5830, 816.1849
503.0651, 816.7781
503.5472, 819.2957
504.0294, 820.6718
504.5115, 818.8725
504.9936, 809.0244
505.4757, 805.3200
505.9578, 810.7958
506.4399, 820.5166
506.9221, 825.1408
507.4042, 823.3428
507.8863, 820.9523
508.3684, 819.0987
508.8505, 818.0908
509.3326, 821.5263
509.8148, 830.2509
510.2969, 836.4343
510.7790, 829.6306
511.2611, 814.1702
511.7432, 806.1666
512.2253, 808.9859
512.7075, 817.0209
513.1896, 829.2415
513.6717, 841.8834
514.1538, 845.4822
514.6359, 823.5781
515.1180, 799.6091
515.6002, 795.3994
516.0823, 810.0051
516.5644, 820.9959
517.0465, 812.2272
517.5286, 799.8095
518.0107, 796.0332
518.4929, 812.2279
518.9750, 821.9410
519.4571, 813.8236
519.9392, 798.2400
520.4213, 794.4649
520.9034, 812.9008
521.3856, 828.1431
521.8677, 834.1012
522.3498, 831.0777
522.8319, 826.0117
523.3140, 818.4320
523.7961, 809.9102
524.2783, 798.8024
524.7604, 785.0235
525.2425, 784.7244
525.7246, 802.6447
526.2067, 825.7197
526.6888, 833.7505
527.1710, 829.0191
527.6531, 822.3755
528.1352, 816.8195
528.6173, 812.9875
529.0994, 812.2907
529.5815, 814.4985
530.0637, 817.7918
530.5458, 823.5035
531.0279, 828.3301
531.5100, 828.7053
531.9921, 822.4760
532.4742, 815.9396
532.9564, 810.2253
533.4385, 805.9886
533.9206, 804.2505
534.4027, 808.2347
534.8848, 811.3756
535.3669, 811.9714
535.8491, 810.3586
536.3312, 809.1343
536.8133, 808.1494
537.2954, 807.8344
537.7775, 808.5540
538.2596, 810.5313
538.7418, 813.1797
539.2239, 817.6988
539.7060, 820.3891
540.1881, 812.1783
540.6702, 794.3184
541.1523, 787.5026
541.6345, 802.8002
542.1166, 826.5696
542.5987, 832.8153
543.0808, 823.9026
543.5629, 813.6387
544.0450, 809.8488
544.5272, 809.5101
545.0093, 809.3658
545.4914, 809.0056
545.9735, 809.8256
546.4556, 815.0828
546.9377, 820.8235
547.4199, 823.0048
547.9020, 817.6335
548.3841, 811.9898
548.8662, 806.2323
549.3483, 801.1946
549.8304, 799.4801
550.3126, 804.3396
550.7947, 808.3785
551.2768, 808.9017
551.7589, 805.6640
552.2410, 804.2462
552.7231, 805.2983
553.2053, 806.7159
553.6874, 806.4869
554.1695, 804.6245
554.6516, 803.1865
555.1337, 802.2944
555.6158, 802.2303
556.0980, 804.0828
556.5801, 807.3409
557.0622, 809.8841
557.5443, 810.8373
558.0264, 810.4912
558.5085, 807.9046
558.9907, 803.5670
559.4728, 788.1613
559.9549, 804.6040
560.4370, 813.8881
560.9191, 816.3982
561.4012, 791.8455
561.8834, 802.2388
562.3655, 798.6273
562.8476, 794.4416
563.3297, 809.7534
563.8118, 789.1369
564.2939, 804.1395
564.7761, 804.9236
565.2582, 812.2151
565.7403, 805.4155
566.2224, 802.9681
566.7045, 814.6165
567.1866, 818.4600
567.6688, 810.0381
568.1509, 817.7433
568.6330, 796.6346
569.1151, 800.8105
569.5972, 815.8956
570.0793, 808.1823
570.5615, 816.1451
571.0436, 818.1376
571.5257, 792.9973
572.0078, 815.0436
572.4899, 816.6833
572.9720, 797.3698
573.4542, 817.7993
573.9363, 801.3744
574.4184, 798.1042
574.9005, 804.7339
575.3826, 801.0434
575.8647, 813.6239
576.3469, 810.5294
576.8290, 806.0343
577.3111, 807.6511
577.7932, 791.9489
578.2753, 808.3769
578.7574, 802.8572
579.2396, 808.2473
579.7217, 816.1101
580.2038, 805.0386
580.6859, 814.0125
581.1680, 791.9008
581.6501, 795.7995
582.1323, 796.8974
582.6144, 814.6207
583.0965, 795.9396
583.5786, 779.1988
584.0607, 771.4706
584.5428, 773.2465
585.0250, 777.8281
585.5071, 781.1969
585.9892, 784.5118
586.4713, 789.6800
586.9534, 800.9932
587.4355, 806.7733
587.9177, 797.2112
588.3998, 781.0220
588.8819, 772.5605
589.3640, 781.5283
589.8461, 788.5854
590.3282, 789.1119
590.8104, 784.3287
591.2925, 784.0018
591.7746, 790.2604
592.2567, 795.4048
592.7388, 793.9473
593.2209, 786.1002
593.7031, 782.2476
594.1852, 782.8944
594.6673, 785.2287
595.1494, 786.5607
595.6315, 787.2648
596.1136, 788.3018
596.5958, 789.8085
597.0779, 791.9322
597.5600, 797.2213
598.0421, 803.2041
598.5242, 804.4432
599.0063, 790.2874
599.4885, 778.7391
599.9706, 781.3127
600.4527, 797.1115
600.9348, 806.6526
601.4169, 801.0311
601.8990, 793.6686
602.3812, 790.8206
602.8633, 794.3581
603.3454, 795.2508
603.8275, 792.5820
604.3096, 788.6429
604.7917, 785.2017
605.2739, 782.1876
605.7560, 782.6274
606.2381, 788.0114
606.7202, 795.4379
607.2023, 800.7341
607.6844, 803.9564
608.1666, 805.5413
608.6487, 803.8235
609.1308, 801.7889
609.6129, 803.7789
610.0950, 809.1256
610.5771, 812.1135
611.0593, 807.8002
611.5414, 801.7640
612.0235, 797.1492
612.5056, 793.5821
612.9877, 793.7242
613.4698, 802.4846
613.9520, 812.1623
614.4341, 815.8777
614.9162, 811.4159
615.3983, 806.2137
615.8804, 800.2127
616.3625, 794.6885
616.8447, 793.4406
617.3268, 796.6098
617.8089, 799.0663
618.2910, 797.6354
618.7731, 794.5916
619.2552, 794.8185
619.7374, 798.1268
620.2195, 803.1423
620.7016, 814.0635
621.1837, 823.3399
621.6658, 821.5038
622.1479, 806.1596
622.6301, 790.6381
623.1122, 776.2699
623.5943, 766.4304
624.0764, 764.1077
624.5585, 777.8950
625.0406, 788.8366
625.5228, 796.4431
626.0049, 800.6732
626.4870, 800.8836
626.9691, 795.5706
627.4512, 791.0502
627.9333, 789.2057
628.4155, 789.3439
628.8976, 788.5061
629.3797, 786.6849
629.8618, 786.4634
630.3439, 791.8226
630.8260, 799.0869
631.3082, 800.4886
631.7903, 795.6158
632.2724, 791.4725
632.7545, 795.1232
633.2366, 800.8844
633.7188, 803.0659
634.2009, 798.6191
634.6830, 794.6042
635.1651, 792.8572
635.6472, 792.6483
636.1293, 792.8561
636.6115, 792.9290
637.0936, 794.4641
637.5757, 798.5654
638.0578, 803.9769
638.5399, 806.1586
639.0220, 804.5347
639.5042, 803.4147
639.9863, 806.3513
640.4684, 811.1854
640.9505, 808.1937
641.4326, 797.7301
641.9147, 789.5063
642.3969, 794.1386
642.8790, 803.5874
643.3611, 807.0864
643.8432, 802.1104
644.3253, 797.7062
644.8074, 797.8363
645.2896, 801.0982
645.7717, 806.0790
646.2538, 820.7389
646.7359, 826.1290
647.2180, 814.8803
647.7001, 796.2753
648.1823, 788.3622
648.6644, 794.6100
649.1465, 801.6046
649.6286, 807.5083
650.1107, 811.0143
650.5928, 804.9746
651.0750, 789.5921
651.5571, 776.9339
652.0392, 775.5026
652.5213, 781.0331
653.0034, 788.0125
653.4855, 796.0692
653.9677, 802.0553
654.4498, 801.7952
654.9319, 799.7059
655.4140, 799.6885
655.8961, 803.2211
656.3782, 806.6316
656.8604, 810.9254
657.3425, 813.7042
657.8246, 812.1003
658.3067, 802.4586
658.7888, 796.3392
659.2709, 796.1124
659.7531, 798.9489
660.2352, 798.2556
660.7173, 793.9081
661.1994, 791.5272
661.6815, 794.4637
662.1636, 799.6199
662.6458, 798.7994
663.1279, 793.5794
663.6100, 792.5879
664.0921, 808.4874
664.5742, 825.7052
665.0563, 830.3836
665.5385, 821.3298
666.0206, 810.8276
666.5027, 797.3604
666.9848, 787.7841
667.4669, 788.1006
667.9490, 805.2568
668.4312, 814.6513
668.9133, 813.7837
669.3954, 808.3975
669.8775, 804.5236
670.3596, 802.2698
670.8417, 799.3226
671.3239, 794.0382
671.8060, 790.6826
672.2881, 801.5485
672.7702, 821.2666
673.2523, 831.4788
673.7344, 814.5374
674.2166, 793.8260
674.6987, 791.1177
675.1808, 801.6518
675.6629, 808.9636
676.1450, 801.2593
676.6271, 794.1425
677.1093, 796.4313
677.5914, 808.9816
678.0735, 814.2377
678.5556, 808.4340
679.0377, 800.8508
679.5198, 796.2273
680.0020, 794.6096
680.4841, 796.1459
680.9662, 801.4724
681.4483, 806.8061
681.9304, 808.1564
682.4125, 806.3845
682.8947, 802.9996
683.3768, 797.1884
683.8589, 793.6401
684.3410, 798.3170
684.8231, 807.0145
685.3052, 813.8337
685.7874, 815.4336
686.2695, 816.4943
686.7516, 819.4011
687.2337, 822.5847
687.7158, 821.6872
688.1979, 813.4576
688.6801, 807.4439
689.1622, 807.2421
689.6443, 811.0345
690.1264, 808.7333
690.6085, 799.7127
691.0906, 793.7295
691.5728, 799.8574
692.0549, 812.0345
692.5370, 817.3219
693.0191, 815.7671
693.5012, 813.6528
693.9833, 818.0958
694.4655, 822.0658
694.9476, 817.7874
695.4297, 800.8925
695.9118, 789.6980
696.3939, 792.8619
696.8760, 800.6751
697.3582, 805.2617
697.8403, 804.2828
698.3224, 806.0170
698.8045, 811.5507
699.2866, 818.8329
699.7687, 826.5737
700.2509, 834.4553
700.7330, 836.9474
701.2151, 831.6013
701.6972, 822.3127
702.1793, 811.6560
702.6614, 801.1750
703.1436, 795.0487
703.6257, 798.7314
704.1078, 803.7691
704.5899, 803.7755
705.0720, 800.6599
705.5541, 802.9327
706.0363, 821.8497
706.5184, 835.8973
707.0005, 837.1084
707.4826, 826.2244
707.9647, 819.7369
708.4468, 818.5579
708.9290, 818.2369
709.4111, 815.7802
709.8932, 811.7385
710.3753, 808.6082
710.8574, 806.4872
711.3395, 804.9948
711.8217, 803.6298
712.3038, 802.8188
712.7859, 802.3839
713.2680, 801.3278
713.7501, 804.5123
714.2322, 820.0398
714.7144, 837.5547
715.1965, 846.1964
715.6786, 840.3381
716.1607, 835.1990
716.6428, 831.5476
717.1249, 828.4408
717.6071, 823.9727
718.0892, 817.9372
718.5713, 813.9781
719.0534, 813.2404
719.5355, 814.2969
720.0176, 816.0756
720.4998, 817.8869
720.9819, 817.7333
721.4640, 810.6146
721.9461, 804.9324
722.4282, 809.8307
722.9103, 821.5178
723.3925, 826.3279
723.8746, 813.1807
724.3567, 800.8729
724.8388, 794.9243
725.3209, 794.9674
725.8030, 797.1163
726.2852, 802.5734
726.7673, 805.9147
727.2494, 801.4622
727.7315, 791.6387
728.2136, 788.8915
728.6957, 793.1689
729.1779, 801.6090
729.6600, 816.4625
730.1421, 831.6823
730.6242, 839.7638
731.1063, 839.0693
731.5884, 837.0458
732.0706, 836.3341
732.5527, 835.6963
733.0348, 834.0569
733.5169, 830.6718
733.9990, 827.7489
734.4811, 824.5852
734.9633, 822.9360
735.4454, 826.9113
735.9275, 836.3536
736.4096, 838.6555
736.8917, 829.7936
737.3738, 819.5090
737.8560, 822.4927
738.3381, 833.0026
738.8202, 838.7495
739.3023, 830.0124
739.7844, 822.7709
740.2665, 828.4824
740.7487, 841.2122
741.2308, 848.6318
741.7129, 843.8624
742.1950, 840.1528
742.6771, 840.6309
743.1592, 843.3095
743.6414, 841.0616
744.1235, 833.0817
744.6056, 825.9419
745.0877, 821.3185
745.5698, 819.7703
746.0519, 825.2590
746.5341, 836.0764
747.0162, 843.0167
747.4983, 834.6449
747.9804, 825.2947
748.4625, 827.5428
748.9446, 840.8520
749.4268, 850.8151
749.9089, 853.9533
750.3910, 852.9549
750.8731, 847.5000
751.3552, 837.0055
751.8373, 833.0310
752.3195, 837.9668
752.8016, 841.1485
753.2837, 830.1038
753.7658, 810.6066
754.2479, 806.0195
754.7300, 817.8724
755.2122, 832.1723
755.6943, 839.5821
756.1764, 842.6246
756.6585, 842.5139
757.1406, 837.1929
757.6227, 837.6649
758.1049, 856.5969
758.5870, 875.9656
759.0691, 880.8331
759.5512, 864.1926
760.0333, 851.6978
760.5154, 844.3441
760.9976, 840.8609
761.4797, 840.3575
761.9618, 842.5203
762.4439, 846.0110
762.9260, 851.4341
763.4081, 855.3495
763.8903, 852.1526
764.3724, 845.8187
764.8545, 842.4328
765.3366, 849.3844
765.8187, 852.3268
766.3008, 840.4581
766.7830, 824.2886
767.2651, 822.4288
767.7472, 842.2952
768.2293, 858.8724
768.7114, 868.3670
769.1935, 872.0980
769.6757, 871.7216
770.1578, 867.5180
770.6399, 861.8523
771.1220, 854.5280
771.6041, 847.4473
772.0862, 842.1610
772.5684, 838.8851
773.0505, 838.2354
773.5326, 845.2283
774.0147, 849.9250
774.4968, 846.1244
774.9789, 836.5366
775.4611, 833.2117
775.9432, 839.6946
776.4253, 843.8403
776.9074, 840.1246
777.3895, 831.6374
777.8716, 830.3026
778.3538, 835.7279
778.8359, 842.7356
779.3180, 852.1182
779.8001, 859.0056
780.2822, 854.9150
780.7643, 842.0745
781.2465, 833.7501
781.7286, 841.1222
782.2107, 848.9731
782.6928, 849.1682
783.1749, 841.9372
783.6570, 837.0806
784.1392, 834.8210
784.6213, 834.3669
785.1034, 836.2356
785.5855, 839.7529
786.0676, 840.3682
786.5497, 838.1248
787.0319, 836.3720
787.5140, 839.2673
787.9961, 842.8168
788.4782, 841.4155
788.9603, 834.5225
789.4424, 830.7523
789.9246, 837.2784
790.4067, 844.4307
790.8888, 846.4309
791.3709, 842.3752
791.8530, 838.5888
792.3351, 834.1623
792.8173, 832.4877
793.2994, 840.0634
793.7815, 853.3236
794.2636, 853.6883
794.7457, 839.6310
795.2278, 826.4577
795.7100, 827.8509
796.1921, 835.3160
796.6742, 841.1995
797.1563, 844.7849
797.6384, 844.3923
798.1205, 834.2416
798.6027, 824.1336
799.0848, 820.4848
799.5669, 824.2949
800.0490, 832.0059
800.5311, 845.7072
801.0132, 856.1122
801.4954, 850.0396
801.9775, 833.0873
802.4596, 821.7833
802.9417, 818.2393
803.4238, 819.8978
803.9059, 829.5378
804.3881, 840.9373
804.8702, 847.8669
805.3523, 847.8581
805.8344, 846.2272
806.3165, 843.6524
806.7986, 839.6654
807.2808, 832.5642
807.7629, 821.3846
808.2450, 816.6570
808.7271, 819.9871
809.2092, 826.4076
809.6913, 831.4018
810.1735, 835.0025
810.6556, 836.8442
811.1377, 836.0132
811.6198, 836.5128
812.1019, 843.9429
812.5840, 852.1274
813.0662, 854.4178
813.5483, 843.3477
814.0304, 837.6730
814.5125, 839.5771
814.9946, 843.6685
815.4767, 842.2769
815.9589, 835.9473
816.4410, 836.4468
816.9231, 847.0919
817.4052, 857.4529
817.8873, 853.5316
818.3694, 843.0171
818.8516, 837.2199
819.3337, 840.8154
819.8158, 845.4157
820.2979, 850.6809
820.7800, 854.2856
821.2621, 853.3384
821.7443, 845.2958
822.2264, 839.1797
822.7085, 834.2295
823.1906, 834.2978
823.6727, 851.4387
824.1548, 879.1036
824.6370, 890.3250
825.1191, 876.1482
825.6012, 857.1070
826.0833, 846.8085
826.5654, 842.6722
827.0475, 841.5765
827.5297, 843.9979
828.0118, 847.8707
828.4939, 855.2541
828.9760, 862.0240
829.4581, 862.1895
829.9402, 854.7028
830.4224, 852.6070
830.9045, 858.5370
831.3866, 865.3588
831.8687, 862.3133
832.3508, 854.1467
832.8329, 850.9014
833.3151, 856.9797
833.7972, 861.6686
834.2794, 855.9136
834.7615, 847.9171
835.2436, 847.1100
835.7257, 860.7264
836.2078, 866.9252
836.6899, 863.1133
837.1721, 855.5737
837.6542, 851.3166
838.1363, 849.8935
838.6184, 848.0454
839.1005, 844.9977
839.5826, 843.3137
840.0648, 846.3925
840.5469, 851.7515
841.0290, 856.6863
841.5111, 861.3973
841.9932, 863.8659
842.4753, 860.9166
842.9575, 857.7646
843.4396, 858.4843
843.9217, 863.3016
844.4038, 872.4210
844.8859, 887.4849
845.3680, 899.6019
845.8502, 895.1907
846.3323, 881.7718
846.8144, 875.0861
847.2965, 878.7281
847.7786, 882.2477
848.2607, 878.6268
848.7429, 873.0656
849.2250, 869.5414
849.7071, 867.1746
850.1892, 871.1683
850.6713, 884.8762
851.1534, 898.3400
851.6356, 901.5594
852.1177, 896.3333
852.5998, 893.9440
853.0819, 895.2167
853.5640, 897.7972
854.0461, 901.9790
854.5283, 905.1629
855.0104, 903.0795
855.4925, 893.2487
855.9746, 889.9130
856.4567, 903.7917
856.9388, 916.3836
857.4210, 914.1138
857.9031, 894.8339
858.3852, 896.7971
858.8673, 922.3782
859.3494, 948.7153
859.8315, 956.0471
860.3137, 952.4973
860.7958, 948.1673
861.2779, 944.1401
861.7600, 946.3087
862.2421, 964.7334
862.7242, 984.0435
863.2064, 993.5948
863.6885, 993.0455
864.1706, 998.9124
864.6527, 1013.179
865.1348, 1027.691
865.6169, 1038.066
866.0991, 1044.895
866.5812, 1049.545
867.0633, 1052.234
867.5454, 1055.341
868.0275, 1061.062
868.5096, 1067.037
868.9918, 1072.934
869.4739, 1078.305
869.9560, 1079.110
870.4381, 1073.487
870.9202, 1066.136
871.4023, 1057.239
871.8845, 1048.097
872.3666, 1047.291
872.8487, 1053.938
873.3308, 1054.729
873.8129, 1038.063
874.2950, 1016.145
874.7772, 1002.296
875.2593, 993.9647
875.7414, 984.2081
876.2235, 966.1836
876.7056, 951.9989
877.1877, 945.4945
877.6699, 944.0729
878.1520, 941.1691
878.6341, 936.6105
879.1162, 932.6085
879.5983, 929.5903
880.0804, 927.8088
880.5626, 931.1450
881.0447, 935.6458
881.5268, 932.7162
882.0089, 909.2505
882.4910, 890.5432
882.9731, 888.7318
883.4553, 895.0225
883.9374, 896.5258
884.4195, 891.6553
884.9016, 887.4193
885.3837, 884.6626
885.8658, 882.7751
886.3480, 881.8418
886.8301, 881.0804
887.3122, 878.0660
887.7943, 871.6343
888.2764, 865.3567
888.7585, 859.6705
889.2407, 856.1481
889.7228, 857.3655
890.2049, 868.6422
890.6870, 870.5251
891.1691, 858.9609
891.6512, 846.0187
892.1334, 844.1199
892.6155, 850.9958
893.0976, 856.3077
893.5797, 859.1179
894.0618, 861.5821
894.5439, 867.7303
895.0261, 872.5122
895.5082, 870.1382
895.9903, 858.3831
896.4724, 852.2900
896.9545, 856.0576
897.4366, 860.4496
897.9188, 860.4534
898.4009, 856.8036
898.8830, 855.8002
899.3651, 857.3550
899.8472, 858.7805
900.3293, 857.4500
900.8115, 855.7820
901.2936, 857.2621
901.7757, 861.0551
902.2578, 861.8507
902.7399, 854.5596
903.2220, 848.3003
903.7042, 844.7141
904.1863, 843.9495
904.6684, 848.1229
905.1505, 857.0531
905.6326, 864.3749
906.1147, 868.1823
906.5969, 868.1750
907.0790, 859.9745
907.5611, 848.1315
908.0432, 842.1619
908.5253, 853.0670
909.0074, 860.3342
909.4896, 858.3733
909.9717, 852.0441
910.4538, 848.1951
910.9359, 846.9238
911.4180, 847.4450
911.9001, 850.2436
912.3823, 852.6205
912.8644, 850.0852
913.3465, 845.4474
913.8286, 842.9778
914.3107, 843.8149
914.7928, 846.3257
915.2750, 851.5414
915.7571, 857.1287
916.2392, 861.8552
916.7213, 866.4354
917.2034, 865.6893
917.6855, 859.0330
918.1677, 850.7733
918.6498, 841.1022
919.1319, 833.8403
919.6140, 838.3892
920.0961, 854.6916
920.5782, 865.1981
921.0604, 855.8679
921.5425, 845.1678
922.0246, 842.9083
922.5067, 848.2352
922.9888, 848.5851
923.4709, 842.9216
923.9531, 839.1072
924.4352, 843.2234
924.9173, 849.6555
925.3994, 846.5675
925.8815, 837.0889
926.3636, 830.8336
926.8458, 835.0247
927.3279, 839.8464
927.8100, 840.1295
928.2921, 839.1705
928.7742, 844.6660
929.2563, 858.8638
929.7385, 866.8378
930.2206, 864.6385
930.7027, 857.6965
931.1848, 851.2065
931.6669, 846.2934
932.1490, 845.5711
932.6312, 851.6032
933.1133, 857.0657
933.5954, 859.3901
934.0775, 859.6732
934.5596, 858.3323
935.0417, 853.9362
935.5239, 855.7512
936.0060, 865.4243
936.4881, 873.2429
936.9702, 868.5820
937.4523, 856.8822
937.9344, 845.4108
938.4166, 835.0552
938.8987, 830.2776
939.3808, 838.2659
939.8629, 847.3318
940.3450, 851.3052
940.8271, 850.8806
941.3093, 853.6959
941.7914, 860.1309
942.2735, 867.5468
942.7556, 876.9193
943.2377, 884.3546
943.7198, 881.3391
944.2020, 870.8251
944.6841, 860.7157
945.1662, 854.4415
945.6483, 848.6799
946.1304, 840.9085
946.6125, 833.9802
947.0947, 833.0048
947.5768, 838.7216
948.0589, 844.3401
948.5410, 849.1001
949.0231, 852.7109
949.5052, 854.2952
949.9874, 854.7432
950.4695, 855.7460
950.9516, 858.2815
951.4337, 858.8707
951.9158, 852.6474
952.3979, 847.6260
952.8801, 849.6158
953.3622, 859.2926
953.8443, 864.1370
954.3264, 863.9481
954.8085, 863.1489
955.2906, 864.3594
955.7728, 867.0440
956.2549, 874.2053
956.7370, 883.6230
957.2191, 883.2271
957.7012, 850.5087
958.1833, 830.6810
958.6655, 840.3068
959.1476, 868.0863
959.6297, 879.9128
960.1118, 876.5942
960.5939, 875.3127
961.0760, 883.5472
961.5582, 891.5827
962.0403, 887.5336
962.5224, 877.3418
963.0045, 869.4052
963.4866, 867.8507
963.9688, 865.2833
964.4509, 859.8130
964.9330, 855.2941
965.4151, 855.6369
965.8972, 860.4218
966.3793, 866.2554
966.8615, 873.0052
967.3436, 878.6306
967.8257, 882.2127
968.3078, 883.5670
968.7899, 881.7493
969.2720, 876.6786
969.7542, 872.8246
970.2363, 870.6737
970.7184, 869.0440
971.2005, 867.2427
971.6826, 865.8047
972.1647, 866.2076
972.6469, 868.3525
973.1290, 871.8867
973.6111, 878.9651
974.0932, 884.5848
974.5753, 886.0233
975.0574, 884.1318
975.5396, 879.8268
976.0217, 870.6786
976.5038, 866.7544
976.9859, 869.8217
977.4680, 875.2852
977.9501, 878.4418
978.4323, 879.8600
978.9144, 881.2622
979.3965, 883.0008
979.8786, 882.3583
980.3607, 874.8143
980.8428, 867.3980
981.3250, 864.1125
981.8071, 864.8671
982.2892, 867.5112
982.7713, 872.3440
983.2534, 876.8154
983.7355, 880.6178
984.2177, 882.3922
984.6998, 877.4028
985.1819, 868.7187
985.6640, 864.3047
986.1461, 872.5913
986.6282, 878.0674
987.1104, 876.4255
987.5925, 871.8578
988.0746, 870.6070
988.5567, 872.5381
989.0388, 873.7527
989.5209, 873.6402
990.0031, 873.0373
990.4852, 872.6445
990.9673, 872.2228
991.4494, 871.2446
991.9315, 869.3548
992.4136, 869.1520
992.8958, 871.6797
993.3779, 874.2093
993.8600, 875.2718
994.3421, 875.3086
994.8242, 876.2256
995.3063, 877.8094
995.7885, 878.9429
996.2706, 878.3325
996.7527, 877.8482
997.2348, 880.2424
997.7169, 883.1050
998.1990, 880.4357
998.6812, 868.7010
999.1633, 863.2491
999.6454, 866.5857
1000.128, 874.7887
1000.610, 888.3433
1001.092, 901.7604
1001.574, 901.8430
1002.056, 884.8494
1002.538, 870.8293
1003.020, 870.0049
1003.502, 872.2953
1003.984, 872.2250
1004.467, 870.0195
1004.949, 870.0129
1005.431, 872.2641
1005.913, 874.5938
1006.395, 875.9042
1006.877, 876.6655
1007.359, 875.8904
1007.841, 875.1193
1008.323, 877.7988
1008.806, 890.2180
1009.288, 898.1967
1009.770, 898.7827
1010.252, 897.0742
1010.734, 903.0377
1011.216, 913.1878
1011.698, 907.8845
1012.180, 883.3456
1012.663, 863.3240
1013.145, 870.6964
1013.627, 883.6579
1014.109, 883.0415
1014.591, 868.3304
1015.073, 869.0000
1015.555, 889.1432
1016.037, 908.1028
1016.519, 918.7246
1017.002, 920.7286
1017.484, 906.8002
1017.966, 884.5367
1018.448, 871.6182
1018.930, 888.1735
1019.412, 897.5777
1019.894, 885.3901
1020.376, 868.1205
1020.859, 863.7438
1021.341, 872.1732
1021.823, 882.0519
1022.305, 892.7895
1022.787, 901.2551
1023.269, 904.4175
1023.751, 904.4146
1024.233, 901.4931
1024.715, 896.0503
1025.198, 895.6019
1025.680, 903.8248
1026.162, 909.3950
1026.644, 907.7922
1027.126, 902.2562
1027.608, 899.9891
1028.090, 899.8546
1028.572, 897.8453
1029.054, 888.8346
1029.537, 885.3746
1030.019, 900.6104
1030.501, 918.5551
1030.983, 923.4199
1031.465, 912.3110
1031.947, 906.0728
1032.429, 905.2128
1032.911, 905.3852
1033.394, 905.8519
1033.876, 903.8505
1034.358, 891.5368
1034.840, 872.3087
1035.322, 864.7319
1035.804, 883.2163
1036.286, 897.3083
1036.768, 900.3606
1037.250, 897.3763
1037.733, 897.7534
1038.215, 900.3643
1038.697, 900.1499
1039.179, 894.8237
1039.661, 891.8381
1040.143, 902.8997
1040.625, 912.4615
1041.107, 904.3066
1041.589, 875.9219
1042.072, 868.6088
1042.554, 885.0048
1043.036, 901.6155
1043.518, 902.1661
1044.000, 897.0804
1044.482, 900.9660
1044.964, 910.5359
1045.446, 917.6543
1045.929, 918.6883
1046.411, 918.4783
1046.893, 917.6911
1047.375, 915.7592
1047.857, 909.9910
1048.339, 902.0125
1048.821, 901.2309
1049.303, 908.7903
1049.786, 916.3372
1050.268, 920.7911
1050.750, 921.1951
1051.232, 913.9675
1051.714, 901.0344
1052.196, 895.6938
1052.678, 899.1937
1053.160, 901.0611
1053.642, 896.2900
1054.125, 891.0020
1054.607, 895.9673
1055.089, 905.1216
1055.571, 908.1286
1056.053, 896.9993
1056.535, 891.1564
1057.017, 893.6701
1057.499, 899.1785
1057.981, 903.7825
1058.464, 907.8655
1058.946, 915.0316
1059.428, 924.4407
1059.910, 929.2508
1060.392, 920.9045
1060.874, 911.9712
1061.356, 909.0748
1061.838, 910.0671
1062.321, 910.4850
1062.803, 910.2614
1063.285, 909.5013
1063.767, 907.8348
1064.249, 907.5696
1064.731, 913.1731
1065.213, 920.4587
1065.695, 924.3393
1066.177, 923.8944
1066.660, 923.1569
1067.142, 923.3147
1067.624, 921.4395
1068.106, 914.7175
1068.588, 906.4699
1069.070, 907.2039
1069.552, 914.2542
1070.034, 919.2243
1070.516, 918.4476
1070.999, 916.0611
1071.481, 911.5237
1071.963, 907.7070
1072.445, 907.3679
1072.927, 910.6982
1073.409, 915.2911
1073.891, 921.1874
1074.373, 926.2388
1074.856, 927.6633
1075.338, 928.7117
1075.820, 934.2061
1076.302, 941.9790
1076.784, 942.6429
1077.266, 931.3751
1077.748, 926.4717
1078.230, 933.2513
1078.713, 941.1201
1079.195, 933.4401
1079.677, 917.4348
1080.159, 906.0543
1080.641, 901.1340
1081.123, 900.2479
1081.605, 905.5429
1082.087, 911.6724
1082.569, 917.5316
1083.052, 922.4604
1083.534, 921.9839
1084.016, 917.4973
1084.498, 917.0965
1084.980, 925.9389
1085.462, 936.0137
1085.944, 944.1710
1086.426, 949.8074
1086.909, 952.7239
1087.391, 953.3552
1087.873, 947.8738
1088.355, 935.4311
1088.837, 925.4632
1089.319, 926.8694
1089.801, 932.8833
1090.283, 938.1198
1090.766, 941.6001
1091.248, 940.0534
1091.730, 927.2001
1092.212, 921.1868
1092.694, 926.0657
1093.176, 934.4858
1093.658, 935.6244
1094.140, 932.9713
1094.622, 936.6050
1095.104, 947.9543
1095.587, 953.6859
1096.069, 943.6951
1096.551, 931.6994
1097.033, 922.1407
1097.515, 915.1216
1097.997, 910.6786
1098.479, 908.9830
1098.961, 912.0635
1099.444, 922.9300
1099.926, 932.0063
1100.408, 928.4361
1100.890, 922.3344
1101.372, 924.4716
1101.854, 936.5975
1102.336, 944.4922
1102.818, 948.2245
1103.301, 948.0900
1103.783, 943.7844
1104.265, 936.1545
1104.747, 921.2372
1105.229, 904.5904
1105.711, 898.8947
1106.193, 915.9957
1106.675, 927.0891
1107.157, 930.2429
1107.640, 928.4616
1108.122, 919.7748
1108.604, 909.9852
1109.086, 914.3539
1109.568, 932.0790
1110.050, 947.8043
1110.532, 955.5249
1111.014, 960.1570
1111.496, 963.3859
1111.979, 964.2502
1112.461, 959.0709
1112.943, 949.2634
1113.425, 943.6475
1113.907, 944.3270
1114.389, 944.9550
1114.871, 940.8745
1115.353, 935.8416
1115.836, 931.7277
1116.318, 928.7601
1116.800, 928.9635
1117.282, 932.3451
1117.764, 937.0692
1118.246, 943.3610
1118.728, 948.8743
1119.210, 951.5012
1119.693, 952.0167
1120.175, 950.8550
1120.657, 946.9307
1121.139, 946.8229
1121.621, 951.8504
1122.103, 954.6749
1122.585, 948.9424
1123.067, 938.9026
1123.549, 928.1799
1124.031, 918.5272
1124.514, 914.7064
1124.996, 918.7858
1125.478, 929.5013
1125.960, 950.9467
1126.442, 970.2307
1126.924, 970.1328
1127.406, 957.8525
1127.888, 952.4885
1128.371, 954.3787
1128.853, 955.2653
1129.335, 949.1774
1129.817, 944.2375
1130.299, 941.7866
1130.781, 942.7297
1131.263, 952.4333
1131.745, 968.0393
1132.228, 972.4770
1132.710, 961.4830
1133.192, 952.0876
1133.674, 959.1017
1134.156, 967.7841
1134.638, 968.7791
1135.120, 963.3067
1135.602, 957.5452
1136.084, 951.5641
1136.567, 951.2134
1137.049, 961.1844
1137.531, 970.3502
1138.013, 966.7933
1138.495, 958.4526
1138.977, 954.6934
1139.459, 956.8002
1139.941, 954.6902
1140.423, 947.3272
1140.906, 943.3397
1141.388, 951.2917
1141.870, 961.0491
1142.352, 957.9170
1142.834, 948.2058
1143.316, 943.6903
1143.798, 948.6473
1144.280, 955.2385
1144.763, 964.1443
1145.245, 972.1964
1145.727, 976.9456
1146.209, 978.8541
1146.691, 978.6423
1147.173, 976.3751
1147.655, 972.2343
1148.137, 962.4273
1148.620, 956.4777
1149.102, 956.3824
1149.584, 958.7927
1150.066, 959.5879
1150.548, 959.5026
1151.030, 959.8446
1151.512, 960.8447
1151.994, 964.1821
1152.476, 975.9675
1152.958, 983.1346
1153.441, 980.1250
1153.923, 971.9916
1154.405, 968.4726
1154.887, 969.1046
1155.369, 973.1893
1155.851, 981.3746
1156.333, 986.3108
1156.815, 978.8831
1157.298, 972.4943
1157.780, 976.4034
1158.262, 986.9758
1158.744, 985.3122
1159.226, 973.1832
1159.708, 967.0482
1160.190, 973.8080
1160.672, 983.1765
1161.155, 993.9329
1161.637, 999.1169
1162.119, 989.9482
1162.601, 966.6847
1163.083, 958.2678
1163.565, 964.5410
1164.047, 969.8895
1164.529, 963.3384
1165.011, 957.6788
1165.494, 967.9331
1165.976, 983.0276
1166.458, 987.0768
1166.940, 975.8445
1167.422, 971.3981
1167.904, 974.3680
1168.386, 977.6445
1168.868, 977.1922
1169.350, 974.0797
1169.833, 966.3638
1170.315, 957.3393
1170.797, 954.8875
1171.279, 961.0779
1171.761, 968.4914
1172.243, 977.1276
1172.725, 984.4833
1173.207, 991.3917
1173.690, 993.7152
1174.172, 980.7003
1174.654, 957.1436
1175.136, 947.4383
1175.618, 960.2617
1176.100, 969.1060
1176.582, 969.2384
1177.064, 968.7444
1177.547, 980.6907
1178.029, 996.0793
1178.511, 1001.936
1178.993, 997.4115
1179.475, 988.8350
1179.957, 969.9994
1180.439, 964.2555
1180.921, 980.9596
1181.403, 1003.991
1181.885, 1009.257
1182.368, 1002.962
1182.850, 993.8826
1183.332, 982.7695
1183.814, 978.3232
1184.296, 987.3231
1184.778, 993.0178
1185.260, 988.6017
1185.742, 979.5652
1186.225, 976.4065
1186.707, 977.6409
1187.189, 980.9092
1187.671, 986.6703
1188.153, 989.6573
1188.635, 986.1038
1189.117, 984.0964
1189.599, 988.4069
1190.082, 995.9912
1190.564, 998.8207
1191.046, 997.9532
1191.528, 995.9467
1192.010, 993.2679
1192.492, 990.1835
1192.974, 985.9438
1193.456, 982.3141
1193.938, 978.2694
1194.421, 976.3583
1194.903, 992.4905
1195.385, 1019.674
1195.867, 1034.159
1196.349, 1015.973
1196.831, 1000.093
1197.313, 993.4406
1197.795, 992.7159
1198.277, 998.5847
1198.760, 1008.476
1199.242, 1008.677
1199.724, 1000.959
1200.206, 993.5883
1200.688, 988.3476
1201.170, 987.1805
1201.652, 993.4243
1202.134, 999.9038
1202.617, 998.8644
1203.099, 991.6766
1203.581, 983.6574
1204.063, 975.4772
1204.545, 970.5267
1205.027, 972.4237
1205.509, 975.1519
1205.991, 976.0605
1206.474, 977.8326
1206.956, 986.1163
1207.438, 998.6136
1207.920, 1003.946
1208.402, 1001.676
1208.884, 997.6537
1209.366, 990.9550
1209.848, 988.3087
1210.330, 992.8851
1210.813, 1001.042
1211.295, 1008.266
1211.777, 1014.020
1212.259, 1013.671
1212.741, 1007.013
1213.223, 1003.445
1213.705, 1013.571
1214.187, 1020.465
1214.669, 1016.016
1215.152, 1006.817
1215.634, 1007.076
1216.116, 1014.385
1216.598, 1019.094
1217.080, 1019.595
1217.562, 1019.775
1218.044, 1020.660
1218.526, 1023.111
1219.009, 1029.946
1219.491, 1036.123
1219.973, 1024.060
1220.455, 1000.903
1220.937, 996.0206
1221.419, 1017.355
1221.901, 1036.034
1222.383, 1038.936
1222.865, 1035.228
1223.348, 1026.337
1223.830, 1015.501
1224.312, 1011.596
1224.794, 1013.258
1225.276, 1016.599
1225.758, 1021.374
1226.240, 1024.464
1226.722, 1020.933
1227.204, 1020.246
1227.687, 1028.464
1228.169, 1040.421
1228.651, 1039.833
1229.133, 1030.472
1229.615, 1022.939
1230.097, 1019.803
1230.579, 1020.212
1231.061, 1027.213
1231.544, 1033.022
1232.026, 1034.379
1232.508, 1031.679
1232.990, 1022.462
1233.472, 1010.322
1233.954, 1006.477
1234.436, 1018.864
1234.918, 1024.806
1235.401, 1014.830
1235.883, 1006.681
1236.365, 1011.479
1236.847, 1023.501
1237.329, 1029.496
1237.811, 1030.031
1238.293, 1025.545
1238.775, 1009.851
1239.257, 1005.035
1239.740, 1017.689
1240.222, 1031.040
1240.704, 1034.266
1241.186, 1031.929
1241.668, 1034.743
1242.150, 1040.247
1242.632, 1042.874
1243.114, 1038.938
1243.596, 1036.797
1244.079, 1038.155
1244.561, 1037.708
1245.043, 1029.005
1245.525, 1018.623
1246.007, 1019.595
1246.489, 1027.643
1246.971, 1033.784
1247.453, 1036.898
1247.936, 1034.568
1248.418, 1024.730
1248.900, 1017.170
1249.382, 1019.132
1249.864, 1027.006
1250.346, 1039.243
1250.828, 1052.725
1251.310, 1060.798
1251.792, 1061.325
1252.275, 1060.046
1252.757, 1056.988
1253.239, 1052.181
1253.721, 1042.640
1254.203, 1033.943
1254.685, 1033.912
1255.167, 1038.576
1255.649, 1040.254
1256.131, 1038.793
1256.614, 1031.330
1257.096, 1016.931
1257.578, 1009.744
1258.060, 1029.610
1258.542, 1051.136
1259.024, 1049.131
1259.506, 1036.377
1259.988, 1037.311
1260.471, 1054.776
1260.953, 1061.241
1261.435, 1056.046
1261.917, 1052.272
1262.399, 1062.743
1262.881, 1072.935
1263.363, 1073.770
1263.845, 1068.906
1264.328, 1062.650
1264.810, 1055.077
1265.292, 1047.644
1265.774, 1040.685
1266.256, 1037.729
1266.738, 1045.321
1267.220, 1051.808
1267.702, 1049.204
##END=



