##NAMES=Goldschmidtite
##RRUFFID=R190009
##IDEAL CHEMISTRY=KNb^5+^O_3_
##LOCALITY=Koffiefontein, South Africa
##OWNER=Nicole Meyer
##SOURCE=Nicole Meyer
##DESCRIPTION=The mineral is found as an inclusion in a diamond. This is the type sample.
##STATUS=The identification of this mineral is confirmed by single-crystal X-ray diffraction and chemical analysis.
##URL=rruff.info/R190009
##MEASURED CHEMISTRY=(K_0.504_La_0.150_Sr_0.133_Ba_0.092_Ce_0.078_Ca_0.002_Th_0.001_)(Nb_0.695_Cr_0.192_Fe_0.051_Al_0.014_Mg_0.036_Ti_0.011_)O_3_
118.9138, 0.0000000E+00
120.7607, 17.70117
122.6073, 126.4121
124.4536, 153.4199
126.2995, 258.0879
128.1452, 531.2402
129.9890, 704.8066
131.8340, 916.5078
133.6787, 1211.004
135.5231, 1256.469
137.3657, 1244.688
139.2095, 1548.729
141.0529, 1482.221
142.8960, 1995.250
144.7374, 1956.689
146.5799, 2185.422
148.4207, 2285.445
150.2625, 2433.934
152.1041, 2207.215
153.9439, 2239.926
155.7848, 2317.848
157.6240, 2521.979
159.4643, 2535.053
161.3029, 2468.801
163.1426, 2315.953
164.9805, 2504.525
166.8181, 2386.740
168.6569, 2478.984
170.4939, 2312.773
172.3306, 2174.715
174.1684, 1975.506
176.0044, 1895.965
177.8402, 1916.998
179.6756, 1746.535
181.5122, 1427.531
183.3470, 1525.959
185.1815, 1605.977
187.0157, 1103.264
188.8496, 1199.955
190.6832, 1031.268
192.5164, 899.8926
194.3494, 883.1953
196.1821, 759.7891
198.0144, 864.8438
199.8464, 999.4043
201.6781, 876.5000
203.5095, 611.3945
205.3406, 1042.352
207.1714, 1068.613
209.0018, 1005.404
210.8320, 893.9199
212.6618, 1148.340
214.4900, 1244.818
216.3192, 1331.502
218.1481, 1451.525
219.9767, 1769.014
221.8036, 1781.090
223.6316, 2105.863
225.4593, 2152.441
227.2852, 2168.926
229.1123, 2249.607
230.9390, 2501.129
232.7641, 2544.633
234.5902, 2661.213
236.4146, 2851.934
238.2401, 2944.852
240.0639, 3003.014
241.8888, 3025.457
243.7120, 3298.211
245.5349, 3223.303
247.3588, 3369.758
249.1811, 3404.076
251.0030, 3479.586
252.8261, 3396.199
254.6474, 3621.160
256.4684, 3789.246
258.2905, 3848.074
260.1109, 4037.090
261.9310, 4328.920
263.7508, 4705.383
265.5703, 5096.924
267.3895, 5469.594
269.2097, 5907.018
271.0283, 6339.250
272.8465, 6793.289
274.6645, 6877.564
276.4821, 7043.533
278.2994, 7214.680
280.1165, 7070.770
281.9332, 6972.078
283.7496, 7070.361
285.5643, 7303.611
287.3801, 7410.820
289.1956, 7573.982
291.0108, 7743.094
292.8257, 7485.145
294.6402, 7453.137
296.4531, 7496.061
298.2670, 7361.902
300.0807, 7406.639
301.8926, 7591.217
303.7057, 7641.586
305.5184, 7334.695
307.3294, 7346.504
309.1415, 7282.020
310.9520, 7338.248
312.7635, 7307.201
314.5747, 7152.891
316.3842, 7146.320
318.1934, 7204.508
320.0037, 6913.457
321.8123, 6800.176
323.6219, 6787.684
325.4299, 6681.973
327.2376, 6485.064
329.0464, 6340.963
330.8534, 6127.676
332.6602, 6020.215
334.4680, 5883.586
336.2742, 5710.801
338.0800, 5549.074
339.8856, 5161.176
341.6908, 4977.162
343.4972, 4941.961
345.3018, 4596.381
347.1061, 4360.283
348.9102, 4268.562
350.7139, 3983.137
352.5173, 3708.930
354.3204, 3657.891
356.1232, 3205.975
357.9257, 3253.135
359.7279, 3010.340
361.5298, 2861.547
363.3314, 2746.734
365.1313, 2475.871
366.9323, 2227.939
368.7330, 2252.926
370.5334, 2059.811
372.3335, 1933.588
374.1319, 1707.242
375.9314, 1346.750
377.7306, 1406.076
379.5280, 1408.199
381.3266, 1211.111
383.1249, 1094.789
384.9215, 808.2285
386.7191, 552.4121
388.5151, 374.3203
390.3122, 248.9316
392.1075, 475.2285
393.9040, 17.24609
395.6988, 114.0996
397.4947, 244.8457
399.2888, 482.0195
401.0841, 544.6797
402.8777, 842.8418
404.6709, 905.5840
406.4653, 1101.936
408.2579, 1303.979
410.0503, 1243.824
411.8424, 1445.510
413.6355, 1543.146
415.4270, 1544.779
417.2181, 1555.389
419.0090, 1468.955
420.7996, 1390.439
422.5898, 1132.801
424.3798, 1306.951
426.1695, 759.9180
427.9588, 610.5430
429.7479, 204.7695
431.5367, 202.5215
433.3251, 506.4512
435.1133, 749.0703
436.9012, 1077.402
438.6888, 1517.469
440.4760, 1798.283
442.2630, 1946.863
444.0482, 2126.219
445.8346, 2187.352
447.6207, 2043.273
449.4065, 1955.988
451.1906, 2154.504
452.9757, 2132.822
454.7606, 2377.951
456.5438, 2264.893
458.3281, 1996.652
460.1107, 1939.234
461.8944, 1934.643
463.6764, 1820.881
465.4595, 1771.936
467.2409, 1719.807
469.0234, 1603.465
470.8042, 1659.814
472.5861, 1411.818
474.3663, 1391.219
476.1462, 1446.777
477.9272, 1360.250
479.7066, 1440.428
481.4856, 1361.131
483.2657, 1533.234
485.0442, 1486.742
486.8223, 1256.789
488.6002, 1318.574
490.3777, 1189.531
492.1563, 1285.178
493.9333, 1218.787
495.7099, 1426.414
497.4863, 1243.068
499.2624, 1356.754
501.0381, 1306.469
502.8136, 1500.219
504.5888, 1449.002
506.3637, 1658.820
508.1382, 1886.672
509.9125, 2191.566
511.6852, 2205.500
513.4589, 2331.471
515.2322, 2553.488
517.0054, 2808.551
518.7782, 2911.658
520.5493, 3177.818
522.3215, 3457.027
524.0934, 3581.293
525.8637, 3737.613
527.6351, 3938.994
529.4061, 3977.436
531.1755, 4116.939
532.9459, 4445.510
534.7147, 4355.150
536.4846, 4585.859
538.2528, 4846.641
540.0221, 4963.498
541.7897, 5065.432
543.5583, 5286.441
545.3254, 5305.535
547.0920, 5492.709
548.8599, 5753.967
550.6260, 5900.312
552.3918, 5750.645
554.1588, 5956.973
555.9241, 5906.291
557.6890, 6009.586
559.4537, 5803.865
561.2181, 6037.125
562.9835, 6255.361
564.7473, 6413.578
566.5108, 6321.775
568.2740, 6431.949
570.0369, 6247.105
571.7995, 6391.240
573.5619, 6264.357
575.3239, 6277.459
577.0856, 6157.543
578.8471, 6234.611
580.6083, 6227.670
582.3677, 6235.715
584.1284, 6035.750
585.8885, 6190.777
587.6486, 6288.803
589.4083, 6286.658
591.1663, 5958.768
592.9254, 5984.891
594.6843, 5991.199
596.4414, 6048.018
598.1996, 5883.461
599.9576, 6050.428
601.7139, 5855.535
603.4713, 5677.596
605.2270, 5657.285
606.9838, 5500.785
608.7389, 5282.189
610.4951, 5198.541
612.2496, 5189.180
614.0052, 5090.053
615.7592, 4993.426
617.5129, 4837.090
619.2676, 4896.680
621.0207, 4750.879
622.7735, 4520.160
624.5273, 4492.107
626.2796, 4182.305
628.0316, 3901.795
629.7832, 3802.059
631.5345, 3923.260
633.2856, 3723.898
635.0363, 3637.227
636.7882, 3502.148
638.5384, 3880.990
640.2883, 3964.797
642.0379, 3950.686
643.7872, 3530.633
645.5363, 3120.801
647.2836, 2941.826
649.0320, 2657.090
650.7803, 3005.846
652.5281, 2800.850
654.2758, 2711.105
656.0231, 2858.572
657.7687, 2584.289
659.5154, 2896.246
661.2618, 2793.479
663.0080, 3071.996
664.7524, 3075.789
666.4980, 3138.814
668.2420, 3218.113
669.9870, 3294.650
671.7317, 3412.365
673.4747, 3590.338
675.2189, 3942.547
676.9614, 4057.988
678.7049, 4292.680
680.4468, 4279.580
682.1885, 4468.672
683.9312, 4836.990
685.6722, 5099.531
687.4130, 5241.277
689.1548, 5643.229
690.8950, 6107.430
692.6348, 6160.857
694.3759, 6348.566
696.1152, 7071.502
697.8542, 7349.697
699.5930, 7733.172
701.3314, 7963.924
703.0696, 8624.973
704.8075, 9386.293
706.5451, 9852.914
708.2824, 10447.85
710.0194, 11281.08
711.7562, 11731.62
713.4926, 12526.44
715.2288, 13427.53
716.9647, 13905.88
718.7004, 14989.51
720.4357, 15755.41
722.1707, 16472.58
723.9041, 17607.04
725.6385, 18503.74
727.3727, 19306.71
729.1052, 20484.94
730.8389, 21362.42
732.5722, 22510.17
734.3038, 23735.20
736.0366, 24799.49
737.7691, 25602.05
739.4999, 27181.86
741.2318, 28309.94
742.9621, 29437.29
744.6934, 30868.88
746.4231, 31941.74
748.1525, 33562.86
749.8830, 35301.24
751.6119, 36580.87
753.3418, 37989.76
755.0700, 39548.92
756.7980, 41137.34
758.5257, 42585.02
760.2545, 44435.95
761.9817, 45740.14
763.7085, 47500.59
765.4351, 49435.31
767.1613, 50999.29
768.8874, 52757.52
770.6130, 54061.03
772.3385, 56259.77
774.0637, 58098.80
775.7885, 60295.09
777.5131, 62095.63
779.2374, 63844.45
780.9615, 65733.50
782.6852, 67861.84
784.4087, 69247.45
786.1319, 71364.32
787.8547, 73400.45
789.5760, 76213.88
791.2983, 77691.56
793.0204, 79597.96
794.7422, 81637.32
796.4623, 82906.51
798.1835, 85242.91
799.9031, 87086.04
801.6237, 88812.47
803.3441, 90624.17
805.0628, 92274.30
806.7826, 93351.59
808.5008, 94841.20
810.2200, 96030.74
811.9376, 96581.12
813.6549, 97032.16
815.3733, 97099.60
817.0900, 96875.31
818.8066, 97119.32
820.5241, 96429.98
822.2400, 95777.52
823.9557, 94645.77
825.6710, 93289.28
827.3875, 91557.63
829.1022, 89836.76
830.8168, 87320.28
832.5310, 84936.91
834.2450, 81872.17
835.9586, 79605.63
837.6720, 77731.73
839.3851, 74915.55
841.0980, 72041.58
842.8105, 69776.29
844.5228, 66533.63
846.2348, 63872.31
847.9465, 61651.29
849.6580, 58602.22
851.3678, 56122.45
853.0787, 52959.96
854.7892, 50906.66
856.4996, 48013.66
858.2083, 45986.73
859.9181, 43944.19
861.6276, 41932.38
863.3354, 39574.94
865.0444, 37316.47
866.7516, 35428.39
868.4600, 33599.29
870.1667, 31783.64
871.8746, 29978.78
873.5808, 28614.57
875.2880, 26666.15
876.9937, 25337.80
878.7004, 23634.01
880.4055, 22430.53
882.1103, 21215.11
883.8162, 20189.84
885.5204, 18651.02
887.2244, 17634.01
888.9281, 16547.13
890.6315, 15412.03
892.3360, 14631.75
894.0388, 13865.86
895.7414, 13041.38
897.4438, 12227.86
899.1458, 11653.42
900.8475, 10860.73
902.5490, 10363.23
904.2502, 9753.078
905.9512, 9219.914
907.6518, 8855.832
909.3521, 7966.264
911.0522, 7494.316
912.7507, 7109.482
914.4503, 6841.053
916.1496, 6642.584
917.8485, 6115.219
919.5459, 5726.859
921.2444, 5514.121
922.9425, 5087.889
924.6390, 4916.379
926.3367, 4431.584
928.0340, 4381.229
929.7297, 3913.691
931.4266, 3689.654
933.1217, 3390.125
934.8179, 3227.729
936.5126, 3293.637
938.2069, 2999.266
939.9023, 2972.350
941.5961, 2677.529
943.2910, 2511.924
944.9842, 2287.209
946.6772, 2341.793
948.3699, 2134.695
950.0637, 2060.539
951.7558, 1876.492
953.4477, 1784.572
955.1393, 1827.764
956.8306, 1474.061
958.5217, 1448.465
960.2125, 1359.090
961.9030, 1352.820
963.5932, 1151.537
965.2832, 1140.352
966.9728, 1239.264
968.6622, 782.5996
970.3514, 801.6992
972.0403, 584.8906
973.7288, 673.1699
975.4172, 578.5371
977.1039, 638.9922
978.7917, 517.5273
980.4791, 458.1445
982.1650, 246.8398
983.8520, 331.6133
985.5387, 323.4629
987.2238, 299.3887
988.9099, 349.4785
990.5944, 194.6523
992.2800, 324.3242
993.9653, 118.5215
995.6490, 34.97070
997.3325, 5.802734
999.0169, 51.90430
1000.700, 43.20898
1002.384, 143.1426
1004.066, 107.5801
1005.748, 33.68555
1007.430, 0.2128910
1009.113, 149.2148
1010.794, 244.9648
1012.475, 40.70508
1014.156, 68.88867
1015.836, 126.4297
1017.517, 189.9277
1019.198, 112.3027
1020.877, 169.5098
1022.557, 0.6953130
1024.236, 226.2070
1025.915, 223.9062
1027.593, 230.7559
1029.270, 318.0840
1030.948, 289.7422
1032.626, 208.3262
1034.303, 337.1699
1035.981, 265.6504
1037.658, 325.7520
1039.333, 498.7891
1041.009, 344.0371
1042.685, 288.6914
1044.360, 159.2734
1046.036, 344.9531
1047.709, 240.6426
1049.385, 283.2910
1051.059, 425.4824
1052.733, 295.9238
1054.407, 306.5566
1056.079, 243.3926
1057.752, 145.2598
1059.425, 347.4121
1061.097, 325.0898
1062.770, 169.7168
1064.441, 303.5059
1066.112, 240.5273
1067.783, 389.6953
1069.455, 395.2129
1071.125, 358.0254
1072.795, 156.1191
1074.465, 310.3984
1076.134, 159.9453
1077.803, 147.3086
1079.472, 235.6172
1081.141, 94.67773
1082.809, 85.46680
1084.477, 129.8848
1086.145, 26.96289
1087.812, 182.2070
1089.479, 22.63281
1091.146, 43.36133
1092.813, 156.2188
1094.478, 193.9785
1096.145, 6.646484
1097.811, 145.0430
1099.476, 26.16797
1101.140, 270.0996
1102.805, 129.2051
1104.470, 67.23633
1106.134, 77.05469
1107.798, 45.71289
1109.461, 127.1973
1111.124, 23.53711
1112.786, 5.314453
1114.450, 30.62109
1116.111, 39.36133
1117.774, 126.9043
1119.435, 211.3086
1121.096, 382.5547
1122.758, 155.0801
1124.418, 285.0645
1126.078, 168.9414
1127.738, 311.8613
1129.398, 351.3965
1131.058, 398.8574
1132.717, 551.5352
1134.376, 645.7598
1136.035, 400.8750
1137.693, 355.6445
1139.351, 320.4004
1141.008, 531.1914
1142.666, 515.7930
1144.323, 467.7285
1145.980, 669.1211
1147.636, 531.6719
1149.292, 580.6719
1150.948, 619.6523
1152.603, 613.5195
1154.259, 626.2559
1155.914, 627.8730
1157.568, 668.3672
1159.223, 589.1641
1160.876, 595.4395
1162.530, 677.6133
1164.184, 724.6055
1165.836, 683.4727
1167.490, 598.2148
1169.142, 821.8223
1170.795, 843.3027
1172.446, 837.6562
1174.098, 685.8828
1175.749, 789.9766
1177.400, 982.9434
1179.051, 941.7793
1180.701, 856.4863
1182.351, 875.0605
1184.001, 801.5059
1185.650, 873.8184
1187.300, 603.9961
1188.949, 607.0332
1190.597, 422.9258
1192.245, 714.6328
1193.893, 438.2090
1195.541, 467.1875
1197.188, 339.2988
1198.835, 517.6797
1200.482, 534.9961
1202.129, 458.6738
1203.775, 606.1719
1205.421, 560.5234
1207.066, 548.5664
1208.711, 497.5957
1210.357, 676.4570
1212.002, 587.5762
1213.645, 672.0586
1215.290, 555.0430
1216.934, 433.8789
1218.576, 641.7012
1220.220, 490.5527
1221.862, 465.1270
1223.505, 667.2051
1225.147, 502.0098
1226.790, 472.0918
1228.431, 560.8418
1230.073, 761.4121
1231.714, 607.1777
1233.354, 461.4492
1234.995, 584.7148
1236.635, 778.4707
1238.275, 621.2559
1239.914, 423.9492
1241.554, 693.0117
1243.193, 618.9531
1244.831, 371.8457
1246.469, 514.8125
1248.107, 579.9004
1249.745, 585.3262
1251.383, 624.6445
1253.020, 528.8125
1254.657, 448.9355
1256.293, 612.8789
1257.930, 368.8711
1259.566, 555.5840
1261.202, 525.6855
1262.836, 602.5371
1264.471, 353.5254
1266.107, 430.2344
1267.741, 522.0898
1269.375, 362.6035
1271.009, 443.4355
1272.643, 433.7305
1274.276, 293.3477
1275.909, 165.0020
1277.541, 389.2109
1279.174, 114.2051
1280.806, 285.2500
1282.438, 90.23633
1284.069, 179.8828
1285.700, 186.8359
1287.331, 215.7480
1288.962, 356.9922
1290.592, 191.5254
1292.222, 366.7578
1293.852, 3.685547
1295.481, 78.75000
1297.110, 83.81641
1298.739, 173.2305
1300.368, 74.57031
1301.996, 199.6426
1303.624, 340.8281
1305.252, 238.0312
1306.879, 79.81445
1308.506, 149.0723
1310.133, 95.30664
1311.758, 212.2363
1313.385, 40.29102
1315.010, 30.33008
1316.636, 93.45508
1318.262, 53.94922
1319.886, 42.20703
1321.511, 125.2695
1323.136, 16.41016
1324.760, 370.9082
1326.383, 204.2363
1328.007, 109.0293
1329.629, 118.7285
1331.253, 151.4355
1332.875, 196.0840
1334.498, 71.28320
1336.119, 7.123047
1337.742, 78.48828
1339.362, 41.25586
1340.983, 83.84375
1342.605, 92.66992
1344.225, 58.75781
1345.845, 87.27734
1347.466, 65.72656
1349.085, 111.2070
1350.704, 27.10352
1352.323, 210.9648
1353.942, 19.21289
1355.560, 6.451172
1357.178, 3.083984
1358.796, 247.7949
1360.413, 14.47656
1362.031, 139.1250
1363.648, 223.4141
1365.265, 162.0078
1366.881, 147.5742
1368.497, 298.1152
1370.113, 168.6328
1371.728, 381.1289
1373.343, 358.6035
1374.959, 520.0566
1376.574, 524.4883
1378.187, 498.9043
1379.802, 483.3008
1381.415, 520.6836
1383.029, 581.9551
1384.641, 420.2012
1386.255, 461.0059
1387.866, 628.3398
1389.479, 812.4180
1391.091, 592.2812
1392.703, 808.6777
1394.314, 768.7207
1395.925, 645.1543
1397.537, 692.5508
1399.147, 862.3301
1400.757, 729.1641
1402.367, 846.7168
1403.976, 957.9922
1405.585, 875.7422
1407.195, 787.0469
1408.804, 853.7461
1410.412, 1033.428
1412.020, 1101.008
1413.628, 1070.451
1415.236, 964.8906
1416.843, 955.6895
1418.449, 1214.688
1420.056, 1161.836
1421.663, 1210.459
1423.269, 1357.387
1424.875, 1410.215
1426.480, 1175.311
1428.085, 1396.016
1429.691, 1574.314
1431.295, 1480.498
1432.899, 1611.799
1434.503, 1782.443
1436.107, 1665.963
1437.710, 1602.557
1439.314, 1758.082
1440.916, 1926.508
1442.519, 1744.410
1444.121, 2003.449
1445.724, 1856.602
1447.325, 2151.871
1448.926, 2166.096
1450.527, 2188.553
1452.129, 2352.436
1453.729, 2497.164
1455.329, 2387.988
1456.929, 2467.947
1458.529, 2413.973
1460.128, 2522.227
1461.727, 2608.648
1463.326, 2685.234
1464.925, 2783.928
1466.523, 2877.773
1468.121, 2836.734
1469.719, 3123.859
1471.316, 3306.012
1472.913, 3189.824
1474.509, 3436.193
1476.106, 3334.209
1477.703, 3352.785
1479.299, 3465.418
1480.894, 3757.156
1482.490, 3638.982
1484.085, 3766.877
1485.679, 3992.836
1487.274, 4022.002
1488.868, 4200.736
1490.462, 4319.916
1492.055, 4352.230
1493.648, 4193.578
1495.242, 4373.076
1496.834, 4716.672
1498.426, 4758.379
1500.019, 5010.178
1501.611, 4863.094
1503.202, 5129.133
1504.793, 5247.293
1506.385, 5291.574
1507.975, 5550.934
1509.566, 5697.402
1511.156, 5636.564
1512.746, 5677.205
1514.335, 5921.918
1515.924, 5897.539
1517.514, 6074.516
1519.102, 5987.531
1520.691, 6224.299
1522.278, 6477.492
1523.866, 6617.762
1525.454, 6698.340
1527.041, 6580.885
1528.627, 6731.344
1530.214, 6783.957
1531.801, 6700.219
1533.386, 7016.982
1534.973, 7075.570
1536.557, 7063.674
1538.143, 6994.768
1539.728, 7100.943
1541.313, 7296.236
1542.897, 7351.662
1544.482, 7565.227
1546.065, 7711.479
1547.648, 7615.258
1549.232, 7738.141
1550.815, 7978.180
1552.397, 8070.342
1553.979, 8163.662
1555.562, 8132.096
1557.144, 8073.629
1558.725, 8491.289
1560.306, 8297.039
1561.887, 8530.926
1563.468, 8637.932
1565.048, 8549.084
1566.628, 8559.348
1568.208, 8544.709
1569.787, 8762.182
1571.367, 8611.781
1572.945, 8802.512
1574.524, 8860.393
1576.102, 9047.391
1577.681, 8922.521
1579.258, 9024.789
1580.835, 9069.184
1582.413, 9055.721
1583.989, 9204.418
1585.566, 9365.289
1587.142, 9424.312
1588.719, 9366.465
1590.294, 9293.723
1591.870, 9274.117
1593.445, 9332.652
1595.019, 9444.379
1596.595, 9582.174
1598.169, 9496.074
1599.742, 9510.098
1601.316, 9391.227
1602.890, 9420.035
1604.463, 9529.418
1606.036, 9634.154
1607.608, 9435.555
1609.181, 9418.818
1610.752, 9435.715
1612.324, 9442.730
1613.896, 9248.520
1615.467, 9292.316
1617.038, 9209.330
1618.609, 9002.773
1620.179, 9143.492
1621.750, 9035.182
1623.318, 8912.010
1624.888, 9146.207
1626.458, 8924.375
1628.026, 8575.883
1629.595, 8738.084
1631.163, 8857.379
1632.731, 8746.930
1634.299, 8620.395
1635.866, 8511.953
1637.434, 8535.600
1639.000, 8154.348
1640.568, 8224.193
1642.133, 8431.135
1643.700, 8157.164
1645.266, 8067.273
1646.831, 7851.305
1648.396, 7974.783
1649.961, 7757.291
1651.526, 7641.727
1653.090, 7696.244
1654.654, 7393.848
1656.218, 7204.510
1657.781, 7185.242
1659.344, 7035.051
1660.907, 6845.930
1662.470, 6533.887
1664.032, 6410.908
1665.594, 6249.043
1667.156, 6194.209
1668.718, 6029.438
1670.280, 5917.732
1671.840, 5926.520
1673.401, 5588.941
1674.962, 5437.426
1676.521, 5471.996
1678.081, 5340.629
1679.641, 5204.328
1681.200, 5032.088
1682.759, 4786.910
1684.317, 4931.791
1685.876, 4676.729
1687.434, 4436.822
1688.993, 4309.945
1690.550, 4329.109
1692.107, 4222.510
1693.664, 4122.750
1695.221, 3834.273
1696.777, 3816.789
1698.333, 3851.164
1699.889, 3568.607
1701.445, 3733.248
1703.000, 3378.932
1704.555, 3452.643
1706.110, 3014.561
1707.664, 3012.070
1709.219, 2990.445
1710.773, 2797.523
1712.327, 2583.721
1713.880, 2611.369
1715.432, 2731.994
1716.985, 2568.297
1718.538, 2384.955
1720.090, 2438.680
1721.641, 2041.834
1723.193, 2109.713
1724.745, 2132.217
1726.296, 2017.055
1727.847, 1984.977
1729.397, 1711.834
1730.948, 1743.988
1732.497, 1771.549
1734.048, 1574.982
1735.596, 1619.797
1737.146, 1514.059
1738.695, 1358.318
1740.243, 1097.820
1741.792, 1230.803
1743.340, 991.2090
1744.887, 1000.268
1746.435, 1059.434
1747.982, 788.9570
1749.529, 819.2734
1751.076, 625.0469
1752.622, 592.4199
1754.169, 568.0391
1755.714, 596.5234
1757.260, 428.8750
1758.804, 451.3184
1760.349, 359.3652
1761.894, 214.3008
1763.439, 308.7578
1764.983, 419.4160
1766.526, 218.3477
1768.070, 281.0762
1769.614, 173.4707
1771.156, 157.6504
1772.699, 160.8262
1774.242, 92.58008
1775.784, 196.0391
1777.326, 97.82031
1778.867, 293.7422
1780.409, 6.988281
1781.950, 66.15625
1783.490, 156.7832
1785.031, 190.2324
1786.571, 60.81055
1788.111, 48.78125
1789.651, 41.85352
1791.190, 22.14258
1792.729, 58.25781
1794.268, 44.02148
1795.806, 49.25977
1797.344, 57.09570
1798.882, 51.95898
1800.420, 160.8887
1801.958, 161.4004
1803.495, 65.50391
1805.032, 11.92188
1806.569, 9.136719
1808.105, 2.470703
1809.640, 77.12109
1811.176, 71.33008
1812.712, 33.95117
1814.248, 16.43555
1815.782, 5.064453
1817.317, 15.61719
1818.852, 85.86523
1820.385, 52.33008
1821.920, 72.60938
1823.453, 28.61914
1824.987, 169.7500
1826.519, 67.23438
1828.051, 61.93555
1829.584, 97.24023
1831.116, 83.62891
1832.648, 14.80469
1834.180, 90.86328
1835.711, 72.42773
1837.242, 20.46875
1838.773, 4.025391
1840.303, 157.3672
1841.833, 142.0527
1843.363, 73.50781
1844.893, 13.36914
1846.422, 19.41406
1847.952, 154.9277
1849.481, 0.9550780
1851.009, 59.54883
1852.538, 100.9043
1854.066, 90.20312
1855.594, 19.55078
1857.121, 139.8301
1858.648, 200.5918
1860.176, 127.0645
1861.702, 262.3945
1863.228, 138.8867
1864.754, 69.25000
1866.280, 162.4531
1867.805, 75.41016
1869.331, 192.3047
1870.855, 31.28516
1872.381, 44.88867
1873.905, 56.58398
1875.429, 20.05664
1876.953, 78.46094
1878.477, 31.79688
1880.000, 53.12891
1881.523, 124.3262
1883.047, 136.4512
1884.569, 85.55078
1886.091, 33.09570
1887.613, 13.91016
1889.135, 3.880859
1890.656, 19.58398
1892.177, 52.20703
1893.698, 140.7520
1895.219, 129.3105
1896.738, 56.70312
1898.259, 76.47461
1899.779, 170.7031
1901.299, 10.14844
1902.817, 108.8926
1904.336, 4.849609
1905.855, 110.6992
1907.373, 50.48242
1908.892, 44.50391
1910.409, 25.91992
1911.927, 117.4727
1913.444, 119.2051
1914.962, 43.12305
1916.478, 86.00391
1917.995, 89.23438
1919.511, 39.36133
1921.027, 43.15234
1922.542, 187.8184
1924.058, 1.712891
1925.573, 50.25977
1927.088, 45.87891
1928.603, 100.8223
1930.117, 64.57617
1931.631, 27.14648
1933.145, 127.8711
1934.658, 26.19531
1936.171, 101.1328
1937.684, 28.96680
1939.197, 33.33398
1940.710, 48.79492
1942.222, 104.4316
1943.733, 49.73047
1945.245, 40.76562
1946.757, 45.33203
1948.267, 56.39453
1949.778, 21.99414
1951.289, 20.54883
1952.799, 127.2578
1954.309, 46.18945
1955.819, 47.69922
1957.329, 154.4492
1958.837, 12.09375
1960.346, 37.41602
1961.855, 121.8945
1963.363, 38.97852
1964.871, 153.0352
1966.379, 63.93945
1967.887, 116.7070
1969.394, 45.35352
1970.901, 116.3262
1972.407, 64.28906
1973.914, 81.69922
1975.420, 181.0293
1976.926, 49.48047
1978.431, 148.2852
1979.937, 57.97461
1981.442, 77.87109
1982.947, 10.27539
1984.452, 74.32617
1985.955, 81.47852
1987.459, 175.3359
1988.963, 22.20508
1990.467, 115.8965
1991.970, 188.2031
1993.473, 223.5273
1994.975, 149.4883
1996.478, 192.7598
1997.979, 150.9102
1999.482, 142.7832
2000.983, 142.7188
2002.485, 112.5371
2003.986, 65.23438
2005.486, 86.79297
2006.987, 104.2188
2008.487, 128.5215
2009.987, 193.7031
2011.486, 84.49414
2012.987, 229.7754
2014.486, 209.4238
2015.985, 300.1973
2017.483, 139.8379
2018.981, 238.6602
2020.479, 259.0781
2021.977, 403.5430
2023.475, 231.7715
2024.971, 342.8926
2026.469, 288.6738
2027.966, 412.0781
2029.462, 268.9121
2030.959, 360.0430
2032.454, 408.9082
2033.950, 404.4551
2035.445, 447.1660
2036.940, 353.8867
2038.436, 252.1484
2039.930, 305.0117
2041.424, 328.0410
2042.918, 273.0098
2044.411, 291.8008
2045.906, 313.5762
2047.398, 356.2578
2048.891, 353.8438
2050.385, 317.3359
2051.877, 506.6387
2053.369, 349.8770
2054.860, 411.0371
2056.352, 409.9238
2057.843, 395.9297
2059.334, 363.6211
2060.825, 480.2812
2062.315, 560.0430
2063.806, 362.7129
2065.296, 282.1484
2066.786, 292.5293
2068.276, 450.8516
2069.765, 443.0117
2071.253, 376.5938
2072.742, 460.2930
2074.231, 327.2461
2075.719, 352.0391
2077.207, 233.3828
2078.695, 439.7188
2080.181, 364.3379
2081.669, 363.5684
2083.155, 345.7031
2084.643, 406.3730
2086.128, 316.2949
2087.614, 233.5566
2089.101, 345.4316
2090.585, 483.1953
2092.070, 451.9727
2093.555, 427.4062
2095.041, 226.3867
2096.525, 331.4473
2098.009, 373.0820
2099.493, 533.2266
2100.977, 275.3203
2102.460, 311.1250
2103.943, 311.4023
2105.426, 438.2012
2106.908, 373.3027
2108.391, 347.2441
2109.872, 318.7793
2111.354, 361.4727
2112.836, 292.6543
2114.317, 277.1875
2115.797, 287.4199
2117.279, 373.7402
2118.760, 417.1387
2120.239, 413.3945
2121.719, 433.9902
2123.198, 296.6445
2124.678, 200.7266
2126.157, 327.5488
2127.635, 237.0469
2129.115, 173.6934
2130.593, 370.6191
2132.070, 247.7031
2133.549, 273.7344
2135.026, 211.1328
2136.503, 245.7715
2137.980, 274.0293
2139.457, 341.0898
2140.933, 392.7422
2142.409, 105.4629
2143.885, 346.6426
2145.361, 215.9414
2146.836, 288.0508
2148.312, 292.2734
2149.787, 104.2012
2151.261, 183.7051
2152.735, 277.2656
2154.209, 241.4102
2155.684, 283.4434
2157.156, 294.8613
2158.630, 381.1094
2160.104, 285.1641
2161.576, 278.7246
2163.049, 138.7969
2164.520, 125.1133
2165.993, 153.8945
2167.464, 228.3340
2168.935, 128.6348
2170.407, 173.4824
2171.878, 227.6719
2173.348, 203.7852
2174.818, 120.5957
2176.289, 251.6465
2177.759, 163.4688
2179.228, 267.2441
2180.698, 39.13867
2182.167, 104.2344
2183.635, 186.1465
2185.104, 213.6367
2186.573, 26.84375
2188.041, 23.61719
2189.507, 4.976563
2190.975, 55.89648
2192.442, 6.421875
2193.910, 6.835938
2195.375, 94.72461
2196.842, 2.117188
2198.309, 5.892578
2199.774, 11.68164
2201.240, 90.58008
2202.705, 59.32617
2204.171, 52.33789
2205.635, 18.10938
2207.100, 20.02930
2208.564, 11.79883
2210.028, 203.5957
2211.493, 14.02344
2212.956, 34.65625
2214.419, 72.49805
2215.882, 63.79883
2217.344, 71.88477
2218.808, 122.0977
2220.270, 72.15430
2221.732, 106.6465
2223.194, 12.53516
2224.655, 144.5996
2226.116, 78.65625
2227.576, 55.56055
2229.037, 60.76953
2230.498, 72.81641
2231.958, 17.01562
2233.418, 90.21289
2234.877, 129.4043
2236.337, 123.5332
2237.796, 212.7246
2239.255, 96.91406
2240.714, 85.06641
2242.171, 154.8887
2243.630, 171.7930
2245.087, 151.0117
2246.546, 267.2402
2248.002, 74.47461
2249.459, 194.7148
2250.917, 221.8711
2252.373, 196.1211
2253.829, 40.91992
2255.285, 229.1895
2256.740, 253.4629
2258.196, 261.7617
2259.651, 233.0703
2261.105, 144.4023
2262.560, 105.7266
2264.014, 129.7383
2265.469, 257.1172
2266.923, 240.5312
2268.377, 127.0059
2269.830, 32.54492
2271.284, 147.9473
2272.736, 69.58594
2274.188, 123.2852
2275.641, 187.0117
2277.093, 188.7871
2278.545, 197.6504
2279.996, 141.5527
2281.448, 124.4863
2282.898, 123.4746
2284.348, 79.48633
2285.801, 160.5566
2287.251, 137.6836
2288.700, 78.88867
2290.150, 267.1348
2291.599, 179.4102
2293.048, 242.7285
2294.497, 174.1055
2295.945, 274.5449
2297.394, 100.0664
2298.842, 140.6270
2300.290, 176.2324
2301.737, 193.9062
2303.185, 228.6211
2304.632, 120.3887
2306.079, 257.2168
2307.526, 321.1387
2308.972, 317.1309
2310.419, 145.1738
2311.865, 280.2480
2313.311, 335.3828
2314.754, 84.58984
2316.200, 106.8359
2317.646, 246.1562
2319.091, 318.5117
2320.535, 366.9199
2321.978, 303.3730
2323.422, 502.8809
2324.866, 324.4316
2326.308, 549.0684
2327.752, 830.7539
2329.196, 781.4785
2330.637, 964.2617
2332.080, 801.0879
2333.521, 588.9688
2334.963, 407.9043
2336.404, 407.9141
2337.846, 346.9766
2339.286, 322.0938
2340.728, 422.2520
2342.167, 254.4766
2343.609, 322.7500
2345.048, 138.0664
2346.489, 282.4238
2347.927, 267.8301
2349.365, 351.2773
2350.806, 321.7734
2352.244, 332.3145
2353.681, 304.9082
2355.121, 290.5527
2356.559, 367.2578
2357.996, 359.0215
2359.432, 270.8398
2360.871, 384.7070
2362.308, 308.9141
2363.744, 426.7285
2365.180, 338.7480
2366.616, 288.6328
2368.051, 320.7422
2369.487, 256.6094
2370.924, 267.8086
2372.359, 301.9219
2373.794, 229.2207
2375.228, 352.5684
2375.593, 360.2070
2376.662, 258.1699
2377.050, 475.6484
2378.096, 294.7441
2378.505, 361.0918
2379.530, 270.7129
2379.959, 455.1191
2380.962, 162.0352
2381.416, 577.7949
2382.395, 267.9023
2382.870, 274.7969
2383.828, 371.7012
2384.324, 456.7363
2385.261, 317.7402
2385.777, 382.7930
2386.694, 216.9062
2387.233, 221.0703
2388.127, 232.2812
2388.687, 281.5449
2389.559, 309.8906
2390.139, 282.2852
2390.991, 271.7285
2391.592, 409.2188
2392.421, 270.7676
2393.045, 448.3652
2393.853, 249.0254
2394.500, 372.7441
2395.284, 264.5449
2395.952, 299.4121
2396.716, 54.34180
2397.404, 421.3281
2398.144, 141.3789
2398.855, 335.5273
2399.575, 107.7266
2400.307, 293.9746
2401.006, 142.2832
2401.758, 252.6719
2402.434, 212.1289
2403.209, 315.6680
2403.865, 149.2793
2404.662, 244.9531
2405.295, 288.6855
2406.113, 255.4766
2406.722, 232.3223
2407.563, 257.2227
2408.152, 111.1738
2409.013, 241.1758
2409.579, 278.2324
2410.464, 397.3398
2411.008, 315.5020
2411.913, 339.7168
2412.435, 356.9902
2413.363, 464.3281
2413.864, 303.7188
2414.812, 421.1621
2415.290, 241.6562
2416.261, 285.2031
2416.718, 114.8027
2417.710, 321.4512
2418.144, 218.1562
2419.159, 217.9121
2419.572, 77.71680
2420.607, 344.5703
2420.998, 204.4746
2422.056, 322.4277
2422.423, 195.4316
2423.504, 281.4863
2423.850, 105.5859
2424.951, 236.7363
2425.275, 210.9336
2426.397, 334.1895
2426.700, 283.4883
2427.844, 290.8379
2428.126, 174.2363
2429.291, 443.6797
2429.551, 354.1738
2430.738, 503.7148
2430.975, 206.3008
2432.185, 607.9355
2432.401, 168.6152
2433.632, 588.3438
2433.824, 262.1133
2435.078, 528.9316
2435.248, 116.7949
2436.524, 531.7051
2436.671, 313.6602
2437.968, 396.6602
2438.094, 316.7070
2439.413, 533.7988
2439.516, 249.9355
2440.859, 603.1152
2440.941, 280.3398
2442.304, 355.6074
2442.364, 281.9180
2443.747, 267.2715
2443.786, 104.6680
2445.191, 185.1094
2445.207, 246.5918
2446.629, 246.1191
2446.636, 176.6895
2448.051, 296.3008
2448.080, 99.95312
2449.472, 227.6504
2449.522, 99.38477
2450.893, 180.1621
2450.966, 132.9805
2452.314, 237.8418
2452.410, 212.7422
2453.734, 156.6836
2453.854, 224.6641
2455.155, 276.6875
2455.294, 260.7559
2456.575, 288.8594
2456.738, 200.0039
2457.995, 411.1895
2458.178, 47.42578
2459.413, 208.7051
2459.621, 180.0195
2460.832, 308.3730
2461.063, 280.7793
2462.252, 263.2305
2462.503, 172.7246
2463.671, 341.2578
2463.945, 320.8301
2465.090, 311.4414
2465.387, 276.0859
2466.509, 293.7695
2466.826, 93.49609
2467.925, 200.2559
2468.268, 281.0586
2469.343, 248.9043
2469.706, 298.7891
2470.761, 191.7148
2471.147, 172.6758
2472.177, 304.7383
2472.586, 220.7676
2473.595, 221.8301
2474.026, 142.9277
2475.012, 253.9023
2475.464, 396.0645
2476.427, 326.2637
2476.904, 151.4980
2477.844, 46.90430
2478.342, 291.2109
2479.261, 257.8809
2479.781, 218.8477
2480.676, 295.2461
2481.219, 422.9824
2482.092, 169.8418
2482.658, 233.4688
2483.506, 271.7520
2484.094, 147.9922
2484.922, 285.6191
2485.531, 271.2812
2486.336, 451.6797
2486.970, 361.4297
2487.752, 416.6211
2488.406, 239.2539
2489.165, 392.1387
2489.844, 333.8496
2490.580, 231.4980
2491.280, 372.3691
2491.993, 246.3906
2492.715, 380.5312
2493.408, 393.6387
2494.152, 457.7715
2494.820, 379.9531
2495.587, 433.1562
2496.232, 304.3945
2497.022, 493.7930
2497.646, 363.3262
2498.457, 325.9238
2499.058, 312.5645
2499.894, 383.1680
2500.469, 513.5488
2501.328, 398.7852
2501.883, 410.1992
2502.761, 493.6348
2503.294, 370.3203
2504.198, 398.7871
2504.705, 192.2715
2505.631, 511.7734
2506.116, 306.3027
2507.064, 465.8496
2507.529, 215.4629
2508.498, 456.0352
2508.939, 356.6230
2509.930, 484.2227
2510.349, 268.8652
2511.365, 372.9316
2511.759, 266.6016
2512.798, 440.2852
2513.168, 302.9805
2514.230, 505.6895
2514.578, 443.4082
2515.662, 388.1406
2515.987, 490.8789
2517.094, 524.6289
2517.398, 438.3887
2518.526, 549.1582
2518.807, 313.9336
2519.957, 489.7188
2520.216, 372.5098
2521.390, 547.3105
2521.624, 246.1191
2522.821, 416.9297
2523.033, 280.7520
2524.252, 627.5781
2524.441, 269.4082
2525.683, 548.2441
2525.848, 402.0859
2527.113, 461.9316
2527.254, 268.7832
2528.543, 507.6367
2528.661, 415.4961
2529.973, 524.3594
2530.068, 325.2227
2531.403, 606.0898
2532.832, 629.9609
2534.261, 448.8320
2535.691, 457.7070
2537.119, 531.5820
2538.548, 533.4590
2539.977, 297.3359
2541.405, 537.2148
2542.833, 441.0918
2544.258, 655.9668
2545.686, 408.8457
2547.113, 422.7207
2548.540, 396.5957
2549.967, 394.4668
2551.394, 320.3379
2552.821, 384.2070
2554.245, 312.0723
2555.671, 204.9355
2557.096, 339.7969
2558.522, 400.6523
2559.946, 305.5039
2561.371, 156.3535
2562.796, 220.1953
2564.220, 138.0352
2565.643, 194.9141
2567.067, 168.7383
2568.491, 55.56055
2569.913, 146.3770
2571.337, 139.1855
2572.761, 79.98633
2574.182, 148.7812
2575.605, 85.56836
2577.028, 82.34766
2578.448, 88.11914
2579.871, 50.88086
2581.291, 125.6602
2582.713, 56.59766
2584.133, 80.10938
2585.554, 126.8086
2586.973, 11.53516
2588.395, 136.4902
2589.813, 41.10938
2591.234, 76.83008
2592.653, 65.83203
2594.073, 12.10547
2595.491, 22.06836
2596.911, 51.07617
2598.329, 18.24023
2599.748, 112.3711
2601.165, 47.66602
2602.582, 29.77539
2604.001, 23.95312
2605.418, 34.58984
2606.834, 163.8672
2608.252, 114.4043
2609.668, 56.85742
2611.084, 12.03711
2612.501, 85.39062
2613.917, 54.19922
2615.332, 88.80469
2616.747, 57.34375
2618.163, 2.279297
2619.578, 1.058594
2620.992, 19.55664
2622.406, 18.56641
2623.820, 56.29297
2625.236, 148.7734
2626.649, 136.1758
2628.062, 109.4492
2629.475, 89.32422
2630.888, 30.08789
2632.300, 64.58789
2633.713, 26.09180
2635.125, 8.871094
2636.539, 60.35742
2637.951, 64.77539
2639.362, 131.3242
2640.773, 44.66602
2642.184, 119.2578
2643.595, 139.7676
2645.006, 37.02930
2646.416, 152.5176
2647.827, 121.4199
2649.237, 227.5938
2650.644, 125.4062
2652.054, 207.7051
2653.463, 95.79883
2654.872, 136.8672
2656.281, 155.4199
2657.690, 159.4336
2659.099, 146.7168
2660.507, 50.83203
2661.913, 423.7910
2663.321, 309.0977
2664.729, 320.3594
2666.136, 308.1953
2667.544, 407.5605
2668.948, 388.3398
2670.355, 404.0918
2671.762, 281.8145
2673.169, 423.6660
2674.573, 417.3301
2675.979, 361.9668
2677.385, 346.5723
2678.788, 220.1523
2680.194, 210.7031
2681.599, 252.2227
2683.002, 317.7148
2684.407, 303.1738
2685.811, 376.6055
2687.214, 436.0039
2688.618, 280.3730
2690.020, 355.7129
2691.424, 271.0215
2692.825, 484.2988
2694.228, 386.5469
2695.631, 393.7637
2697.032, 455.9492
2698.435, 413.1016
2699.835, 476.2246
2701.236, 417.3164
2702.638, 497.3770
2704.038, 449.4062
2705.439, 377.4023
2706.839, 370.3672
2708.240, 433.3008
2709.639, 268.2031
2711.038, 363.0723
2712.438, 361.9082
2713.837, 344.7148
2715.235, 362.4883
2716.635, 239.2266
2718.033, 241.9355
2719.430, 272.6133
2720.830, 370.2559
2722.227, 253.8672
2723.624, 351.4453
2725.020, 292.9922
2726.419, 333.5020
2727.815, 314.9844
2729.211, 358.4297
2730.607, 251.8438
2732.003, 196.2266
2733.398, 181.5742
2734.796, 205.8906
2736.191, 255.1719
2737.586, 214.4219
2738.980, 236.6387
2740.375, 218.8203
2741.769, 293.9688
2743.163, 239.0859
2744.557, 242.1680
2745.950, 219.2168
2747.344, 367.2344
2748.737, 198.2168
2750.130, 283.1641
2751.523, 220.0137
2752.916, 204.8965
2754.308, 195.7461
2755.700, 162.5605
2757.092, 201.4980
2758.484, 103.2441
2759.875, 145.9473
2761.267, 140.6152
2762.658, 81.10742
2764.049, 57.68945
2765.437, 148.8984
2766.828, 142.8066
2768.218, 83.27930
2769.608, 39.40430
2770.999, 70.39258
2772.386, 162.6035
2773.775, 13.15625
2775.165, 36.73242
2776.554, 63.90625
2777.941, 170.0352
2779.330, 101.4277
2780.718, 88.54102
2782.106, 78.99609
2783.492, 36.93359
2784.880, 15.84766
2786.268, 8.212891
2787.653, 12.23047
2789.041, 5.496094
2790.426, 33.93359
2791.812, 21.48047
2793.199, 62.66406
2794.583, 59.93359
2795.970, 95.37891
2797.354, 11.66211
2798.740, 15.89062
2800.123, 144.9453
2801.509, 13.14453
2802.892, 51.67773
2804.277, 40.44336
2805.660, 33.23242
2807.044, 152.2754
2808.427, 85.40820
2809.809, 91.35156
2811.193, 211.2656
2812.574, 83.91211
2813.958, 50.76953
2815.339, 149.5977
2816.720, 20.60156
2818.104, 91.14062
2819.484, 132.8574
2820.865, 139.4941
2822.247, 57.22070
2823.627, 197.8574
2825.007, 65.53125
2826.387, 22.00000
2827.769, 110.0898
2829.148, 58.56445
2830.527, 59.00977
2831.906, 148.4277
2833.284, 44.82227
2834.665, 174.1895
2836.043, 157.5332
2837.421, 151.8516
2838.799, 76.14648
2840.177, 190.4160
2841.555, 155.6660
2842.932, 248.8926
2844.309, 194.7852
2845.686, 178.9648
2847.062, 128.1250
2848.439, 201.2617
2849.815, 410.3770
2851.191, 237.4688
2852.567, 325.5391
2853.943, 363.5898
2855.318, 367.6191
2856.694, 288.6270
2858.069, 200.6152
2859.444, 446.5801
2860.818, 309.5273
2862.193, 252.4531
2863.567, 373.3555
2864.941, 342.2422
2866.315, 287.1094
2867.687, 269.9531
2869.060, 415.7793
2870.433, 461.5859
2871.806, 301.3750
2873.179, 383.1445
2874.550, 360.8945
2875.922, 444.6250
2877.294, 350.3398
2878.667, 459.0352
2880.036, 426.7148
2881.408, 345.3730
2882.780, 459.0156
2884.148, 384.6426
2885.520, 414.2500
2886.891, 490.8418
2888.259, 356.4180
2889.630, 439.9746
2890.998, 411.5176
2892.368, 339.0430
2893.738, 272.5547
2895.105, 288.0469
2896.475, 284.5273
2897.842, 243.9922
2899.211, 292.3945
2900.578, 233.8301
2901.947, 174.2500
2903.313, 374.6543
2904.681, 233.0469
2906.047, 365.4219
2907.415, 260.7871
2908.781, 157.1348
2910.146, 271.4717
2911.513, 392.7949
2912.878, 283.1074
2914.243, 365.3779
2915.610, 208.6641
2916.974, 281.9521
2918.338, 251.2275
2919.704, 223.4531
2921.068, 292.4072
2922.432, 352.6836
2923.797, 340.8125
2925.160, 272.6396
2926.523, 124.3848
2927.886, 332.9893
2929.249, 261.8896
2930.614, 147.7744
2931.976, 176.5967
2933.338, 324.5283
2934.699, 216.2354
2936.061, 93.97949
2937.423, 245.1504
2938.784, 314.9248
2940.147, 201.0830
2941.508, 187.0332
2942.869, 221.3125
2944.229, 177.0176
2945.589, 215.1279
2946.949, 71.99512
2948.309, 87.74219
2949.669, 165.8408
2951.028, 178.6318
2952.387, 98.23438
2953.746, 203.2939
2955.105, 103.6104
2956.464, 40.84863
2957.820, 17.74121
2959.179, 49.43848
2960.537, 146.5068
2961.895, 136.6650
2963.252, 76.05957
2964.610, 33.42578
2965.967, 72.22754
2967.322, 86.80078
2968.679, 94.16016
2970.036, 53.63672
2971.392, 183.7441
2972.746, 94.86035
2974.102, 75.03320
2975.458, 46.43652
2976.814, 159.5811
2978.167, 71.28711
2979.523, 136.7207
2980.878, 33.49023
2982.231, 91.75195
2983.586, 63.19336
2984.940, 7.362305
2986.292, 71.57324
2987.646, 73.02441
2988.998, 3.183594
2990.352, 55.49414
2991.704, 106.9336
2993.057, 143.0020
2994.408, 94.09277
2995.761, 90.58594
2997.112, 154.5264
2998.464, 112.0283
2999.815, 245.5361
3001.167, 118.0488
3002.517, 116.4092
3003.869, 209.9346
3005.218, 40.46484
3006.567, 44.99707
3007.919, 67.54004
3009.268, 15.08398
3010.616, 13.63477
3011.967, 22.19336
3013.315, 38.75781
3014.663, 221.3291
3016.013, 111.9082
3017.361, 95.49512
3018.709, 54.08887
3020.056, 67.69336
3021.406, 142.3047
3022.752, 129.9248
3024.099, 132.5527
3025.446, 187.1885
3026.792, 206.8350
3028.141, 61.48828
3029.487, 188.1514
3030.833, 253.8252
3032.178, 94.50586
3033.523, 108.1973
3034.869, 99.89844
3036.214, 67.62207
3037.559, 64.35352
3038.904, 233.0957
3040.248, 241.8496
3041.592, 244.6152
3042.936, 237.3936
3044.280, 143.1895
3045.624, 168.9961
3046.967, 192.8145
3048.311, 237.6436
3049.654, 236.4834
3050.997, 186.3369
3052.339, 153.2012
3053.682, 192.0791
3055.024, 158.9678
3056.364, 216.8682
3057.706, 154.7822
3059.048, 126.7070
3060.390, 273.6562
3061.731, 226.6172
3063.070, 258.6084
3064.411, 255.6123
3065.752, 273.6279
3067.093, 235.6582
3068.431, 75.70215
3069.771, 205.7578
3071.111, 187.8291
3072.449, 258.9248
3073.789, 158.0381
3075.128, 182.1650
3076.465, 191.3066
3077.804, 224.4619
3079.143, 251.6318
3080.480, 235.8164
3081.818, 268.0146
3083.155, 140.2295
3084.493, 115.4590
3085.829, 283.7090
3087.166, 229.9727
3088.502, 202.2559
3089.839, 196.5605
3091.174, 248.8896
3092.511, 149.2354
3093.846, 203.5986
3095.180, 267.9834
3096.517, 286.3926
3097.851, 259.8242
3099.187, 191.2705
3100.521, 334.7471
3101.854, 180.2490
3103.189, 217.7715
3104.523, 57.30957
3105.856, 88.86426
3107.190, 203.4746
3108.523, 285.1348
3109.855, 115.8350
3111.188, 179.5596
3112.522, 81.31543
3113.854, 197.1025
3115.185, 215.9180
3116.517, 277.7725
3117.848, 37.89746
3119.179, 111.7920
3120.512, 174.7305
3121.843, 177.6865
3123.173, 141.6670
3124.503, 65.67090
3125.833, 117.6904
3127.164, 77.74219
3128.493, 138.8115
3129.823, 211.9014
3131.152, 220.9648
3132.481, 149.7832
3133.810, 258.9287
3135.139, 105.6377
3136.468, 61.81445
3137.796, 276.0088
3139.124, 92.81836
3140.452, 153.1172
3141.780, 225.3760
3143.108, 215.6484
3144.433, 155.9375
3145.760, 46.18262
3147.088, 192.5039
3148.414, 212.8398
3149.741, 232.9355
3151.065, 180.5332
3152.392, 199.4824
3153.718, 95.92969
3155.044, 164.3936
3156.367, 151.8721
3157.693, 281.3691
3159.019, 233.8799
3160.344, 195.4150
3161.667, 129.9629
3162.991, 177.5332
3164.314, 197.1191
3165.638, 186.7178
3166.963, 247.6416
3168.284, 340.2715
3169.608, 342.9150
3170.930, 250.5732
3172.254, 224.2520
3173.575, 184.9443
3174.898, 231.6523
3176.221, 204.3750
3177.542, 260.2344
3178.862, 331.9873
3180.184, 186.7588
3181.504, 156.5469
3182.826, 156.3496
3184.146, 189.1650
3185.468, 214.9961
3186.787, 219.8574
3188.106, 187.7324
3189.427, 331.6221
3190.746, 189.5400
3192.064, 212.4727
3193.385, 197.4277
3194.703, 222.9170
3196.021, 308.9082
3197.339, 203.9150
3198.659, 233.9355
3199.977, 178.5605
3201.294, 157.6094
3202.611, 258.5293
3203.928, 256.6084
3205.246, 201.7256
3206.563, 310.8574
3207.879, 179.0068
3209.196, 227.1807
3210.511, 204.3740
3211.827, 160.5801
3213.143, 177.8018
3214.458, 367.0352
3215.773, 273.2812
3217.088, 363.5410
3218.404, 222.0918
3219.718, 251.3789
3221.032, 279.3604
3222.347, 320.6719
3223.661, 244.9980
3224.975, 270.3369
3226.289, 231.6855
3227.602, 214.0479
3228.916, 165.4316
3230.229, 314.5020
3231.542, 229.6553
3232.852, 275.0742
3234.165, 368.5049
3235.478, 267.9502
3236.790, 234.4072
3238.102, 297.8760
3239.412, 230.3564
3240.723, 199.8477
3242.035, 168.3496
3243.346, 133.8623
3244.655, 133.3867
3245.966, 305.9209
3247.277, 123.4658
3248.585, 164.0186
3249.896, 173.5840
3251.206, 295.1602
3252.514, 109.7461
3253.824, 241.3398
3255.131, 100.9443
3256.441, 227.5586
3257.748, 274.1816
3259.057, 145.8154
3260.364, 191.4561
3261.673, 59.10742
3262.979, 51.76758
3264.288, 126.4365
3265.594, 165.1143
3266.902, 28.79883
3268.207, 144.4941
3269.515, 222.1953
3270.820, 277.9043
3272.125, 154.6211
3273.432, 211.3447
3274.738, 242.0762
3276.042, 161.8184
3277.348, 103.5674
3278.653, 290.3223
3279.957, 152.0859
3281.260, 156.8545
3282.567, 209.6299
3283.870, 169.4121
3285.173, 148.1992
3286.477, 100.9932
3287.782, 64.79199
3289.084, 74.50586
3290.387, 226.2852
3291.689, 21.91797
3292.991, 71.87891
3294.294, 118.6816
3295.595, 109.5127
3296.897, 3.740234
3298.199, 15.03613
3299.500, 154.8164
3300.803, 33.60156
3302.104, 7.391602
3303.405, 10.18555
3304.703, 129.9854
3306.004, 49.21094
3307.304, 8.419922
3308.604, 18.10840
3309.904, 78.13672
3311.204, 4.930664
3312.503, 30.72852
3313.802, 111.5293
3315.102, 13.33398
3316.401, 37.19336
3317.697, 182.0029
3318.996, 161.0771
3320.294, 62.91113
3321.592, 42.72656
3322.890, 14.54492
3324.186, 27.36816
3325.484, 50.19336
3326.781, 118.0195
3328.076, 73.06445
3329.374, 164.8936
3330.670, 47.78906
3331.965, 58.80078
3333.262, 2.345703
3334.558, 44.48828
3335.852, 22.65527
3337.148, 6.612305
3338.442, 7.469727
3339.738, 177.3281
3341.031, 195.1904
3342.327, 56.51855
3343.620, 200.4102
3344.915, 59.45312
3346.207, 90.68750
3347.502, 109.7578
3348.794, 40.34570
3350.088, 49.73047
3351.380, 66.45117
3352.674, 84.10645
3353.966, 143.0010
3355.257, 10.15332
3356.550, 131.8369
3357.842, 35.28809
3359.132, 53.92773
3360.425, 130.8135
3361.716, 88.76660
3363.006, 43.66797
3364.296, 95.99512
3365.588, 64.22070
3366.878, 61.30469
3368.167, 26.12793
3369.457, 90.94824
3370.746, 62.83691
3372.035, 205.6504
3373.326, 33.82812
3374.615, 147.9580
3375.903, 55.25781
3377.192, 18.48926
3378.480, 17.40625
3379.768, 64.16699
3381.056, 105.9033
3382.343, 102.6348
3383.631, 76.32715
3384.918, 35.65820
3386.205, 3.851563
3387.492, 169.8398
3388.779, 141.7168
3390.065, 19.92383
3391.352, 225.7139
3392.638, 159.5645
3393.924, 130.3721
3395.208, 240.1377
3396.493, 130.7939
3397.779, 171.4463
3399.064, 99.09277
3400.349, 119.7314
3401.632, 154.3643
3402.917, 116.9902
3404.201, 142.6094
3405.486, 121.2236
3406.768, 133.8291
3408.052, 190.4287
3409.336, 164.0469
3410.617, 234.6309
3411.901, 79.20898
3413.184, 123.7803
3414.465, 117.3438
3415.748, 159.8994
3417.029, 164.4473
3418.312, 174.9883
3419.594, 159.5205
3420.874, 131.0459
3422.156, 159.5635
3423.436, 216.0732
3424.718, 164.5742
3425.997, 132.0664
3427.279, 48.55176
3428.558, 131.0283
3429.836, 146.4951
3431.117, 78.95508
3432.396, 79.40625
3433.677, 90.84863
3434.955, 162.3682
3436.233, 161.7930
3437.512, 155.2090
3438.790, 111.6152
3440.068, 161.0127
3441.345, 288.4023
3442.624, 10.78320
3443.901, 210.4580
3445.178, 195.8115
3446.455, 155.6094
3447.733, 186.9834
3449.010, 294.3174
3450.285, 261.0342
3451.561, 248.2705
3452.837, 106.5684
3454.113, 140.8857
3455.388, 140.1641
3456.663, 122.4326
3457.940, 96.84082
3459.215, 189.0898
3460.490, 129.6104
3461.764, 34.31152
3463.039, 19.35547
3464.313, 86.53125
3465.587, 150.6953
3466.859, 86.85059
3468.132, 104.9961
3469.406, 9.870117
3470.679, 90.23633
3471.952, 3.333008
3473.225, 63.50488
3474.498, 172.5693
3475.770, 227.6230
3477.040, 87.66602
3478.312, 93.69824
3479.585, 149.9688
3480.856, 5.980469
3482.126, 101.9697
3483.398, 60.13379
3484.669, 39.10547
3485.940, 72.06152
3487.209, 87.88477
3488.480, 5.090820
3489.750, 50.00195
3491.019, 74.89941
3492.289, 147.7314
3493.557, 84.60645
3494.827, 26.53027
3496.097, 79.55273
3497.364, 48.36426
3498.633, 24.54297
3499.901, 47.24414
3501.170, 1.986328
3502.437, 15.71094
3503.705, 37.90625
3504.971, 20.62988
3506.238, 81.86816
3507.506, 103.5771
3508.772, 58.17578
3510.040, 85.95312
3511.305, 37.70605
3512.571, 67.69727
3513.838, 61.91309
3515.103, 14.87207
3516.368, 10.53027
3517.635, 9.073242
3518.899, 49.51953
3520.164, 111.5205
3521.428, 142.9541
3522.694, 84.37988
3523.958, 128.9053
3525.221, 29.50781
3526.485, 122.7158
3527.748, 185.4512
3529.011, 172.1230
3530.274, 57.46387
3531.539, 93.80176
3532.802, 110.3213
3534.064, 159.8506
3535.326, 2.859375
3536.588, 46.58008
3537.850, 75.23535
3539.112, 184.7197
3540.374, 55.93945
3541.635, 32.14551
3542.896, 73.78906
3544.157, 59.97754
3545.416, 69.14648
3546.677, 78.30176
3547.937, 150.4443
3549.198, 133.7012
3550.458, 182.8184
3551.718, 175.9238
3552.978, 132.0166
3554.235, 137.0967
3555.494, 178.1650
3556.754, 268.2217
3558.013, 192.2646
3559.270, 123.2959
3560.529, 99.31445
3561.787, 138.3203
3563.044, 113.3145
3564.302, 174.2959
3565.560, 142.2656
3566.816, 150.2227
3568.074, 219.1680
3569.331, 140.1006
3570.587, 161.0205
3571.844, 155.9658
3573.099, 124.8682
3574.356, 219.7578
3575.610, 232.6348
3576.867, 166.5010
3578.121, 237.3750
3579.377, 193.2168
3580.631, 227.0459
3581.885, 220.9619
3583.141, 209.7666
3584.394, 204.5596
3585.650, 88.33984
3586.903, 193.1074
3588.156, 162.8623
3589.411, 185.6074
3590.663, 206.3379
3591.916, 210.2266
3593.168, 253.9355
3594.422, 161.7383
3595.674, 129.4346
3596.926, 141.2656
3598.177, 98.93945
3599.430, 106.6035
3600.682, 197.2539
3601.933, 130.9131
3603.184, 244.5605
3604.434, 101.1963
3605.685, 209.8193
3606.935, 287.4375
3608.185, 73.04297
3609.436, 116.6357
3610.685, 213.2158
3611.935, 97.79395
3613.185, 238.8428
3614.434, 133.9482
3615.683, 174.4941
3616.932, 157.0293
3618.181, 204.5537
3619.429, 207.0674
3620.678, 108.6631
3621.926, 134.1543
3623.174, 79.37207
3624.422, 179.8213
3625.668, 308.2783
3626.916, 176.7266
3628.163, 208.1621
3629.410, 47.66797
3630.655, 179.0811
3631.902, 114.2676
3633.149, 56.65918
3634.396, 99.97656
3635.640, 178.1660
3636.886, 125.5059
3638.133, 42.85547
3639.376, 124.8613
3640.622, 144.0664
3641.865, 58.63770
3643.111, 156.6260
3644.356, 171.8760
3645.599, 39.65039
3646.844, 165.8506
3648.087, 35.00879
3649.332, 84.84473
3650.574, 123.8340
3651.818, 88.33887
3653.060, 85.45410
3654.302, 78.29688
3655.546, 41.34668
3656.787, 73.81348
3658.031, 11.94336
3659.271, 50.91406
3660.512, 119.9854
3661.756, 100.6992
3662.996, 65.27441
3664.237, 13.23145
3665.477, 4.774414
3666.719, 22.22070
3667.959, 123.4121
3669.199, 13.82129
3670.438, 90.76660
3671.678, 78.76562
3672.919, 51.68555
3674.158, 30.66797
3675.397, 52.92871
3676.636, 13.90430
3677.875, 100.8672
3679.113, 79.83984
3680.352, 74.63184
3681.590, 28.56543
3682.828, 25.51465
3684.066, 151.4551
3685.303, 31.42383
3686.541, 22.94531
3687.778, 93.86035
3689.015, 153.7676
3690.252, 188.4766
3691.489, 6.568359
3692.725, 5.664063
3693.962, 139.0254
3695.196, 135.7471
3696.432, 159.4980
3697.668, 42.34375
3698.904, 138.1826
3700.139, 163.0137
3701.373, 83.83887
3702.608, 76.65723
3703.843, 101.4697
3705.078, 273.2754
3706.311, 106.0771
3707.545, 103.8730
3708.780, 144.6621
3710.012, 187.4189
3711.246, 135.1963
3712.478, 108.9668
3713.712, 122.7324
3714.945, 173.4902
3716.177, 109.2432
3717.410, 125.9902
3718.641, 202.7314
3719.874, 57.46582
3721.105, 212.6709
3722.337, 155.3945
3723.567, 107.1143
3724.798, 114.8262
3726.030, 60.53418
3727.260, 117.2363
3728.491, 147.9307
3729.721, 40.62109
3730.950, 124.3057
3732.182, 100.9893
3733.411, 130.6670
3734.640, 157.2598
3735.868, 107.9336
3737.099, 156.6025
3738.327, 150.2646
3739.555, 20.92383
3740.783, 176.5762
3742.013, 174.2227
3743.241, 173.8691
3744.469, 24.51074
3745.696, 94.14648
3746.923, 207.7363
3748.150, 109.3555
3749.377, 122.9775
3750.604, 80.59473
3751.831, 224.2070
3753.057, 125.7832
3754.283, 137.6211
3755.509, 186.2197
3756.735, 164.6660
3757.961, 162.2559
3759.186, 150.8408
3760.412, 253.3877
3761.637, 158.0000
3762.862, 192.6084
3764.087, 88.21387
3765.310, 221.8145
3766.534, 205.4121
3767.759, 18.00586
3768.983, 67.60156
3770.207, 208.1953
3771.429, 149.7012
3772.652, 192.2988
3773.876, 265.8926
3775.099, 117.4844
3776.321, 32.06934
3777.544, 264.4053
3778.765, 231.9834
3779.987, 195.5645
3781.210, 92.95703
3782.430, 204.5283
3783.653, 99.10059
3784.873, 151.6689
3786.094, 282.9609
3787.314, 190.5361
3788.536, 173.1104
3789.755, 211.7354
3790.977, 109.3037
3792.196, 74.86816
3793.417, 83.18555
3794.635, 12.75977
3795.856, 73.03711
3797.074, 113.5918
3798.293, 30.17285
3799.513, 137.7529
3800.731, 74.44141
3801.948, 184.9854
3803.166, 21.03906
3804.385, 149.5674
3805.603, 163.5996
3806.820, 71.03027
3808.037, 70.61230
3809.256, 27.80664
3810.472, 134.2119
3811.689, 182.3857
3812.905, 130.0225
3814.121, 108.5088
3815.337, 123.1338
3816.553, 61.81543
3817.769, 37.77637
3818.984, 42.36035
3820.199, 217.8320
3821.415, 92.21387
3822.630, 143.6953
3823.844, 219.9121
3825.059, 161.4990
3826.273, 75.08398
3827.488, 117.6572
3828.702, 224.5596
3829.916, 133.9141
3831.130, 76.49609
3832.344, 60.90430
3833.557, 66.41113
3834.768, 53.00098
3835.981, 30.58984
3837.194, 33.82129
3838.407, 44.30664
3839.618, 115.8779
3840.831, 102.4531
3842.043, 28.02930
3843.255, 43.60449
3844.465, 228.0527
3845.677, 50.62695
3846.887, 78.20215
3848.098, 234.7754
3849.310, 158.3486
3850.519, 167.9219
3851.730, 43.09082
3852.939, 53.66211
3854.150, 51.23438
3855.358, 54.80762
3856.569, 209.4453
3857.777, 56.01660
3858.987, 73.58887
3860.195, 157.1602
3861.405, 139.7324
3862.613, 94.30469
3863.820, 76.88086
3865.029, 130.4531
3866.236, 31.01172
3867.443, 218.5469
3868.652, 73.10547
3869.859, 43.69434
3871.065, 18.25391
3872.271, 74.79199
3873.479, 53.35059
3874.686, 72.91016
3875.891, 83.37109
3877.097, 111.9932
3878.302, 143.5537
3879.508, 102.3418
3880.715, 145.9043
3881.920, 175.4658
3883.125, 111.0312
3884.330, 62.59668
3885.534, 106.9932
3886.739, 57.55957
3887.943, 152.1260
3889.147, 136.6924
3890.351, 209.1133
3891.554, 106.6797
3892.758, 77.24902
3893.961, 96.81738
3895.163, 72.38672
3896.366, 110.9570
3897.569, 81.52734
3898.771, 26.90039
3899.974, 64.66016
3901.177, 95.22168
3902.377, 131.7832
3903.579, 96.34863
3904.781, 65.43457
3905.983, 27.85449
3907.182, 24.41992
3908.384, 59.98438
3909.585, 64.57227
3910.784, 140.1387
3911.985, 55.70605
3913.186, 73.13867
3914.385, 53.70703
3915.585, 109.7520
3916.784, 43.32129
3917.984, 94.89258
3919.182, 160.4639
3920.382, 107.0361
3921.580, 123.5283
3922.779, 128.1025
3923.977, 143.6768
3925.176, 29.25195
3926.373, 96.82910
3927.570, 121.4170
3928.769, 108.9961
3929.965, 39.57422
3931.164, 107.8086
3932.360, 162.3896
3933.556, 101.9717
3934.752, 167.5752
3935.950, 160.1797
3937.146, 138.7891
3938.341, 88.39844
3939.536, 169.8906
3940.733, 117.5029
3941.928, 96.11621
3943.123, 48.68750
3944.318, 21.69727
3945.513, 64.90723
3946.707, 9.513672
3947.901, 73.06738
3949.095, 91.68945
3950.289, 116.3164
3951.483, 86.94336
3952.676, 130.5713
3953.870, 11.23926
3955.063, 133.9648
3956.256, 0.4091800
3957.449, 83.22266
3958.642, 122.8652
3959.835, 27.50879
3961.027, 70.57910
3962.219, 156.2305
3963.409, 21.88184
3964.602, 84.53418
3965.793, 94.18848
3966.985, 96.84375
3968.177, 171.5020
3969.366, 92.15820
3970.557, 128.8350
3971.748, 11.47852
3972.937, 82.25098
3974.128, 97.93555
3975.318, 43.62305
3976.507, 120.3125
3977.697, 55.01074
3978.887, 96.70996
3980.075, 136.4102
3981.265, 77.38477
3982.453, 129.0879
3983.642, 121.7949
3984.829, 60.50391
3986.019, 196.2129
3987.206, 139.9219
3988.393, 26.63281
3989.581, 48.34375
3990.768, 133.0557
3991.956, 94.76855
3993.142, 98.48145
3994.328, 12.80566
3995.516, 29.90234
3996.702, 96.61133
3997.888, 121.3281
3999.075, 2.045898
4000.260, 72.76270
4001.445, 109.4824
4002.630, 49.20117
4003.815, 30.91895
4005.002, 23.63867
4006.186, 17.35938
4007.371, 137.0801
4008.555, 196.8008
4009.739, 102.0459
4010.923, 57.76855
4012.107, 10.52344
4013.290, 74.24609
4014.474, 76.96875
4015.657, 50.69238
4016.840, 30.41699
4018.023, 39.14062
4019.206, 20.13379
4020.388, 102.5830
4021.571, 22.65234
4022.753, 125.0537
4023.935, 86.75977
4025.115, 169.0684
4026.297, 77.77930
4027.479, 25.49023
4028.660, 94.20410
4029.842, 94.91602
4031.021, 44.62891
4032.202, 157.3428
4033.383, 74.05859
4034.562, 166.7744
4035.742, 62.48926
4036.923, 36.20508
4038.101, 124.9219
4039.281, 68.63867
4040.461, 109.3564
4041.639, 219.8389
4042.819, 53.55664
4043.996, 112.2793
4045.176, 61.99902
4046.353, 42.28320
4047.531, 31.58594
4048.708, 24.09570
4049.887, 93.77734
4051.064, 16.46094
4052.242, 92.14355
4053.418, 51.84375
4054.595, 18.54395
4055.773, 53.24512
4056.948, 25.05176
4058.124, 41.63867
4059.302, 64.32812
4060.477, 27.01855
4061.652, 33.72168
4062.827, 63.42383
4064.002, 56.12793
4065.179, 46.83105
4066.354, 57.53320
4067.528, 56.23730
4068.702, 20.94141
4069.876, 234.6465
4071.050, 95.35156
4072.224, 26.94434
4073.398, 101.7471
4074.571, 66.43848
4075.747, 115.1299
4076.920, 116.8232
4078.091, 72.35449
4079.264, 60.04590
4080.437, 125.7363
4081.609, 70.42773
4082.781, 90.11914
4083.954, 62.81055
4085.126, 62.50195
4086.298, 100.0791
4087.469, 45.77051
4088.639, 116.4209
4089.811, 118.1133
4090.982, 162.9385
4092.153, 169.6289
4093.323, 115.3193
4094.493, 2.009766
4095.664, 56.79297
4096.833, 68.87109
4098.003, 123.4141
4099.173, 144.6094
4100.341, 238.2734
4101.511, 131.9375
4102.681, 98.61523
4103.849, 95.29199
4105.019, 105.9678
4106.186, 86.64258
4107.355, 152.4014
4108.522, 48.07520
4109.691, 62.74805
4110.858, 88.68750
4112.024, 132.6621
4113.193, 23.81055
4114.359, 61.47656
4115.525, 145.6572
4116.693, 124.3262
4117.859, 128.9951
4119.025, 44.69629
4120.192, 60.36230
4121.358, 152.0254
4122.523, 185.6953
4123.688, 162.4736
4124.855, 188.1406
4126.020, 145.8047
4127.185, 203.4678
4128.349, 111.1289
4129.513, 104.7871
4130.677, 151.4463
4131.841, 151.1025
4133.005, 102.7549
4134.169, 177.4072
4135.334, 206.4600
4136.498, 69.10742
4137.659, 186.7100
4138.823, 148.3525
4139.985, 192.9277
4141.148, 168.5645
4142.311, 167.2041
4143.473, 135.8398
4144.636, 149.4707
4145.798, 133.2412
4146.960, 68.86230
4148.120, 44.48438
4149.282, 75.10645
4150.443, 111.7344
4151.604, 34.36328
4152.764, 74.98535
4153.925, 112.6133
4155.086, 98.23926
4156.247, 52.86426
4157.406, 185.4873
4158.566, 153.1094
4159.725, 98.67090
4160.885, 31.29199
4162.045, 79.68652
4163.203, 161.4658
4164.363, 2.913086
4165.521, 166.3721
4166.680, 155.9893
4167.837, 116.6064
4168.997, 103.2227
4170.154, 72.83789
4171.311, 124.4531
4172.469, 147.1670
4173.626, 99.78223
4174.784, 124.3955
4175.940, 84.00977
4177.097, 48.62305
4178.253, 162.2373
4179.411, 84.85059
4180.566, 117.4619
4181.722, 182.0791
4182.877, 44.69043
4184.035, 174.3008
4185.189, 149.9111
4186.344, 187.9990
4187.500, 158.8086
4188.654, 184.4170
4189.809, 101.0254
4190.963, 99.61328
4192.117, 213.2959
4193.271, 163.8994
4194.425, 141.4902
4195.579, 249.2920
4196.732, 79.41797
4197.886, 118.0195
4199.039, 187.5918
4200.192, 130.0498
4201.345, 137.6016
4202.498, 75.15234
4203.651, 177.7012
4204.804, 56.25000
4205.954, 106.7969
4207.106, 102.5869
4208.258, 134.1221
4209.410, 122.7061
4210.560, 66.25000
4211.712, 164.1387
4212.863, 125.0684
4214.015, 139.5938
4215.164, 111.1172
4216.315, 3.361328
4217.464, 102.1553
4218.615, 89.67188
4219.766, 192.1865
4220.914, 189.7012
4222.064, 157.2148
4223.212, 122.8066
4224.363, 107.4131
4225.510, 63.92676
4226.660, 107.4326
4227.808, 139.0283
4228.956, 22.53223
4230.104, 115.0400
4231.251, 82.53906
4232.401, 170.0371
4233.547, 123.4287
4234.694, 163.3467
4235.843, 97.84180
4236.989, 1.450195
4238.136, 126.9395
4239.282, 77.37695
4240.430, 159.8105
4241.576, 86.23730
4242.721, 75.66211
4243.867, 97.04492
4245.012, 31.42285
4246.158, 87.79688
4247.303, 81.16406
4248.447, 57.47363
4249.592, 26.13965
4250.737, 51.17871
4251.882, 83.44922
4253.026, 2.761719
4254.170, 83.37695
4255.314, 69.70215
4256.458, 44.99219
4257.602, 90.27441
4258.746, 56.54785
4259.889, 73.81641
4261.032, 27.07617
4262.176, 115.3232
4263.317, 84.56543
4264.459, 118.8008
4265.602, 130.0322
4266.745, 67.25586
4267.885, 72.57812
4269.027, 90.79492
4270.170, 89.95703
4271.312, 130.1094
4272.452, 179.2529
4273.593, 93.38965
4274.733, 19.48145
4275.875, 67.62793
4277.016, 149.7197
4278.155, 99.79883
4279.296, 51.91309
4280.435, 51.97754
4281.576, 61.03320
4282.714, 23.07617
4283.854, 54.11230
4284.993, 53.15039
4286.131, 164.7344
4287.271, 60.28516
4288.409, 72.86523
4289.546, 47.44727
4290.686, 79.02539
4291.823, 163.5625
4292.960, 83.15918
4294.100, 62.10645
4295.237, 116.6885
4296.374, 103.2676
4297.510, 179.8457
4298.647, 57.42090
4299.785, 23.99609
4300.921, 143.5684
4302.058, 3.139648
4303.193, 139.7041
4304.329, 204.2852
4305.465, 156.8955
4306.601, 112.5059
4307.736, 101.0732
4308.871, 33.63867
4310.006, 83.21777
4311.141, 161.7793
4312.276, 76.32422
4313.411, 111.8691
4314.545, 84.41309
4315.679, 155.9531
4316.812, 139.5010
4317.946, 150.0537
4319.080, 111.4844
4320.213, 158.0234
4321.347, 108.5625
4322.479, 73.10059
4323.612, 46.63574
4324.745, 134.1689
4325.876, 191.5088
4327.009, 138.0391
4328.142, 48.40723
4329.272, 136.3789
4330.405, 98.94531
4331.537, 27.51270
4332.667, 106.0830
4333.799, 169.5254
4334.930, 82.34570
4336.061, 32.86523
4337.191, 105.7412
4338.322, 105.1572
4339.452, 106.5166
4340.581, 97.93555
4341.712, 58.16797
4342.841, 18.59082
4343.971, 160.0166
4345.101, 44.44531
4346.229, 87.88086
4347.357, 59.32227
4348.487, 10.08887
4349.615, 105.4883
4350.743, 84.88379
4351.871, 60.02051
4353.000, 86.44238
4354.128, 118.8623
4355.255, 149.2236
4356.383, 182.6260
4357.510, 63.02734
4358.637, 34.42480
4359.763, 32.81250
4360.890, 155.8291
4362.017, 143.6406
4363.143, 32.95996
4364.269, 98.26562
4365.395, 51.31543
4366.521, 189.5859
4367.647, 96.84473
4368.772, 119.0859
4369.898, 147.3232
4371.023, 134.5566
4372.148, 31.62012
4373.271, 163.8154
4374.396, 106.9668
4375.521, 100.8379
4376.646, 101.0479
4377.768, 251.9121
4378.893, 54.44922
4380.017, 63.20508
4381.141, 106.9219
4382.263, 39.72168
4383.387, 72.16602
4384.508, 44.22070
4385.632, 113.7607
4386.755, 69.24707
4387.876, 56.66113
4389.000, 14.00000
4390.120, 21.46094
4391.243, 83.63086
4392.364, 158.2871
4393.484, 91.23145
4394.606, 106.0928
4395.727, 81.81836
4396.849, 46.72852
4397.969, 106.7266
4399.089, 104.6572
4400.210, 32.01367
4401.330, 81.33887
4402.450, 6.704102
4403.569, 120.0830
4404.689, 33.83008
4405.809, 97.02637
4406.927, 101.4033
4408.046, 75.66309
4409.165, 121.8662
4410.283, 21.83008
4411.403, 66.76855
4412.521, 25.35156
4413.640, 1.417969
4414.757, 106.6807
4415.875, 81.94336
4416.993, 85.64551
4418.110, 0.9355470
4419.227, 0.0000000E+00
##END=



