##NAMES=Katoptrite
##RRUFFID=R140009
##IDEAL CHEMISTRY=Mn^2+^_13_Al_4_Sb^5+^_2_O_20_(SiO_4_)_2_
##LOCALITY=Brattfors mine, Nordmark, Filipstad, VÃ¤rmland, Sweden
##OWNER=RRUFF
##SOURCE=Rock Currier
##DESCRIPTION=Tiny grains of thin black splinters or flakes
##STATUS=The identification of this mineral has been confirmed by single-crystal X-ray diffraction.
##URL=rruff.info/R140009
97.82745, 0.0000000E+00
98.30956, 0.4663090
98.79168, 1.518646
99.27380, 2.726593
99.75591, 3.018494
100.2380, 2.504883
100.7201, 3.114868
101.2023, 5.207886
101.6844, 6.491272
102.1665, 6.429382
102.6486, 4.568268
103.1307, 1.911652
103.6128, 0.1528930
104.0950, 0.4003910
104.5771, 2.1240000E-02
105.0592, 1.025757
105.5413, 2.090637
106.0234, 2.830292
106.5055, 2.971069
106.9877, 2.752167
107.4698, 3.310913
107.9519, 5.621429
108.4340, 7.478546
108.9161, 7.871490
109.3982, 7.069763
109.8804, 5.939575
110.3625, 4.954529
110.8446, 3.855286
111.3267, 3.282013
111.8088, 3.097229
112.2909, 3.710785
112.7731, 5.539978
113.2552, 8.389496
113.7373, 11.67981
114.2194, 14.59155
114.7015, 16.69891
115.1836, 19.38867
115.6658, 23.54819
116.1479, 27.85526
116.6300, 31.03561
117.1121, 32.63879
117.5942, 33.04895
118.0763, 33.15921
118.5584, 32.80017
119.0406, 31.98465
119.5227, 31.09967
120.0048, 30.18579
120.4869, 29.07666
120.9690, 27.33713
121.4511, 25.23233
121.9333, 23.06146
122.4154, 20.50284
122.8975, 18.61243
123.3796, 17.73303
123.8617, 18.21613
124.3438, 18.52161
124.8260, 18.16455
125.3081, 17.22934
125.7902, 15.60760
126.2723, 13.28793
126.7544, 10.71631
127.2365, 8.724915
127.7187, 7.759155
128.2008, 7.170197
128.6829, 6.780090
129.1650, 6.618683
129.6471, 6.727997
130.1292, 7.129364
130.6114, 7.754272
131.0935, 8.016205
131.5756, 7.554443
132.0577, 7.129196
132.5398, 7.058060
133.0219, 7.219391
133.5041, 7.284698
133.9862, 6.950104
134.4683, 6.134338
134.9504, 5.262344
135.4325, 4.196701
135.9146, 3.211182
136.3968, 2.474045
136.8789, 1.982651
137.3610, 1.584259
137.8431, 1.080261
138.3252, 0.3855290
138.8073, 0.1689610
139.2895, 0.8798520
139.7716, 1.918213
140.2537, 2.658035
140.7358, 2.990387
141.2179, 2.935623
141.7000, 2.328995
142.1821, 1.218994
142.6643, 0.2315980
143.1464, 0.3412480
143.6285, 0.5478520
144.1106, 0.7162020
144.5927, 1.008621
145.0748, 1.177475
145.5570, 0.9500120
146.0391, 0.3200530
146.5212, 0.2675930
147.0033, 0.2681270
147.4854, 0.4168850
147.9675, 0.6970980
148.4497, 0.2147980
148.9318, 1.254105
149.4139, 1.887741
149.8960, 2.005753
150.3781, 1.731842
150.8602, 1.132767
151.3424, 0.1371920
151.8245, 0.9348750
152.3066, 0.9538270
152.7887, 0.6877590
153.2708, 0.4570470
153.7529, 0.4110260
154.2351, 0.5307920
154.7172, 0.7203370
155.1993, 1.059586
155.6814, 0.4880830
156.1635, 5.0354000E-02
156.6456, 0.5676730
157.1278, 1.109131
157.6099, 1.703964
158.0920, 2.296799
158.5741, 2.635162
159.0562, 2.651199
159.5383, 2.544601
160.0205, 2.180740
160.5026, 1.706329
160.9847, 1.447449
161.4668, 1.587677
161.9489, 2.113602
162.4310, 2.906418
162.9131, 4.262268
163.3953, 5.571945
163.8774, 6.453125
164.3595, 6.933716
164.8416, 7.325256
165.3237, 7.859192
165.8058, 8.435959
166.2880, 8.807800
166.7701, 8.868759
167.2522, 8.758957
167.7343, 8.598221
168.2164, 8.363968
168.6985, 8.185425
169.1807, 8.100403
169.6628, 8.138428
170.1449, 8.375839
170.6270, 8.900375
171.1091, 9.621994
171.5912, 10.38890
172.0734, 11.36017
172.5555, 12.05058
173.0376, 12.12526
173.5197, 11.88496
174.0018, 11.73360
174.4839, 11.91769
174.9661, 12.39162
175.4482, 12.89186
175.9303, 13.47858
176.4124, 14.02470
176.8945, 14.50948
177.3766, 14.93274
177.8588, 15.30345
178.3409, 15.63036
178.8230, 15.91495
179.3051, 16.08643
179.7872, 15.95378
180.2693, 15.88985
180.7515, 16.09076
181.2336, 16.47882
181.7157, 16.84023
182.1978, 16.98210
182.6799, 16.87482
183.1620, 16.75830
183.6441, 16.72165
184.1263, 16.58624
184.6084, 16.17963
185.0905, 15.54883
185.5726, 14.93735
186.0547, 14.53363
186.5368, 14.35799
187.0190, 14.52930
187.5011, 15.61465
187.9832, 16.65538
188.4653, 16.75369
188.9474, 15.85002
189.4296, 14.85805
189.9117, 14.69421
190.3938, 15.35753
190.8759, 16.03699
191.3580, 16.61786
191.8401, 17.18509
192.3223, 17.89148
192.8044, 18.79477
193.2865, 19.62137
193.7686, 19.96585
194.2507, 19.98074
194.7328, 20.13309
195.2150, 20.67035
195.6971, 21.41960
196.1792, 22.03860
196.6613, 22.49481
197.1434, 22.91389
197.6255, 23.44702
198.1077, 24.00223
198.5898, 24.32938
199.0719, 24.13448
199.5540, 23.55403
200.0361, 23.24973
200.5182, 23.53491
201.0004, 23.62999
201.4825, 22.97107
201.9646, 21.82051
202.4467, 20.82803
202.9288, 20.57492
203.4109, 21.02408
203.8930, 21.18414
204.3752, 20.73286
204.8573, 20.26622
205.3394, 19.96046
205.8215, 19.81723
206.3036, 19.83627
206.7857, 20.02734
207.2679, 20.40782
207.7500, 20.24286
208.2321, 18.58348
208.7142, 17.20706
209.1963, 16.86194
209.6784, 17.30142
210.1606, 17.81944
210.6427, 17.73991
211.1248, 16.96532
211.6069, 16.41051
212.0890, 16.01793
212.5711, 15.85106
213.0533, 16.09314
213.5354, 16.67094
214.0175, 17.22563
214.4996, 17.39026
214.9817, 17.07072
215.4638, 16.97641
215.9460, 17.29082
216.4281, 17.61888
216.9102, 17.72066
217.3923, 17.61768
217.8744, 17.50766
218.3565, 17.58315
218.8387, 17.87961
219.3208, 18.16095
219.8029, 18.46680
220.2850, 18.73834
220.7671, 18.90021
221.2492, 18.97237
221.7314, 19.10027
222.2135, 19.44394
222.6956, 20.00981
223.1777, 20.32516
223.6598, 20.12910
224.1419, 19.86604
224.6240, 19.89920
225.1062, 20.23706
225.5883, 20.61238
226.0704, 20.84457
226.5525, 20.92815
227.0346, 20.89383
227.5167, 20.61368
227.9989, 20.28880
228.4810, 20.13040
228.9631, 20.15596
229.4452, 20.20990
229.9273, 20.30078
230.4094, 20.32559
230.8916, 19.99315
231.3737, 18.82980
231.8558, 17.51665
232.3379, 16.93327
232.8200, 17.18661
233.3021, 17.43953
233.7843, 17.13054
234.2664, 16.47701
234.7485, 15.77072
235.2306, 15.05177
235.7127, 14.33475
236.1948, 13.57066
236.6770, 12.68642
237.1591, 12.04671
237.6412, 12.09192
238.1233, 12.40538
238.6054, 12.54042
239.0875, 12.33263
239.5697, 11.93004
240.0518, 11.49008
240.5339, 10.90678
241.0160, 10.62854
241.4981, 11.24544
241.9802, 12.06477
242.4624, 12.31633
242.9445, 11.61569
243.4266, 10.62724
243.9087, 10.63826
244.3908, 12.16591
244.8729, 13.27777
245.3550, 13.05098
245.8372, 12.41969
246.3193, 12.19568
246.8014, 12.66417
247.2835, 13.43626
247.7656, 13.84575
248.2477, 13.75830
248.7299, 13.62064
249.2120, 13.48103
249.6941, 13.34822
250.1762, 13.20584
250.6583, 13.05348
251.1404, 12.95251
251.6226, 13.06909
252.1047, 13.67227
252.5868, 13.84846
253.0689, 13.25050
253.5510, 12.45140
254.0331, 11.80568
254.5153, 11.42017
254.9974, 11.22633
255.4795, 11.16893
255.9616, 11.45935
256.4437, 11.40506
256.9258, 10.66278
257.4080, 9.874222
257.8901, 9.527405
258.3722, 9.677872
258.8543, 9.957916
259.3364, 9.835037
259.8185, 9.015823
260.3007, 8.535873
260.7828, 8.733276
261.2649, 8.940201
261.7470, 8.692627
262.2291, 7.971436
262.7112, 7.113235
263.1934, 6.497757
263.6755, 6.190948
264.1576, 5.909622
264.6397, 5.730392
265.1218, 5.511719
265.6039, 5.165863
266.0861, 4.691345
266.5682, 4.135651
267.0503, 3.520477
267.5324, 2.802032
268.0145, 2.384796
268.4966, 2.610138
268.9788, 2.757355
269.4609, 2.373489
269.9430, 1.557404
270.4251, 0.7520600
270.9072, 0.3276980
271.3893, 0.3056030
271.8715, 0.2225270
272.3536, 5.4313999E-02
272.8357, 0.1417010
273.3178, 0.4022980
273.7999, 0.6768490
274.2820, 0.8317180
274.7642, 0.7599490
275.2463, 0.4871220
275.7284, 0.3212970
276.2105, 0.3019030
276.6926, 0.3155440
277.1747, 0.3197170
277.6568, 0.3304290
278.1389, 0.4009250
278.6211, 0.5747680
279.1032, 0.8086090
279.5853, 0.9103550
280.0674, 0.9747390
280.5495, 0.8338620
281.0316, 0.2928850
281.5138, 0.4645460
281.9959, 1.168617
282.4780, 1.735634
282.9601, 2.082123
283.4422, 1.897263
283.9243, 0.7222520
284.4065, 4.3800000E-02
284.8886, 0.1855390
285.3707, 0.9155880
285.8528, 1.437462
286.3349, 1.518890
286.8170, 1.332779
287.2992, 1.100700
287.7813, 0.7120060
288.2634, 0.6409680
288.7455, 1.199455
289.2276, 2.022812
289.7097, 2.696228
290.1919, 3.127342
290.6740, 3.388245
291.1561, 3.509247
291.6382, 3.452805
292.1203, 3.557503
292.6024, 3.999374
293.0846, 4.539528
293.5667, 4.930374
294.0488, 5.140785
294.5309, 5.328690
295.0130, 5.671936
295.4951, 6.168411
295.9773, 6.491806
296.4594, 6.429367
296.9415, 6.333206
297.4236, 6.527687
297.9057, 6.999290
298.3878, 7.420204
298.8700, 7.457405
299.3521, 7.253456
299.8342, 7.592644
300.3163, 9.370834
300.7984, 10.86256
301.2805, 10.85056
301.7627, 9.593437
302.2448, 8.254601
302.7269, 7.315414
303.2090, 6.796288
303.6911, 6.712975
304.1732, 7.420364
304.6554, 7.952080
305.1375, 7.618652
305.6196, 6.764397
306.1017, 6.384346
306.5838, 7.001228
307.0659, 7.951775
307.5481, 7.870956
308.0302, 6.543709
308.5123, 5.389275
308.9944, 4.954483
309.4765, 4.954681
309.9586, 4.980782
310.4408, 4.960266
310.9229, 4.909355
311.4050, 4.781898
311.8871, 4.544975
312.3692, 4.433517
312.8513, 4.565529
313.3335, 4.829254
313.8156, 5.147385
314.2977, 5.530792
314.7798, 5.881905
315.2619, 6.023827
315.7440, 5.962952
316.2262, 6.069092
316.7083, 6.455185
317.1904, 6.891640
317.6725, 7.290352
318.1546, 7.674019
318.6367, 7.963478
319.1188, 8.038902
319.6010, 7.962303
320.0831, 8.077034
320.5652, 8.668739
321.0473, 9.132988
321.5294, 9.008759
322.0115, 8.485321
322.4937, 8.183838
322.9758, 8.453201
323.4579, 8.980545
323.9400, 9.013588
324.4221, 8.416855
324.9042, 7.780998
325.3864, 7.233879
325.8685, 6.793152
326.3506, 6.536644
326.8327, 6.524147
327.3148, 6.564972
327.7969, 6.345840
328.2791, 5.842789
328.7612, 5.319710
329.2433, 4.755112
329.7254, 4.230293
330.2075, 3.858376
330.6896, 3.657364
331.1718, 3.525078
331.6539, 3.375328
332.1360, 3.209267
332.6181, 3.015549
333.1002, 2.773277
333.5823, 2.524940
334.0645, 2.259308
334.5466, 1.994965
335.0287, 1.841087
335.5108, 1.914726
335.9929, 2.164757
336.4750, 2.219795
336.9572, 1.983749
337.4393, 1.678085
337.9214, 1.339378
338.4035, 1.004936
338.8856, 0.7465590
339.3677, 0.5775990
339.8499, 0.5102460
340.3320, 0.6226200
340.8141, 1.080803
341.2962, 1.387405
341.7783, 1.304176
342.2604, 1.065262
342.7426, 0.9968800
343.2247, 1.192551
343.7068, 1.481117
344.1889, 1.620026
344.6710, 1.528175
345.1531, 1.513588
345.6353, 1.628380
346.1174, 1.786606
346.5995, 1.946999
347.0816, 2.095680
347.5637, 2.199135
348.0458, 2.201340
348.5280, 2.091583
349.0101, 2.176003
349.4922, 2.750648
349.9743, 3.190300
350.4564, 3.158699
350.9385, 2.779366
351.4207, 2.325844
351.9028, 1.936401
352.3849, 1.642029
352.8670, 1.586082
353.3491, 2.020905
353.8312, 2.379868
354.3134, 2.616074
354.7955, 2.732437
355.2776, 2.694878
355.7597, 2.497292
356.2418, 2.249069
356.7239, 2.144730
357.2061, 2.338158
357.6882, 2.354736
358.1703, 2.015472
358.6524, 1.649162
359.1345, 1.480011
359.6166, 1.522316
360.0987, 1.664658
360.5808, 1.813820
361.0630, 1.980423
361.5451, 2.040970
362.0272, 2.015182
362.5093, 1.871742
362.9914, 1.419258
363.4735, 0.8533020
363.9557, 0.5954510
364.4378, 0.9398730
364.9199, 1.667320
365.4020, 1.816139
365.8841, 0.7288280
366.3662, 4.7713999E-02
366.8484, 0.1285550
367.3305, 6.6367999E-02
367.8126, 0.1004260
368.2947, 0.1592640
368.7768, 0.4949340
369.2589, 0.5460430
369.7411, 0.1763080
370.2232, 0.1093060
370.7053, 0.4310150
371.1874, 0.5621950
371.6695, 0.2459180
372.1516, 0.4260860
372.6338, 1.083961
373.1159, 1.431541
373.5980, 1.471710
374.0801, 1.247971
374.5622, 0.3751300
375.0443, 0.2829060
375.5265, 0.3383640
376.0086, 3.2295000E-02
376.4907, 0.2804490
376.9728, 0.4457020
377.4549, 0.4800870
377.9370, 0.3779600
378.4192, 4.4571001E-02
378.9013, 0.1542740
379.3834, 9.3497999E-02
379.8655, 0.3848110
380.3476, 0.3570940
380.8297, 5.7564002E-02
381.3119, 0.5358960
381.7940, 0.7313230
382.2761, 0.6511000
382.7582, 0.6125260
383.2403, 0.6476360
383.7224, 0.7497410
384.2046, 0.8992690
384.6867, 1.099365
385.1688, 1.368401
385.6509, 1.742729
386.1330, 2.184036
386.6151, 2.618393
387.0973, 3.040733
387.5794, 3.493439
388.0615, 4.112885
388.5436, 4.738129
389.0257, 5.097809
389.5078, 5.012642
389.9900, 4.884567
390.4721, 5.129105
390.9542, 5.684799
391.4363, 6.116310
391.9184, 6.278297
392.4005, 6.283279
392.8827, 6.252632
393.3648, 6.178467
393.8469, 6.179520
394.3290, 6.356461
394.8111, 6.612045
395.2932, 6.780922
395.7754, 6.838707
396.2575, 6.914307
396.7396, 7.187035
397.2217, 7.617302
397.7038, 7.790543
398.1859, 7.414520
398.6681, 7.024597
399.1501, 7.027222
399.6323, 7.328186
400.1144, 7.558594
400.5965, 7.519722
401.0786, 7.317902
401.5607, 7.256485
402.0428, 7.356384
402.5250, 7.527527
403.0071, 7.920441
403.4892, 8.301605
403.9713, 8.313789
404.4534, 7.899506
404.9355, 7.425705
405.4177, 7.339577
405.8998, 7.750031
406.3819, 8.012970
406.8640, 7.937019
407.3461, 7.917038
407.8282, 8.226662
408.3104, 8.755630
408.7925, 9.207794
409.2746, 9.400520
409.7567, 9.381195
410.2388, 9.373711
410.7209, 9.402580
411.2031, 9.415634
411.6852, 9.302673
412.1673, 9.228210
412.6494, 9.392838
413.1315, 9.828491
413.6136, 10.34564
414.0958, 10.68429
414.5779, 10.79162
415.0600, 10.94441
415.5421, 11.13682
416.0242, 11.37905
416.5063, 11.75003
416.9885, 12.18098
417.4706, 12.49487
417.9527, 12.53987
418.4348, 12.42578
418.9169, 12.54998
419.3990, 13.01447
419.8812, 13.49088
420.3633, 13.80021
420.8454, 14.10989
421.3275, 14.63345
421.8096, 15.43597
422.2917, 16.20001
422.7739, 16.56819
423.2560, 16.54211
423.7381, 16.37177
424.2202, 15.93125
424.7023, 15.57570
425.1844, 15.71133
425.6666, 16.17218
426.1487, 16.36768
426.6308, 15.80589
427.1129, 14.96581
427.5950, 14.61983
428.0771, 14.79430
428.5593, 14.95087
429.0414, 14.84485
429.5235, 14.47340
430.0056, 13.86507
430.4877, 12.85626
430.9698, 12.00117
431.4520, 11.82401
431.9341, 11.98964
432.4162, 11.76508
432.8983, 10.90271
433.3804, 9.871124
433.8625, 9.259277
434.3447, 9.142151
434.8268, 8.828018
435.3089, 8.146820
435.7910, 7.410706
436.2731, 6.854401
436.7552, 6.429916
437.2374, 5.921555
437.7195, 5.196243
438.2016, 4.358276
438.6837, 3.766647
439.1658, 3.745605
439.6479, 3.533905
440.1301, 2.903366
440.6122, 2.149597
441.0943, 1.538574
441.5764, 1.133499
442.0585, 0.8554380
442.5406, 0.6373900
443.0227, 0.5026250
443.5049, 0.2519530
443.9870, 0.2669220
444.4691, 0.7470700
444.9512, 1.131592
445.4333, 1.404633
445.9154, 1.531998
446.3976, 1.480927
446.8797, 1.347153
447.3618, 1.390274
447.8439, 1.752014
448.3260, 1.866058
448.8081, 1.325790
449.2903, 0.7248080
449.7724, 0.4647060
450.2545, 0.5491940
450.7366, 0.6743770
451.2187, 0.6373140
451.7008, 0.4544220
452.1830, 0.1685330
452.6651, 0.2745210
453.1472, 0.6777650
453.6293, 0.7844390
454.1114, 0.8110050
454.5935, 1.111526
455.0757, 1.890488
455.5578, 2.698212
456.0399, 3.050690
456.5220, 3.079605
457.0041, 3.396088
457.4862, 4.230347
457.9684, 5.290359
458.4505, 6.252731
458.9326, 7.126785
459.4147, 7.871017
459.8968, 8.441833
460.3789, 8.902832
460.8611, 9.264832
461.3432, 9.552917
461.8253, 9.846298
462.3074, 10.17319
462.7895, 10.56726
463.2716, 11.18773
463.7538, 12.21483
464.2359, 13.21605
464.7180, 14.17168
465.2001, 15.07262
465.6822, 15.93318
466.1643, 16.74664
466.6465, 17.43034
467.1286, 17.85950
467.6107, 17.98936
468.0928, 18.32924
468.5749, 19.11037
469.0570, 19.85574
469.5392, 20.39720
470.0213, 20.83122
470.5034, 21.34552
470.9855, 22.03117
471.4676, 22.70100
471.9497, 22.94972
472.4319, 22.63156
472.9140, 22.53868
473.3961, 23.10330
473.8782, 23.65063
474.3603, 23.70789
474.8424, 23.37238
475.3246, 23.12477
475.8067, 23.39513
476.2888, 23.89400
476.7709, 23.93132
477.2530, 23.43175
477.7351, 22.94707
478.2173, 22.75310
478.6994, 22.71761
479.1815, 22.64755
479.6636, 22.55484
480.1457, 22.35567
480.6278, 21.98065
481.1100, 21.47601
481.5920, 20.89154
482.0742, 20.23091
482.5563, 19.59822
483.0384, 19.05768
483.5205, 18.61967
484.0026, 18.33963
484.4847, 18.21501
484.9669, 18.23865
485.4490, 18.54353
485.9311, 18.96672
486.4132, 19.21700
486.8953, 19.18738
487.3774, 18.99686
487.8596, 18.80710
488.3417, 18.46997
488.8238, 18.56389
489.3059, 19.30135
489.7880, 20.18951
490.2701, 21.00842
490.7523, 21.78114
491.2344, 22.64093
491.7165, 23.68889
492.1986, 24.80769
492.6807, 25.62018
493.1628, 25.93727
493.6450, 26.46735
494.1271, 27.47391
494.6092, 28.65846
495.0913, 29.85609
495.5734, 31.04652
496.0555, 32.27420
496.5377, 33.56052
497.0198, 34.89874
497.5019, 36.25296
497.9840, 37.61256
498.4661, 39.04306
498.9482, 40.61639
499.4304, 42.29149
499.9125, 43.98669
500.3946, 45.73604
500.8767, 47.42476
501.3588, 48.93300
501.8409, 50.35905
502.3231, 51.94650
502.8052, 53.74664
503.2873, 55.54979
503.7694, 57.12405
504.2515, 58.47823
504.7336, 60.06870
505.2158, 62.14043
505.6979, 64.11792
506.1800, 65.75055
506.6621, 67.21878
507.1442, 68.79915
507.6263, 70.56738
508.1085, 72.28880
508.5906, 73.58359
509.0727, 74.32666
509.5548, 75.12503
510.0369, 76.02541
510.5190, 76.93161
511.0012, 77.96382
511.4833, 78.95073
511.9654, 79.58269
512.4475, 79.68942
512.9296, 79.42285
513.4117, 79.08261
513.8939, 78.70116
514.3760, 77.97127
514.8581, 76.61920
515.3402, 75.08604
515.8223, 73.79221
516.3044, 72.69164
516.7866, 71.45291
517.2687, 69.96931
517.7508, 68.24812
518.2329, 66.22473
518.7150, 63.91998
519.1971, 61.59398
519.6793, 59.38583
520.1614, 57.20639
520.6435, 54.89511
521.1256, 52.44434
521.6077, 49.89700
522.0898, 47.21059
522.5720, 44.47499
523.0541, 41.69241
523.5362, 38.93336
524.0183, 36.39450
524.5004, 34.24966
524.9825, 32.43333
525.4647, 30.55260
525.9468, 28.55016
526.4289, 26.58684
526.9110, 24.59720
527.3931, 22.69514
527.8752, 21.05737
528.3574, 19.65260
528.8395, 18.20671
529.3216, 16.37578
529.8037, 14.28073
530.2858, 12.65614
530.7679, 11.61842
531.2501, 10.79677
531.7322, 10.25728
532.2143, 9.748627
532.6964, 8.970444
533.1785, 7.848999
533.6606, 6.668076
534.1428, 5.580933
534.6249, 4.569275
535.1070, 3.511780
535.5891, 2.371002
536.0712, 1.493851
536.5533, 1.224701
537.0355, 1.461487
537.5176, 1.518875
537.9997, 1.377548
538.4818, 1.100021
538.9639, 0.5285030
539.4460, 9.0836003E-02
539.9282, 0.4259950
540.4103, 0.4227450
540.8924, 0.2982480
541.3745, 0.2889100
541.8566, 0.4029540
542.3387, 0.3418880
542.8209, 6.8709999E-02
543.3029, 0.4538420
543.7850, 0.7679140
544.2672, 1.003830
544.7493, 1.122772
545.2314, 1.123459
545.7135, 1.128769
546.1956, 1.302200
546.6777, 1.625458
547.1599, 1.859512
547.6420, 1.934296
548.1241, 2.041763
548.6062, 2.349854
549.0883, 2.759720
549.5704, 3.119461
550.0526, 3.398407
550.5347, 3.635849
551.0168, 3.826385
551.4989, 4.032074
551.9810, 4.333344
552.4631, 4.706818
552.9453, 5.125900
553.4274, 5.596313
553.9095, 6.134705
554.3916, 6.687805
554.8737, 7.000534
555.3558, 7.619919
555.8380, 8.886047
556.3201, 10.41405
556.8022, 11.74736
557.2843, 12.76801
557.7664, 13.64519
558.2485, 14.55232
558.7307, 15.49332
559.2128, 16.67831
559.6949, 18.16719
560.1770, 19.74638
560.6591, 21.49557
561.1412, 23.28488
561.6234, 24.85092
562.1055, 26.06816
562.5876, 27.38931
563.0697, 29.25566
563.5518, 31.55518
564.0339, 34.02158
564.5161, 36.72322
564.9982, 39.17180
565.4803, 40.80922
565.9624, 41.90192
566.4445, 43.64328
566.9266, 46.52502
567.4088, 49.35411
567.8909, 51.74493
568.3730, 53.84770
568.8551, 55.82493
569.3372, 57.71504
569.8193, 59.54846
570.3015, 61.28960
570.7836, 62.96817
571.2657, 65.04023
571.7478, 67.92468
572.2299, 70.65962
572.7120, 73.03915
573.1942, 75.25595
573.6763, 77.53884
574.1584, 79.90694
574.6405, 82.11572
575.1226, 83.92959
575.6047, 85.40595
576.0869, 86.68847
576.5690, 87.65862
577.0511, 88.94188
577.5332, 91.05166
578.0153, 93.51796
578.4974, 95.61296
578.9796, 97.31724
579.4617, 98.68253
579.9438, 99.66667
580.4259, 100.3585
580.9080, 100.7179
581.3901, 100.8273
581.8723, 101.1193
582.3544, 101.9057
582.8365, 103.0032
583.3186, 103.7961
583.8007, 104.2921
584.2828, 104.4413
584.7650, 104.1173
585.2471, 103.5788
585.7292, 103.0582
586.2113, 102.4866
586.6934, 101.6465
587.1755, 100.4644
587.6577, 98.81561
588.1398, 96.32162
588.6219, 92.87051
589.1040, 89.29574
589.5861, 85.76941
590.0682, 82.18144
590.5504, 78.46162
591.0325, 74.61848
591.5146, 70.73249
591.9967, 66.87891
592.4788, 62.96257
592.9609, 58.85999
593.4431, 54.66491
593.9252, 50.53831
594.4073, 46.52812
594.8894, 42.88199
595.3715, 40.00253
595.8536, 38.13103
596.3358, 35.91528
596.8179, 33.03819
597.3000, 30.22322
597.7821, 27.67534
598.2642, 25.35641
598.7463, 23.21664
599.2285, 21.22601
599.7106, 19.28082
600.1927, 17.11982
600.6748, 14.76272
601.1569, 13.00329
601.6390, 12.09573
602.1212, 11.32915
602.6033, 10.25367
603.0854, 9.080200
603.5675, 8.205620
604.0496, 7.815155
604.5317, 7.295525
605.0139, 6.099976
605.4960, 4.683586
605.9781, 3.782829
606.4602, 3.445503
606.9423, 3.164421
607.4244, 2.583252
607.9066, 1.766655
608.3887, 0.9896700
608.8708, 7.1877003E-02
609.3529, 0.5221100
609.8350, 0.4986880
610.3171, 0.3821560
610.7993, 0.5410160
611.2814, 0.9541930
611.7635, 1.418518
612.2456, 1.852623
612.7277, 2.183197
613.2098, 2.227524
613.6920, 1.966064
614.1741, 1.642181
614.6562, 1.231026
615.1383, 0.8871080
615.6204, 0.8519440
616.1025, 1.061249
616.5847, 1.108147
617.0668, 0.6524730
617.5489, 0.2655110
618.0310, 0.4624560
618.5131, 0.9668580
618.9952, 1.214371
619.4774, 1.038147
619.9595, 0.6392210
620.4416, 0.2305680
620.9237, 0.1963810
621.4058, 0.5219570
621.8879, 0.6152880
622.3701, 0.7684860
622.8522, 1.096115
623.3343, 1.481049
623.8164, 1.799095
624.2985, 2.027489
624.7806, 2.234360
625.2628, 2.420349
625.7448, 2.633453
626.2269, 3.032417
626.7090, 3.635246
627.1912, 4.258476
627.6733, 4.856995
628.1554, 5.393196
628.6375, 5.769188
629.1196, 5.948555
629.6017, 6.173203
630.0839, 6.513718
630.5660, 6.878914
631.0481, 7.181473
631.5302, 7.459106
632.0123, 7.823494
632.4944, 8.324738
632.9766, 8.878952
633.4587, 9.313118
633.9408, 9.571327
634.4229, 10.01479
634.9050, 10.80180
635.3871, 11.57245
635.8693, 12.21964
636.3514, 12.73566
636.8335, 13.05442
637.3156, 13.09422
637.7977, 13.23665
638.2798, 13.91720
638.7620, 14.83577
639.2441, 15.34708
639.7262, 15.39491
640.2083, 15.51545
640.6904, 16.03091
641.1725, 16.90289
641.6547, 18.01408
642.1368, 19.47987
642.6189, 21.02779
643.1010, 22.89320
643.5831, 24.62753
644.0652, 25.75756
644.5474, 26.52667
645.0295, 27.59471
645.5116, 29.32695
645.9937, 31.39227
646.4758, 33.20699
646.9579, 34.77539
647.4401, 36.64099
647.9222, 38.90678
648.4043, 41.41717
648.8864, 44.03704
649.3685, 46.81570
649.8506, 49.84205
650.3328, 53.26239
650.8149, 56.71590
651.2970, 60.00969
651.7791, 63.27946
652.2612, 66.57462
652.7433, 69.96185
653.2255, 73.64456
653.7076, 77.77626
654.1897, 82.30502
654.6718, 87.12604
655.1539, 92.38528
655.6360, 97.56949
656.1182, 102.5209
656.6003, 107.4402
657.0824, 112.5023
657.5645, 117.6687
658.0466, 122.6859
658.5287, 127.2951
659.0109, 131.9970
659.4930, 137.4508
659.9751, 143.3344
660.4572, 148.8141
660.9393, 153.7027
661.4214, 158.4883
661.9036, 163.5921
662.3857, 168.9829
662.8678, 174.3095
663.3499, 179.9366
663.8320, 185.0758
664.3141, 189.4275
664.7963, 193.4620
665.2784, 197.4813
665.7605, 201.4886
666.2426, 205.4426
666.7247, 209.4657
667.2068, 213.2238
667.6890, 216.0290
668.1711, 217.8822
668.6532, 219.8267
669.1353, 222.3180
669.6174, 224.3964
670.0995, 225.1106
670.5817, 224.5092
671.0638, 223.5141
671.5459, 222.2403
672.0280, 220.4954
672.5101, 218.1869
672.9922, 215.4093
673.4744, 212.1544
673.9565, 208.4723
674.4386, 204.5698
674.9207, 200.6254
675.4028, 196.5608
675.8849, 192.0654
676.3671, 187.0826
676.8492, 181.8076
677.3313, 175.9631
677.8134, 170.2199
678.2955, 165.1467
678.7776, 160.6098
679.2598, 156.1557
679.7419, 151.6895
680.2240, 147.2512
680.7061, 142.7939
681.1882, 138.4176
681.6703, 134.2845
682.1525, 130.4123
682.6346, 126.5693
683.1167, 122.5498
683.5988, 118.4268
684.0809, 114.5502
684.5630, 111.0930
685.0452, 107.5148
685.5273, 103.6623
686.0094, 99.76541
686.4915, 95.90775
686.9736, 92.11901
687.4557, 88.41074
687.9379, 84.73832
688.4200, 81.25749
688.9021, 78.31377
689.3842, 75.64719
689.8663, 72.56601
690.3484, 68.94165
690.8306, 65.43051
691.3127, 62.53682
691.7948, 60.16076
692.2769, 57.74802
692.7590, 55.36473
693.2411, 52.83049
693.7233, 49.85538
694.2054, 47.01233
694.6875, 44.75932
695.1696, 42.91028
695.6517, 40.95029
696.1339, 38.62057
696.6160, 36.20930
697.0981, 33.93442
697.5802, 31.83569
698.0623, 30.11055
698.5444, 28.82918
699.0266, 27.46420
699.5087, 25.57111
699.9908, 23.35500
700.4729, 21.63238
700.9550, 20.93728
701.4371, 19.93067
701.9193, 18.12376
702.4014, 16.43756
702.8835, 15.62299
703.3656, 15.34683
703.8477, 14.80508
704.3298, 13.64487
704.8120, 12.25129
705.2941, 11.07684
705.7762, 10.08974
706.2583, 9.090157
706.7404, 8.038933
707.2225, 7.157867
707.7046, 6.624451
708.1867, 6.308693
708.6688, 5.896202
709.1509, 5.432365
709.6331, 4.762611
710.1152, 3.512329
710.5973, 2.402039
711.0794, 2.001328
711.5615, 2.008110
712.0436, 1.827370
712.5258, 1.245239
713.0079, 0.5951610
713.4900, 0.3119130
713.9721, 0.3127980
714.4542, 0.1066440
714.9363, 0.3527530
715.4185, 0.8168030
715.9006, 1.216660
716.3827, 1.509987
716.8648, 1.582550
717.3469, 1.387558
717.8290, 1.278503
718.3112, 1.439911
718.7933, 1.527641
719.2754, 1.212326
719.7575, 0.7809600
720.2396, 0.6755220
720.7217, 0.9924390
721.2039, 1.456657
721.6860, 1.896484
722.1681, 2.245758
722.6502, 2.148224
723.1323, 1.530006
723.6144, 1.100769
724.0966, 1.211235
724.5787, 1.407982
725.0608, 1.073105
725.5429, 0.2188190
726.0250, 0.3124240
726.5071, 0.2160110
726.9893, 0.1076740
727.4714, 0.2255100
727.9535, 0.4399870
728.4356, 0.5540080
728.9177, 0.5809860
729.3998, 0.7457960
729.8820, 1.254944
730.3641, 1.930740
730.8462, 2.323593
731.3283, 2.417946
731.8104, 2.675926
732.2925, 3.265968
732.7747, 3.841164
733.2568, 4.018127
733.7389, 3.923409
734.2210, 4.215370
734.7031, 5.009560
735.1852, 5.999474
735.6674, 7.427299
736.1495, 8.786537
736.6316, 9.606491
737.1137, 9.991592
737.5958, 10.34764
738.0779, 10.88410
738.5601, 11.43495
739.0422, 11.62964
739.5243, 11.54243
740.0064, 11.96354
740.4885, 13.04463
740.9706, 14.21832
741.4528, 15.17987
741.9349, 16.02322
742.4170, 16.97311
742.8991, 18.10049
743.3812, 19.08914
743.8633, 19.84026
744.3455, 20.52459
744.8276, 21.21710
745.3097, 21.90891
745.7918, 22.48920
746.2739, 22.96022
746.7560, 23.65555
747.2382, 25.12700
747.7203, 27.03125
748.2024, 28.18116
748.6845, 28.55639
749.1666, 29.12605
749.6487, 30.23656
750.1309, 31.60712
750.6130, 32.97205
751.0951, 34.33019
751.5772, 35.54763
752.0593, 36.37424
752.5414, 37.38960
753.0236, 38.90997
753.5057, 40.53841
753.9878, 41.84644
754.4699, 42.88734
754.9520, 44.09007
755.4341, 45.76150
755.9163, 47.58372
756.3984, 49.13747
756.8805, 50.45715
757.3626, 51.64743
757.8447, 52.72424
758.3268, 53.72629
758.8090, 54.64158
759.2911, 55.54512
759.7732, 56.70761
760.2553, 58.50883
760.7374, 59.88414
761.2195, 60.63960
761.7017, 61.20786
762.1838, 61.86437
762.6659, 62.44627
763.1480, 62.62158
763.6301, 62.28459
764.1122, 61.88838
764.5944, 61.77428
765.0765, 61.80899
765.5586, 61.88328
766.0407, 61.93592
766.5228, 61.70106
767.0049, 61.07146
767.4871, 60.14548
767.9692, 58.98889
768.4513, 57.56477
768.9334, 56.62751
769.4155, 56.46060
769.8976, 56.31378
770.3798, 56.08719
770.8619, 55.75108
771.3440, 55.19914
771.8261, 54.50855
772.3082, 53.97860
772.7903, 53.69180
773.2725, 53.58936
773.7546, 53.83466
774.2367, 54.16400
774.7188, 54.05515
775.2009, 53.54863
775.6830, 53.18579
776.1652, 53.30317
776.6473, 53.81598
777.1294, 54.58659
777.6115, 55.67137
778.0936, 56.69518
778.5757, 57.63188
779.0579, 58.42975
779.5400, 58.96902
780.0221, 59.40111
780.5042, 59.99839
780.9863, 60.83994
781.4684, 61.70009
781.9506, 62.43394
782.4327, 63.18964
782.9148, 64.18594
783.3969, 65.31060
783.8790, 66.25877
784.3611, 66.95575
784.8433, 67.62099
785.3254, 68.58253
785.8075, 69.58946
786.2896, 69.73827
786.7717, 69.01363
787.2538, 68.50869
787.7360, 68.61346
788.2181, 68.63482
788.7002, 67.87251
789.1823, 66.43224
789.6644, 65.24178
790.1465, 64.50492
790.6286, 63.70660
791.1107, 62.95789
791.5928, 61.99980
792.0750, 60.47801
792.5571, 58.65076
793.0392, 57.11821
793.5213, 56.14938
794.0034, 55.06606
794.4855, 53.02226
794.9677, 50.56048
795.4498, 48.86551
795.9319, 47.84735
796.4140, 46.49091
796.8961, 44.35101
797.3782, 41.90443
797.8604, 39.82015
798.3425, 38.10782
798.8246, 36.23441
799.3067, 34.15620
799.7888, 31.98138
800.2709, 29.49445
800.7531, 27.11576
801.2352, 25.28910
801.7173, 23.90229
802.1994, 22.40741
802.6815, 20.58075
803.1636, 18.73806
803.6458, 17.01509
804.1279, 15.40208
804.6100, 13.80489
805.0921, 12.30146
805.5742, 11.20208
806.0563, 10.70834
806.5385, 10.37955
807.0206, 9.425201
807.5027, 7.908218
807.9848, 6.744568
808.4669, 6.018379
808.9490, 5.375938
809.4312, 4.645744
809.9133, 3.944107
810.3954, 3.453728
810.8775, 3.203804
811.3596, 2.996933
811.8417, 2.969414
812.3239, 2.813461
812.8060, 2.155853
813.2881, 1.541504
813.7702, 1.577209
814.2523, 2.186989
814.7344, 2.817619
815.2166, 3.255646
815.6987, 3.477036
816.1808, 3.327080
816.6629, 2.969460
817.1450, 2.767212
817.6271, 2.755020
818.1093, 2.788864
818.5914, 2.783829
819.0735, 2.792290
819.5556, 2.956825
820.0377, 3.344017
820.5198, 3.421318
821.0020, 2.921829
821.4841, 2.618546
821.9662, 2.945343
822.4483, 3.510185
822.9304, 3.902542
823.4125, 4.105881
823.8947, 4.310257
824.3768, 4.562859
824.8589, 4.825584
825.3410, 5.052071
825.8231, 5.307587
826.3052, 5.682083
826.7874, 6.167908
827.2695, 6.673180
827.7516, 7.147301
828.2337, 7.622986
828.7158, 8.162506
829.1979, 8.745804
829.6801, 9.240875
830.1622, 9.629616
830.6443, 10.21062
831.1264, 11.17309
831.6085, 12.28930
832.0906, 13.20576
832.5728, 13.90097
833.0549, 14.52062
833.5370, 14.77692
834.0191, 15.41452
834.5012, 16.86960
834.9833, 18.41042
835.4655, 19.55675
835.9476, 20.33527
836.4297, 21.07728
836.9118, 21.59496
837.3939, 22.36622
837.8760, 23.90502
838.3582, 25.74554
838.8403, 27.30627
839.3224, 28.61391
839.8045, 30.03040
840.2866, 31.72302
840.7687, 33.47423
841.2509, 35.02047
841.7330, 36.39842
842.2151, 37.67003
842.6972, 38.80858
843.1793, 39.74989
843.6614, 40.41130
844.1436, 41.04545
844.6257, 41.97941
845.1078, 43.24213
845.5899, 44.35133
846.0720, 45.32018
846.5541, 45.95343
847.0363, 46.07927
847.5184, 46.08711
848.0005, 46.36905
848.4826, 46.69525
848.9647, 46.48175
849.4468, 45.47470
849.9290, 44.40263
850.4111, 43.86220
850.8932, 43.28125
851.3753, 41.93095
851.8574, 40.07803
852.3395, 38.47639
852.8217, 37.32748
853.3038, 36.05092
853.7859, 33.99509
854.2680, 31.47590
854.7501, 29.52453
855.2322, 28.13639
855.7144, 26.89977
856.1965, 25.78609
856.6786, 24.59447
857.1607, 23.13561
857.6428, 21.52557
858.1249, 20.14103
858.6071, 19.19480
859.0892, 18.01698
859.5713, 16.33076
860.0534, 14.74154
860.5355, 13.41549
861.0176, 12.32122
861.4998, 11.42554
861.9819, 10.71816
862.4640, 10.15284
862.9461, 9.854584
863.4282, 9.527588
863.9103, 8.938446
864.3925, 8.213173
864.8746, 7.547836
865.3567, 6.940239
865.8388, 6.231293
866.3209, 5.305283
866.8030, 4.412010
867.2852, 4.023560
867.7673, 4.035233
868.2494, 3.882439
868.7315, 3.530373
869.2136, 3.124619
869.6957, 2.721565
870.1779, 2.289330
870.6600, 1.765182
871.1421, 1.145332
871.6242, 0.7198720
872.1063, 0.5077590
872.5884, 0.4636460
873.0705, 0.8111950
873.5526, 1.097366
874.0347, 0.9807890
874.5168, 0.6418530
874.9990, 0.4422380
875.4811, 0.4680710
875.9632, 0.4485090
876.4453, 0.2145770
876.9274, 1.0628000E-02
877.4095, 6.7635000E-02
877.8917, 3.4179999E-03
878.3738, 0.1889110
878.8559, 0.4427110
879.3380, 0.5166780
879.8201, 6.0646001E-02
880.3022, 0.5002980
880.7844, 0.2981110
881.2665, 0.4104840
881.7486, 0.5988850
882.2307, 0.1290590
882.7128, 0.3276370
883.1949, 0.3363880
883.6771, 5.2726999E-02
884.1592, 0.2305220
884.6413, 0.5339660
885.1234, 0.6766200
885.6055, 0.6231920
886.0876, 0.4829410
886.5698, 0.1982120
887.0519, 5.9707999E-02
887.5340, 3.6003001E-02
888.0161, 0.2413250
888.4982, 0.3303450
888.9803, 9.3773000E-02
889.4625, 0.1546100
889.9446, 0.3406830
890.4267, 0.5421680
890.9088, 1.019859
891.3909, 1.494308
891.8730, 1.254692
892.3552, 6.2583998E-02
892.8373, 0.7878270
893.3194, 2.7877999E-02
893.8015, 1.112167
894.2836, 1.238159
894.7657, 0.7421880
895.2479, 0.5244060
895.7300, 0.7517320
896.2121, 1.025406
896.6942, 1.059525
897.1763, 0.9213030
897.6584, 0.6575620
898.1406, 0.3039020
898.6227, 0.2891310
899.1048, 0.6893770
899.5869, 0.9524990
900.0690, 0.7953410
900.5511, 0.4299090
901.0333, 0.1335910
901.5154, 0.1022340
901.9975, 3.2494001E-02
902.4796, 0.7469710
902.9617, 1.077637
903.4438, 0.4016340
903.9260, 0.4564060
904.4081, 1.049988
904.8902, 1.384262
905.3723, 1.420303
905.8544, 0.9858090
906.3365, 0.7447360
906.8187, 0.9140320
907.3008, 1.260880
907.7829, 1.877266
908.2650, 2.465675
908.7471, 2.531631
909.2292, 2.090248
909.7114, 1.756973
910.1935, 1.928963
910.6756, 2.316490
911.1577, 2.678459
911.6398, 3.023102
912.1219, 3.368210
912.6041, 3.711212
913.0862, 4.048447
913.5683, 4.381470
914.0504, 4.661613
914.5325, 4.775970
915.0146, 4.775604
915.4968, 4.987747
915.9789, 5.422668
916.4610, 5.910950
916.9431, 6.435356
917.4252, 6.881348
917.9073, 7.147202
918.3895, 7.274994
918.8716, 7.436432
919.3537, 7.727615
919.8358, 7.782127
920.3179, 7.443512
920.8000, 7.095352
921.2822, 6.996597
921.7643, 6.890160
922.2464, 6.402023
922.7285, 5.554710
923.2106, 4.969803
923.6927, 4.977005
924.1749, 4.924690
924.6570, 4.558441
925.1391, 4.132164
925.6212, 3.880264
926.1033, 3.720055
926.5854, 3.415062
927.0676, 2.890549
927.5497, 2.443459
928.0318, 2.430603
928.5139, 2.451172
928.9960, 1.937325
929.4781, 1.206192
929.9603, 0.9919590
930.4424, 1.302361
930.9245, 1.402000
931.4066, 0.7811970
931.8887, 4.2992000E-02
932.3708, 0.2109070
932.8530, 0.1227110
933.3351, 0.3415150
933.8172, 0.4140320
934.2993, 0.4411320
934.7814, 0.4579850
935.2635, 0.4658200
935.7457, 0.4585190
936.2278, 0.4484250
936.7099, 0.5326000
937.1920, 0.7529450
937.6741, 0.8612520
938.1563, 0.7483220
938.6384, 0.6803820
939.1205, 0.7497410
939.6026, 0.9719620
940.0847, 1.474854
940.5668, 2.380150
941.0490, 2.806694
941.5311, 2.232155
942.0132, 1.928711
942.4953, 2.334229
942.9774, 2.912079
943.4595, 3.298370
943.9417, 3.524338
944.4238, 3.707054
944.9059, 3.822647
945.3880, 4.081543
945.8701, 4.775803
946.3522, 5.403381
946.8344, 5.661125
947.3165, 5.632965
947.7986, 5.358871
948.2807, 4.892097
948.7628, 4.471947
949.2449, 4.230453
949.7271, 4.139374
950.2092, 4.200935
950.6913, 4.348587
951.1734, 4.672638
951.6555, 5.001671
952.1376, 4.941917
952.6198, 4.417030
953.1019, 3.943016
953.5840, 4.067917
954.0661, 4.493042
954.5482, 4.493927
955.0303, 4.139824
955.5124, 3.830772
955.9945, 3.624886
956.4766, 3.361504
956.9587, 2.928978
957.4409, 2.444031
957.9230, 2.092239
958.4051, 1.881210
958.8872, 1.863808
959.3693, 2.110878
959.8514, 2.212029
960.3336, 2.023102
960.8157, 1.685089
961.2978, 1.276825
961.7799, 0.8827670
962.2620, 0.7300420
962.7441, 0.9158330
963.2263, 1.045059
963.7084, 1.029297
964.1905, 1.087418
964.6726, 1.457901
965.1547, 1.762810
965.6368, 1.543533
966.1190, 0.9453510
966.6011, 0.6450960
967.0832, 0.8178790
967.5653, 1.098267
968.0474, 1.580894
968.5295, 1.968124
969.0117, 2.121277
969.4938, 2.059235
969.9759, 1.712952
970.4580, 1.140816
970.9401, 0.7146990
971.4222, 0.6165010
971.9044, 0.6872250
972.3865, 0.9542310
972.8686, 1.221230
973.3507, 1.185036
973.8328, 1.002357
974.3149, 1.141029
974.7971, 1.696213
975.2792, 2.087944
975.7613, 1.668106
976.2434, 1.042023
976.7255, 1.085052
977.2076, 1.520638
977.6898, 1.777924
978.1719, 1.802315
978.6540, 1.750305
979.1361, 1.697121
979.6182, 1.673119
980.1003, 1.739151
980.5825, 1.857979
981.0646, 1.919853
981.5467, 1.921104
982.0288, 1.789207
982.5109, 1.511528
982.9930, 1.296776
983.4752, 1.281769
983.9573, 1.414070
984.4394, 1.638718
984.9215, 1.957741
985.4036, 2.050880
985.8857, 1.884392
986.3679, 1.679214
986.8500, 1.477051
987.3321, 1.296677
987.8142, 1.155838
988.2963, 1.051353
988.7784, 0.9308010
989.2606, 0.7495570
989.7427, 0.6243970
990.2248, 0.6012950
990.7069, 0.6667250
991.1890, 0.8628850
991.6711, 1.053528
992.1533, 1.095901
992.6354, 1.017059
993.1175, 0.9775920
993.5996, 0.9589770
994.0817, 1.011871
994.5638, 1.354897
995.0460, 1.524506
995.5281, 1.114349
996.0102, 0.5829470
996.4923, 0.4946140
996.9744, 0.8051450
997.4565, 0.9683910
997.9387, 0.8171310
998.4208, 0.6242520
998.9029, 0.4087750
999.3850, 0.2205810
999.8671, 6.2256001E-02
1000.349, 3.2410000E-02
1000.831, 2.1484001E-02
1001.313, 0.2120440
1001.796, 0.3544160
1002.278, 0.3051300
1002.760, 0.2945330
1003.242, 0.6181560
1003.724, 0.8867650
1004.206, 0.5826260
1004.688, 7.0340000E-03
1005.170, 0.2667310
1005.653, 6.4888000E-02
1006.135, 0.2185750
1006.617, 0.3763960
1007.099, 0.4743880
1007.581, 0.5705490
1008.063, 0.6503140
1008.545, 0.7087940
1009.027, 0.7300340
1009.509, 0.6290660
1009.992, 0.3997270
1010.474, 0.2998890
1010.956, 0.6653060
1011.438, 1.171684
1011.920, 1.287445
1012.402, 1.175209
1012.884, 1.274803
1013.366, 1.556374
1013.849, 1.572174
1014.331, 1.136719
1014.813, 0.6709820
1015.295, 0.7102580
1015.777, 1.017029
1016.259, 0.9564440
1016.741, 0.6128690
1017.223, 0.3780980
1017.705, 0.3106000
1018.188, 0.3179700
1018.670, 0.3530200
1019.152, 0.4277500
1019.634, 0.6086810
1020.116, 0.8268590
1020.598, 0.6363070
1021.080, 6.4773999E-02
1021.562, 7.9300001E-02
1022.044, 0.3700100
1022.527, 0.7277830
1023.009, 0.5696330
1023.491, 0.2474140
1023.973, 0.3687590
1024.455, 0.8889540
1024.937, 1.074844
1025.419, 0.8957140
1025.901, 0.6149830
1026.384, 0.2162480
1026.866, 1.2590000E-03
1027.348, 0.2135390
1027.830, 0.5832440
1028.312, 0.5615690
1028.794, 0.1191410
1029.276, 0.1140590
1029.758, 0.1091920
1030.240, 5.7014000E-02
1030.723, 0.4848400
1031.205, 0.7683490
1031.687, 0.5389630
1032.169, 0.1119460
1032.651, 0.1250380
1033.133, 0.6198960
1033.615, 1.195602
1034.097, 2.080116
1034.579, 2.519562
1035.062, 2.168892
1035.544, 1.655930
1036.026, 1.260246
1036.508, 1.030838
1036.990, 1.099785
1037.472, 1.554787
1037.954, 1.821266
1038.436, 1.763115
1038.919, 1.724335
1039.401, 1.781494
1039.883, 1.857567
1040.365, 1.851891
1040.847, 1.870850
1041.329, 2.142464
1041.811, 2.767479
1042.293, 2.966728
1042.776, 2.342506
1043.258, 1.851768
1043.740, 1.699898
1044.222, 1.718147
1044.704, 1.876854
1045.186, 2.074547
1045.668, 2.090424
1046.150, 1.884598
1046.632, 1.733467
1047.115, 1.607948
1047.597, 1.600365
1048.079, 1.892151
1048.561, 2.157059
1049.043, 2.165741
1049.525, 1.990715
1050.007, 1.740837
1050.489, 1.410545
1050.971, 1.230873
1051.454, 1.384850
1051.936, 1.507370
1052.418, 1.496368
1052.900, 1.410065
1053.382, 1.215660
1053.864, 1.005493
1054.346, 0.9811170
1054.828, 1.180275
1055.311, 1.269913
1055.793, 1.028328
1056.275, 0.8406300
1056.757, 0.8249740
1057.239, 0.9356000
1057.721, 1.259758
1058.203, 1.610252
1058.685, 1.621452
1059.167, 1.256599
1059.650, 0.9608000
1060.132, 0.7748790
1060.614, 0.8260120
1061.096, 1.410423
1061.578, 2.011528
1062.060, 2.292381
1062.542, 2.279358
1063.024, 1.952950
1063.506, 1.389320
1063.989, 1.093185
1064.471, 1.562996
1064.953, 1.869194
1065.435, 1.349632
1065.917, 0.7985460
1066.399, 0.9070360
1066.881, 1.353058
1067.363, 1.604256
1067.846, 1.591820
1068.328, 1.523033
1068.810, 1.570610
1069.292, 1.445206
1069.774, 0.7648470
1070.256, 0.1166610
1070.738, 2.2293000E-02
1071.220, 0.1344150
1071.703, 0.3081510
1072.185, 0.4302980
1072.667, 0.4897380
1073.149, 0.4740600
1073.631, 0.4972380
1074.113, 0.7007370
1074.595, 0.8574070
1075.077, 0.7141570
1075.559, 0.4816820
1076.042, 0.4492950
1076.524, 0.6303100
1077.006, 0.8286590
1077.488, 1.046738
1077.970, 1.138634
1078.452, 0.9241940
1078.934, 0.6744840
1079.416, 0.5541530
1079.898, 0.5349810
1080.380, 0.5869140
1080.863, 0.6715930
1081.345, 0.7129970
1081.827, 0.6998060
1082.309, 0.6065220
1082.791, 0.2441330
1083.273, 2.8760000E-03
1083.755, 0.2479020
1084.237, 0.6189730
1084.720, 0.6628800
1085.202, 0.4805760
1085.684, 0.4529270
1086.166, 0.6965180
1086.648, 0.8778230
1087.130, 0.7357940
1087.612, 0.6496580
1088.094, 1.008369
1088.577, 1.349648
1089.059, 1.122536
1089.541, 0.5626530
1090.023, 0.2311100
1090.505, 0.2471390
1090.987, 0.3175350
1091.469, 0.4136810
1091.951, 0.4260030
1092.433, 5.9310999E-02
1092.916, 0.1676030
1093.398, 0.4480060
1093.880, 1.357368
1094.362, 1.520767
1094.844, 0.8534010
1095.326, 0.3858110
1095.808, 0.6324080
1096.290, 0.8459320
1096.772, 0.8319020
1097.255, 0.6514590
1097.737, 0.1388170
1098.219, 0.3884810
1098.701, 0.4708250
1099.183, 0.1316220
1099.665, 0.1785050
1100.147, 0.4248500
1100.629, 0.4905320
1101.112, 0.1198650
1101.594, 0.1720810
1102.076, 4.9439999E-03
1102.558, 0.2705460
1103.040, 0.2102200
1103.522, 8.4197998E-02
1104.004, 0.1203610
1104.486, 0.2780150
1104.969, 0.5968550
1105.451, 0.7631380
1105.933, 0.8125690
1106.415, 0.6798170
1106.897, 0.5072100
1107.379, 0.3954320
1107.861, 0.3347700
1108.343, 0.2800140
1108.825, 0.2131960
1109.307, 0.2339320
1109.790, 0.4451220
1110.272, 0.6089170
1110.754, 0.7132190
1111.236, 0.7190320
1111.718, 0.5104140
1112.200, 0.2330550
1112.682, 0.1605990
1113.164, 0.3119960
1113.647, 0.3135150
1114.129, 6.2935002E-02
1114.611, 0.2012250
1115.093, 0.2007830
1115.575, 0.4861070
1116.057, 0.2222060
1116.539, 0.1537630
1117.021, 8.4137000E-02
1117.504, 0.3482670
1117.986, 0.5287930
1118.468, 0.3252180
1118.950, 0.1837010
1119.432, 9.4306998E-02
1119.914, 9.3520999E-02
1120.396, 0.2409740
1120.878, 0.4021000
1121.360, 0.4630430
1121.843, 0.4473340
1122.325, 0.4164730
1122.807, 0.3505480
1123.289, 0.4216160
1123.771, 0.7405400
1124.253, 0.7674640
1124.735, 0.2592540
1125.217, 0.1516650
1125.699, 1.6907001E-02
1126.182, 0.3530650
1126.664, 0.4150620
1127.146, 0.1906970
1127.628, 9.9235997E-02
1128.110, 0.1701580
1128.592, 4.0909000E-02
1129.074, 0.3853910
1129.556, 0.5611650
1130.039, 0.2013170
1130.521, 0.2868730
1131.003, 0.4332580
1131.485, 0.3419720
1131.967, 0.4283290
1132.449, 0.6675110
1132.931, 0.5255200
1133.413, 1.2062000E-02
1133.896, 0.2608180
1134.378, 1.1955000E-02
1134.860, 0.3095930
1135.342, 0.3675540
1135.824, 0.3365170
1136.306, 0.5821230
1136.788, 1.003571
1137.270, 1.203644
1137.752, 1.212524
1138.234, 1.199394
1138.717, 1.194908
1139.199, 1.160828
1139.681, 1.077370
1140.163, 0.9362110
1140.645, 0.6321180
1141.127, 0.3499600
1141.609, 0.5033260
1142.091, 0.9182050
1142.574, 1.317932
1143.056, 1.599930
1143.538, 1.529327
1144.020, 1.079041
1144.502, 0.6413800
1144.984, 0.4896850
1145.466, 0.4677280
1145.948, 0.4242630
1146.431, 0.4072110
1146.913, 0.5365070
1147.395, 0.7080380
1147.877, 0.6862030
1148.359, 0.4983440
1148.841, 0.4083100
1149.323, 0.5247420
1149.805, 0.7702790
1150.287, 1.376671
1150.770, 1.762314
1151.252, 1.281136
1151.734, 0.5827870
1152.216, 0.4079060
1152.698, 0.6097950
1153.180, 0.6324010
1153.662, 0.3650360
1154.144, 0.3900450
1154.626, 1.338272
1155.109, 1.987762
1155.591, 1.580017
1156.073, 1.117363
1156.555, 1.429787
1157.037, 1.998909
1157.519, 2.059929
1158.001, 1.628487
1158.483, 1.204720
1158.966, 0.6752170
1159.448, 0.4768070
1159.930, 1.046707
1160.412, 1.429008
1160.894, 1.228630
1161.376, 0.9071660
1161.858, 0.7941670
1162.340, 0.8280180
1162.822, 0.8304670
1163.305, 0.7838590
1163.787, 0.9105450
1164.269, 1.331528
1164.751, 1.548035
1165.233, 1.419678
1165.715, 1.310173
1166.197, 1.411606
1166.679, 1.555969
1167.161, 1.555237
1167.644, 1.428650
1168.126, 1.161415
1168.608, 0.7448810
1169.090, 0.6678850
1169.572, 0.9616620
1170.054, 1.166145
1170.536, 1.157043
1171.018, 0.9936370
1171.500, 0.6890490
1171.983, 0.4342730
1172.465, 0.6147310
1172.947, 1.093300
1173.429, 1.361618
1173.911, 1.436478
1174.393, 1.351532
1174.875, 1.151466
1175.357, 0.8626100
1175.840, 0.5137020
1176.322, 0.4283220
1176.804, 1.020103
1177.286, 1.673203
1177.768, 1.454338
1178.250, 0.9343570
1178.732, 0.9549100
1179.214, 1.327843
1179.697, 1.637756
1180.179, 1.790779
1180.661, 1.779663
1181.143, 1.577431
1181.625, 1.417946
1182.107, 1.313744
1182.589, 1.449768
1183.071, 2.317986
1183.553, 3.156685
1184.036, 3.115547
1184.518, 2.518936
1185.000, 1.984879
1185.482, 1.621796
1185.964, 1.508568
1186.446, 2.002914
1186.928, 2.170898
1187.410, 1.420959
1187.892, 0.9273910
1188.375, 1.532593
1188.857, 2.257126
1189.339, 2.093857
1189.821, 1.376099
1190.303, 1.072533
1190.785, 1.262657
1191.267, 1.454674
1191.749, 1.691681
1192.232, 1.574326
1192.714, 0.8487470
1193.196, 0.2813640
1193.678, 0.2838060
1194.160, 0.5496060
1194.642, 0.7246700
1195.124, 0.8238750
1195.606, 0.9340740
1196.089, 1.049065
1196.571, 0.9205550
1197.053, 0.5607450
1197.535, 0.4745560
1198.017, 0.7749020
1198.499, 1.131310
1198.981, 1.346130
1199.463, 1.398888
1199.945, 1.134071
1200.427, 0.7879710
1200.910, 0.9376910
1201.392, 1.337181
1201.874, 1.415405
1202.356, 1.226898
1202.838, 1.168007
1203.320, 1.313850
1203.802, 1.326523
1204.284, 0.9606400
1204.767, 0.5541840
1205.249, 0.2064360
1205.731, 9.1445997E-02
1206.213, 0.6035080
1206.695, 1.248627
1207.177, 1.427658
1207.659, 1.225197
1208.141, 0.9811550
1208.624, 0.7515560
1209.106, 0.6730730
1209.588, 0.9193270
1210.070, 1.106232
1210.552, 1.044952
1211.034, 1.040253
1211.516, 1.418167
1211.998, 1.770988
1212.480, 1.614143
1212.963, 1.102615
1213.445, 0.8335420
1213.927, 0.8414380
1214.409, 0.9254530
1214.891, 1.104179
1215.373, 1.295410
1215.855, 1.502625
1216.337, 1.629494
1216.819, 1.588699
1217.302, 1.504333
1217.784, 1.539185
1218.266, 1.608711
1218.748, 1.371880
1219.230, 0.9281690
1219.712, 0.8469700
1220.194, 1.065636
1220.676, 1.061577
1221.159, 0.7580570
1221.641, 0.5048140
1222.123, 0.4913250
1222.605, 0.6246870
1223.087, 1.059776
1223.569, 1.372116
1224.051, 0.8204500
1224.533, 4.0352002E-02
1225.016, 0.1856380
1225.498, 5.5542000E-02
1225.980, 0.6016770
1226.462, 1.299164
1226.944, 1.610611
1227.426, 1.178856
1227.908, 0.8429870
1228.390, 0.9712980
1228.872, 1.136993
1229.354, 1.074936
1229.837, 1.067284
1230.319, 1.580879
1230.801, 2.176689
1231.283, 1.968452
1231.765, 0.9913860
1232.247, 0.4948270
1232.729, 0.6483610
1233.211, 0.7698360
1233.694, 0.8230900
1234.176, 0.8815230
1234.658, 0.9788060
1235.140, 1.035263
1235.622, 0.9924160
1236.104, 0.8769530
1236.586, 0.6977770
1237.068, 0.5037160
1237.551, 0.5606380
1238.033, 0.7912520
1238.515, 0.8232880
1238.997, 0.6692120
1239.479, 0.5906070
1239.961, 0.6552200
1240.443, 0.7170490
1240.925, 0.6677860
1241.407, 0.6722180
1241.890, 1.039734
1242.372, 1.379936
1242.854, 1.236816
1243.336, 0.8986890
1243.818, 0.6716080
1244.300, 0.5729520
1244.782, 0.5592880
1245.264, 0.6182710
1245.746, 0.7226490
1246.229, 0.9837340
1246.711, 1.073936
1247.193, 0.8918300
1247.675, 0.5861280
1248.157, 7.2365001E-02
1248.639, 0.4884720
1249.121, 0.1035310
1249.603, 0.6586070
1250.085, 1.049034
1250.568, 1.081619
1251.050, 0.9780350
1251.532, 0.7081680
1252.014, 0.6611560
1252.496, 0.8750380
1252.978, 1.052460
1253.460, 1.104164
1253.942, 1.145126
1254.425, 1.267357
1254.907, 1.280296
1255.389, 0.7363970
1255.871, 4.9132999E-02
1256.353, 5.8590001E-03
1256.835, 0.3100130
1257.317, 0.4067380
1257.799, 0.3596040
1258.281, 0.4903950
1258.764, 0.8365100
1259.246, 1.183113
1259.728, 1.485558
1260.210, 1.597534
1260.692, 1.217094
1261.174, 0.9387510
1261.656, 1.186188
1262.138, 1.498749
1262.620, 1.524223
1263.103, 1.375732
1263.585, 1.233307
1264.067, 1.101707
1264.549, 1.018913
1265.031, 1.019539
1265.513, 0.9246670
1265.995, 0.6784210
1266.477, 0.6124500
1266.960, 0.7326200
1267.442, 0.8709870
1267.924, 0.7497410
1268.406, 0.6174010
1268.888, 0.8178560
1269.370, 1.178505
1269.852, 1.346519
1270.334, 1.337791
1270.817, 1.041229
1271.299, 0.6493610
1271.781, 0.7464220
1272.263, 1.232010
1272.745, 1.240654
1273.227, 0.4404600
1273.709, 8.9644998E-02
1274.191, 0.6629180
1274.673, 1.331169
1275.156, 1.101097
1275.638, 0.7075040
1276.120, 0.5408710
1276.602, 0.5621950
1277.084, 0.8479690
1277.566, 1.228546
1278.048, 1.144806
1278.530, 0.5176700
1279.012, 0.1477430
1279.495, 5.7914998E-02
1279.977, 0.1024020
1280.459, 0.6210560
1280.941, 0.9815140
1281.423, 0.9796450
1281.905, 0.9285200
1282.387, 0.8655850
1282.869, 0.9637220
1283.352, 0.6726460
1283.834, 0.1802440
1284.316, 7.3199999E-04
1284.798, 0.0000000E+00
##END=



