##NAMES=Sincosite
##RRUFFID=R141155
##IDEAL CHEMISTRY=Ca(V^4+^O)_2_(P^5+^O_4_)_2_&#183;4H_2_O
##LOCALITY=Ross Hannibal mine, Lawrence County, South Dakota, USA
##OWNER=RRUFF
##SOURCE=Tom Loomis
##DESCRIPTION=Green platy crystals. Crystal exhibits a 2-fold rotation twin around [1 -1 0].
##STATUS=The identification of this mineral has been confirmed by single-crystal X-ray diffraction.
##URL=rruff.info/R141155
93.48840, 0.0000000E+00
93.97052, 6.619507
94.45264, 6.314758
94.93475, 6.324341
95.41687, 6.222778
95.89898, 6.201508
96.38110, 6.452698
96.86321, 5.512482
97.34533, 3.986084
97.82745, 1.662964
98.30956, 0.2542420
98.79168, 0.2205200
99.27380, 0.1130980
99.75591, 0.7673340
100.2380, 1.897705
100.7201, 2.473022
101.2023, 2.228546
101.6844, 1.686371
102.1665, 1.479156
102.6486, 1.705658
103.1307, 2.245941
103.6128, 2.583496
104.0950, 2.552124
104.5771, 2.407013
105.0592, 2.086487
105.5413, 1.779877
106.0234, 1.891113
106.5055, 2.492126
106.9877, 3.201202
107.4698, 4.694733
107.9519, 8.252319
108.4340, 10.92010
108.9161, 11.41550
109.3982, 10.16595
109.8804, 8.170258
110.3625, 6.145203
110.8446, 3.781494
111.3267, 2.030273
111.8088, 1.047333
112.2909, 0.5497440
112.7731, 0.4848330
113.2552, 0.7913510
113.7373, 1.407227
114.2194, 2.422058
114.7015, 3.678101
115.1836, 4.788757
115.6658, 5.981628
116.1479, 7.034698
116.6300, 7.883179
117.1121, 8.459442
117.5942, 8.568176
118.0763, 7.703827
118.5584, 4.917175
119.0406, 3.101929
119.5227, 4.320160
120.0048, 7.722992
120.4869, 9.780548
120.9690, 8.736511
121.4511, 6.627747
121.9333, 5.932770
122.4154, 6.847412
122.8975, 8.314697
123.3796, 9.678680
123.8617, 11.05328
124.3438, 11.90167
124.8260, 12.13675
125.3081, 11.92969
125.7902, 11.17813
126.2723, 9.655396
126.7544, 7.849091
127.2365, 6.871307
127.7187, 7.207184
128.2008, 7.621613
128.6829, 7.831390
129.1650, 7.851685
129.6471, 7.711914
130.1292, 7.431549
130.6114, 7.038452
131.0935, 6.641235
131.5756, 6.232910
132.0577, 5.888214
132.5398, 5.766571
133.0219, 5.733917
133.5041, 5.474213
133.9862, 4.635895
134.4683, 3.017212
134.9504, 2.192535
135.4325, 2.585236
135.9146, 3.264648
136.3968, 3.752441
136.8789, 3.967377
137.3610, 4.085907
137.8431, 4.329132
138.3252, 4.735870
138.8073, 4.959442
139.2895, 4.644348
139.7716, 4.244049
140.2537, 4.523315
140.7358, 5.736816
141.2179, 6.957397
141.7000, 6.719208
142.1821, 5.148407
142.6643, 3.727448
143.1464, 3.295868
143.6285, 3.555756
144.1106, 3.398895
144.5927, 2.339172
145.0748, 1.008606
145.5570, 0.1504210
146.0391, 1.099091
146.5212, 1.643097
147.0033, 1.314911
147.4854, 4.1198999E-02
147.9675, 0.7648320
148.4497, 0.1072390
148.9318, 1.328339
149.4139, 2.257202
149.8960, 2.749283
150.3781, 3.069183
150.8602, 3.630051
151.3424, 3.683502
151.8245, 3.495605
152.3066, 2.907959
152.7887, 2.169449
153.2708, 1.466064
153.7529, 0.8673550
154.2351, 0.3389130
154.7172, 0.2303770
155.1993, 1.119568
155.6814, 1.705475
156.1635, 1.829208
156.6456, 1.672928
157.1278, 1.483505
157.6099, 1.385254
158.0920, 1.336639
158.5741, 1.172607
159.0562, 0.6535030
159.5383, 0.2814480
160.0205, 0.2383730
160.5026, 0.4436490
160.9847, 0.7289120
161.4668, 1.040314
161.9489, 1.339005
162.4310, 1.482819
162.9131, 1.346420
163.3953, 1.187393
163.8774, 1.163498
164.3595, 1.269577
164.8416, 1.425323
165.3237, 1.685883
165.8058, 1.940765
166.2880, 1.917587
166.7701, 1.238297
167.2522, 0.5213930
167.7343, 0.6338960
168.2164, 1.778656
168.6985, 2.777130
169.1807, 2.756195
169.6628, 2.224640
170.1449, 1.761078
170.6270, 1.596481
171.1091, 1.662842
171.5912, 1.808426
172.0734, 2.127991
172.5555, 2.340027
173.0376, 2.294388
173.5197, 2.096481
174.0018, 1.873718
174.4839, 1.671951
174.9661, 1.508499
175.4482, 1.508087
175.9303, 1.873749
176.4124, 2.160492
176.8945, 2.264175
177.3766, 2.238159
177.8588, 2.128540
178.3409, 1.912476
178.8230, 1.575287
179.3051, 1.522629
179.7872, 2.209549
180.2693, 2.753006
180.7515, 2.784134
181.2336, 2.431671
181.7157, 2.088699
182.1978, 2.110519
182.6799, 2.568771
183.1620, 2.622650
183.6441, 1.862350
184.1263, 1.140854
184.6084, 1.030273
185.0905, 1.450836
185.5726, 1.768036
186.0547, 1.283310
186.5368, 0.1748050
187.0190, 0.7514950
187.5011, 0.4294590
187.9832, 1.838181
188.4653, 2.250687
188.9474, 1.559662
189.4296, 0.6398010
189.9117, 0.3283540
190.3938, 0.6223750
190.8759, 0.8798680
191.3580, 0.9715270
191.8401, 1.015244
192.3223, 1.194901
192.8044, 1.581909
193.2865, 1.911911
193.7686, 1.669418
194.2507, 1.059937
194.7328, 0.8005680
195.2150, 1.310654
195.6971, 2.285843
196.1792, 3.196793
196.6613, 4.105942
197.1434, 4.685562
197.6255, 4.489929
198.1077, 3.780685
198.5898, 3.221115
199.0719, 3.234543
199.5540, 3.683136
200.0361, 3.997696
200.5182, 4.066483
201.0004, 4.146271
201.4825, 4.369919
201.9646, 4.708664
202.4467, 5.087845
202.9288, 5.462326
203.4109, 5.803146
203.8930, 6.068542
204.3752, 6.351257
204.8573, 6.558182
205.3394, 6.626236
205.8215, 6.583572
206.3036, 6.532257
206.7857, 6.624969
207.2679, 6.900024
207.7500, 6.978104
208.2321, 6.639175
208.7142, 6.300598
209.1963, 6.099899
209.6784, 6.055817
210.1606, 6.162933
210.6427, 6.423920
211.1248, 6.857788
211.6069, 7.227921
212.0890, 7.614365
212.5711, 7.870667
213.0533, 7.877090
213.5354, 7.654099
214.0175, 7.305695
214.4996, 6.897461
214.9817, 6.381058
215.4638, 6.183914
215.9460, 6.543884
216.4281, 6.934998
216.9102, 7.076935
217.3923, 6.985687
217.8744, 6.873291
218.3565, 6.957520
218.8387, 7.279358
219.3208, 7.331131
219.8029, 6.839111
220.2850, 6.330887
220.7671, 6.219620
221.2492, 6.472031
221.7314, 6.640808
222.2135, 6.270309
222.6956, 5.326004
223.1777, 4.813934
223.6598, 5.123398
224.1419, 5.570053
224.6240, 5.613403
225.1062, 5.233658
225.5883, 4.796143
226.0704, 4.570663
226.5525, 4.553116
227.0346, 4.600952
227.5167, 4.761963
227.9989, 4.949188
228.4810, 5.104218
228.9631, 5.226929
229.4452, 5.274612
229.9273, 5.100342
230.4094, 4.829361
230.8916, 4.810913
231.3737, 5.292725
231.8558, 5.947113
232.3379, 6.446213
232.8200, 6.791000
233.3021, 6.972076
233.7843, 6.876862
234.2664, 6.627502
234.7485, 6.386734
235.2306, 6.111526
235.7127, 5.931488
236.1948, 6.062683
236.6770, 6.568054
237.1591, 7.127151
237.6412, 7.620834
238.1233, 8.067169
238.6054, 8.497498
239.0875, 8.964096
239.5697, 9.354370
240.0518, 9.395691
240.5339, 8.911133
241.0160, 8.657684
241.4981, 9.092331
241.9802, 9.816422
242.4624, 10.47551
242.9445, 10.94090
243.4266, 11.32256
243.9087, 11.83159
244.3908, 12.54761
244.8729, 13.14027
245.3550, 13.27754
245.8372, 13.41039
246.3193, 13.99055
246.8014, 15.18527
247.2835, 16.66141
247.7656, 17.86588
248.2477, 18.69339
248.7299, 19.48831
249.2120, 20.36664
249.6941, 21.20799
250.1762, 21.86378
250.6583, 22.29987
251.1404, 22.69337
251.6226, 23.35680
252.1047, 24.40681
252.5868, 25.46729
253.0689, 26.63512
253.5510, 27.72560
254.0331, 28.55081
254.5153, 29.08507
254.9974, 29.52606
255.4795, 30.24316
255.9616, 31.62018
256.4437, 32.39790
256.9258, 32.15115
257.4080, 31.71719
257.8901, 31.68628
258.3722, 32.13911
258.8543, 32.70378
259.3364, 32.85936
259.8185, 32.38654
260.3007, 32.04822
260.7828, 32.09631
261.2649, 32.05695
261.7470, 31.67552
262.2291, 30.90582
262.7112, 29.81059
263.1934, 28.40334
263.6755, 26.49525
264.1576, 24.97931
264.6397, 24.05980
265.1218, 23.28175
265.6039, 22.48135
266.0861, 21.60817
266.5682, 20.61223
267.0503, 19.41757
267.5324, 17.96718
268.0145, 16.71791
268.4966, 15.64676
268.9788, 14.74773
269.4609, 14.08766
269.9430, 13.61989
270.4251, 13.19777
270.9072, 12.68983
271.3893, 12.09254
271.8715, 11.67445
272.3536, 11.33099
272.8357, 11.22220
273.3178, 11.70779
273.7999, 12.52872
274.2820, 12.96385
274.7642, 12.45026
275.2463, 11.10144
275.7284, 10.35417
276.2105, 10.69817
276.6926, 10.95737
277.1747, 10.51241
277.6568, 9.675430
278.1389, 9.212280
278.6211, 9.593658
279.1032, 10.58260
279.5853, 11.15604
280.0674, 11.09853
280.5495, 10.97713
281.0316, 10.98459
281.5138, 11.01752
281.9959, 10.85062
282.4780, 10.35867
282.9601, 9.706100
283.4422, 9.347015
283.9243, 9.429535
284.4065, 9.470322
284.8886, 9.413132
285.3707, 9.246201
285.8528, 8.906296
286.3349, 8.352142
286.8170, 7.741119
287.2992, 7.345474
287.7813, 7.218765
288.2634, 7.107086
288.7455, 7.055557
289.2276, 6.967377
289.7097, 6.674728
290.1919, 6.131241
290.6740, 5.555191
291.1561, 5.207611
291.6382, 5.115662
292.1203, 5.080856
292.6024, 5.097183
293.0846, 5.155258
293.5667, 5.330872
294.0488, 5.625000
294.5309, 5.752502
295.0130, 5.335403
295.4951, 4.374451
295.9773, 3.828644
296.4594, 3.991135
296.9415, 4.391022
297.4236, 4.747330
297.9057, 5.029739
298.3878, 5.174179
298.8700, 5.103409
299.3521, 4.839935
299.8342, 4.609589
300.3163, 4.255753
300.7984, 4.076218
301.2805, 4.413361
301.7627, 5.140823
302.2448, 5.677399
302.7269, 5.697769
303.2090, 5.324631
303.6911, 4.959549
304.1732, 4.552139
304.6554, 4.227219
305.1375, 4.075745
305.6196, 4.054413
306.1017, 4.042648
306.5838, 4.013565
307.0659, 4.020966
307.5481, 4.175217
308.0302, 4.498489
308.5123, 4.775314
308.9944, 4.896973
309.4765, 4.953033
309.9586, 5.065735
310.4408, 5.248856
310.9229, 5.525238
311.4050, 6.010330
311.8871, 6.715088
312.3692, 7.231232
312.8513, 7.359146
313.3335, 7.413010
313.8156, 7.682373
314.2977, 8.170578
314.7798, 8.763641
315.2619, 9.443359
315.7440, 10.20767
316.2262, 10.83443
316.7083, 11.22481
317.1904, 11.55019
317.6725, 11.99112
318.1546, 12.50992
318.6367, 12.82219
319.1188, 12.67438
319.6010, 12.20967
320.0831, 12.02911
320.5652, 12.26662
321.0473, 12.51740
321.5294, 12.68225
322.0115, 12.75710
322.4937, 12.62016
322.9758, 12.15533
323.4579, 11.52422
323.9400, 11.11906
324.4221, 10.87334
324.9042, 10.81532
325.3864, 11.17879
325.8685, 11.73106
326.3506, 11.98157
326.8327, 11.73396
327.3148, 11.28726
327.7969, 11.10477
328.2791, 11.21103
328.7612, 11.37132
329.2433, 11.64949
329.7254, 11.91380
330.2075, 11.93240
330.6896, 11.65985
331.1718, 11.43051
331.6539, 11.60744
332.1360, 12.23151
332.6181, 12.77293
333.1002, 13.11137
333.5823, 13.43938
334.0645, 13.91109
334.5466, 14.51813
335.0287, 15.15410
335.5108, 15.76297
335.9929, 16.33325
336.4750, 16.80550
336.9572, 17.16606
337.4393, 17.45760
337.9214, 17.70872
338.4035, 17.90460
338.8856, 17.98497
339.3677, 17.89967
339.8499, 17.73384
340.3320, 17.72458
340.8141, 17.88643
341.2962, 18.14423
341.7783, 18.64594
342.2604, 19.17839
342.7426, 19.45996
343.2247, 19.41075
343.7068, 19.14264
344.1889, 18.79053
344.6710, 18.30742
345.1531, 17.87729
345.6353, 17.55635
346.1174, 17.25708
346.5995, 16.94818
347.0816, 16.61395
347.5637, 16.19038
348.0458, 15.62787
348.5280, 14.91719
349.0101, 14.12355
349.4922, 13.15746
349.9743, 12.21419
350.4564, 11.32715
350.9385, 10.53711
351.4207, 9.960770
351.9028, 9.704834
352.3849, 9.643112
352.8670, 9.213470
353.3491, 7.806091
353.8312, 6.790924
354.3134, 6.653320
354.7955, 6.869095
355.2776, 6.868729
355.7597, 6.447662
356.2418, 5.689835
356.7239, 4.675171
357.2061, 2.933853
357.6882, 1.957275
358.1703, 2.324310
358.6524, 2.944382
359.1345, 3.083099
359.6166, 2.685013
360.0987, 2.126251
360.5808, 1.762909
361.0630, 1.613754
361.5451, 1.477081
362.0272, 1.496201
362.5093, 1.380692
362.9914, 0.9615330
363.4735, 0.3382110
363.9557, 0.3119510
364.4378, 0.8958740
364.9199, 1.387802
365.4020, 1.668777
365.8841, 1.553055
366.3662, 1.467697
366.8484, 1.531708
367.3305, 1.612839
367.8126, 1.576721
368.2947, 1.380875
368.7768, 1.088242
369.2589, 0.7306060
369.7411, 0.1248020
370.2232, 2.2872999E-02
370.7053, 0.8603520
371.1874, 1.718613
371.6695, 1.946762
372.1516, 1.585251
372.6338, 1.090775
373.1159, 0.8354190
373.5980, 0.8141780
374.0801, 0.8774260
374.5622, 1.182419
375.0443, 1.373383
375.5265, 1.211411
376.0086, 0.8931270
376.4907, 0.7704160
376.9728, 1.082397
377.4549, 1.529449
377.9370, 1.386917
378.4192, 0.4229580
378.9013, 0.4778440
379.3834, 1.244995
379.8655, 1.754242
380.3476, 1.712692
380.8297, 1.076385
381.3119, 0.5151980
381.7940, 0.8999330
382.2761, 2.204086
382.7582, 3.016487
383.2403, 2.774269
383.7224, 2.450050
384.2046, 2.760460
384.6867, 3.563477
385.1688, 4.328804
385.6509, 4.865105
386.1330, 5.147774
386.6151, 4.953918
387.0973, 4.063080
387.5794, 3.498779
388.0615, 4.203156
388.5436, 5.512718
389.0257, 6.500053
389.5078, 6.890198
389.9900, 7.108795
390.4721, 7.528664
390.9542, 8.121704
391.4363, 8.674301
391.9184, 9.152481
392.4005, 9.509445
392.8827, 9.629959
393.3648, 9.488861
393.8469, 9.461647
394.3290, 9.819786
394.8111, 10.34396
395.2932, 10.62731
395.7754, 10.58678
396.2575, 10.60212
396.7396, 11.09612
397.2217, 12.01032
397.7038, 12.61668
398.1859, 12.69051
398.6681, 12.62253
399.1501, 12.61452
399.6323, 12.67229
400.1144, 12.79901
400.5965, 13.01187
401.0786, 13.26900
401.5607, 13.44971
402.0428, 13.55885
402.5250, 13.59811
403.0071, 13.49788
403.4892, 13.35848
403.9713, 13.34275
404.4534, 13.47545
404.9355, 13.56367
405.4177, 13.35472
405.8998, 12.75137
406.3819, 12.35300
406.8640, 12.23272
407.3461, 12.22014
407.8282, 12.29218
408.3104, 12.40375
408.7925, 12.48972
409.2746, 12.51590
409.7567, 12.46452
410.2388, 12.24889
410.7209, 11.66119
411.2031, 11.17663
411.6852, 10.86389
412.1673, 10.65250
412.6494, 10.44756
413.1315, 10.23423
413.6136, 10.11130
414.0958, 10.30329
414.5779, 11.01625
415.0600, 11.21249
415.5421, 10.20897
416.0242, 9.315025
416.5063, 9.191002
416.9885, 9.596748
417.4706, 9.870079
417.9527, 9.525848
418.4348, 8.797577
418.9169, 8.526718
419.3990, 8.975349
419.8812, 9.301018
420.3633, 9.176338
420.8454, 8.855309
421.3275, 8.534370
421.8096, 8.234192
422.2917, 7.964752
422.7739, 7.765343
423.2560, 7.642311
423.7381, 7.518562
424.2202, 7.365837
424.7023, 7.218231
425.1844, 7.141510
425.6666, 7.107269
426.1487, 6.998535
426.6308, 6.744598
427.1129, 6.410042
427.5950, 6.061378
428.0771, 5.663406
428.5593, 5.300919
429.0414, 5.049713
429.5235, 4.931877
430.0056, 4.922417
430.4877, 5.068657
430.9698, 5.233307
431.4520, 5.450333
431.9341, 5.603836
432.4162, 5.364143
432.8983, 4.615128
433.3804, 3.840080
433.8625, 3.637581
434.3447, 4.097527
434.8268, 4.299500
435.3089, 3.990219
435.7910, 3.621674
436.2731, 3.540657
436.7552, 3.691322
437.2374, 3.832809
437.7195, 3.818542
438.2016, 3.683418
438.6837, 3.573265
439.1658, 3.424019
439.6479, 3.396866
440.1301, 3.508331
440.6122, 3.736229
441.0943, 4.168327
441.5764, 4.767334
442.0585, 5.279358
442.5406, 5.378899
443.0227, 4.995186
443.5049, 4.718796
443.9870, 4.459595
444.4691, 4.396873
444.9512, 4.705711
445.4333, 5.228149
445.9154, 5.738365
446.3976, 6.119522
446.8797, 6.378990
447.3618, 6.494957
447.8439, 6.363441
448.3260, 6.402313
448.8081, 6.948776
449.2903, 7.500107
449.7724, 7.659637
450.2545, 7.447556
450.7366, 7.279625
451.2187, 7.610153
451.7008, 8.273636
452.1830, 8.514046
452.6651, 8.167587
453.1472, 7.795418
453.6293, 7.807388
454.1114, 7.957985
454.5935, 7.877464
455.0757, 7.359421
455.5578, 6.872223
456.0399, 6.928787
456.5220, 7.378349
457.0041, 7.536110
457.4862, 7.135094
457.9684, 6.525764
458.4505, 6.143509
458.9326, 5.980957
459.4147, 5.879959
459.8968, 5.885201
460.3789, 5.927063
460.8611, 5.932701
461.3432, 5.875877
461.8253, 5.734940
462.3074, 5.488014
462.7895, 5.176582
463.2716, 4.924728
463.7538, 4.811844
464.2359, 4.674522
464.7180, 4.360207
465.2001, 4.044853
465.6822, 3.990486
466.1643, 4.211472
466.6465, 4.432686
467.1286, 4.338127
467.6107, 3.904182
468.0928, 3.590599
468.5749, 3.441208
469.0570, 3.304260
469.5392, 3.101250
470.0213, 2.917961
470.5034, 2.871750
470.9855, 3.005890
471.4676, 3.202400
471.9497, 3.257835
472.4319, 3.178154
472.9140, 3.079163
473.3961, 2.929977
473.8782, 2.813896
474.3603, 2.811295
474.8424, 2.894081
475.3246, 2.939125
475.8067, 2.813148
476.2888, 2.622948
476.7709, 2.624847
477.2530, 2.850471
477.7351, 3.085266
478.2173, 3.301743
478.6994, 3.420822
479.1815, 3.288994
479.6636, 2.809349
480.1457, 2.412582
480.6278, 2.404808
481.1100, 2.603317
481.5920, 2.617241
482.0742, 2.366257
482.5563, 2.215714
483.0384, 2.570435
483.5205, 3.412575
484.0026, 3.866631
484.4847, 3.776756
484.9669, 3.497787
485.4490, 3.024513
485.9311, 2.489021
486.4132, 2.128502
486.8953, 2.028496
487.3774, 2.047035
487.8596, 1.930779
488.3417, 1.513573
488.8238, 1.427170
489.3059, 1.896767
489.7880, 2.424095
490.2701, 2.888313
490.7523, 3.209839
491.2344, 3.236229
491.7165, 2.831573
492.1986, 2.202255
492.6807, 1.945526
493.1628, 2.230408
493.6450, 2.423882
494.1271, 2.324898
494.6092, 2.139641
495.0913, 1.970039
495.5734, 1.835052
496.0555, 1.750298
496.5377, 1.733406
497.0198, 1.776108
497.5019, 1.789162
497.9840, 1.701569
498.4661, 1.954445
498.9482, 3.315834
499.4304, 4.963394
499.9125, 5.249809
500.3946, 3.546921
500.8767, 1.826607
501.3588, 1.092278
501.8409, 0.9845660
502.3231, 0.8666380
502.8052, 0.6101910
503.2873, 0.3982320
503.7694, 0.4256210
504.2515, 0.7030940
504.7336, 0.8791500
505.2158, 0.9473950
505.6979, 0.9350130
506.1800, 0.7941970
506.6621, 0.5959240
507.1442, 0.4314960
507.6263, 0.3360670
508.1085, 0.3150940
508.5906, 0.4116820
509.0727, 0.7245330
509.5548, 0.7954330
510.0369, 0.3430630
510.5190, 7.1135998E-02
511.0012, 0.2046430
511.4833, 0.1484830
511.9654, 9.9541001E-02
512.4475, 0.1573330
512.9296, 0.2642970
513.4117, 0.3224330
513.8939, 0.3298570
514.3760, 0.3055650
514.8581, 0.2422710
515.3402, 0.1576540
515.8223, 1.5633000E-02
516.3044, 0.1580730
516.7866, 0.1990130
517.2687, 0.1242450
517.7508, 0.5248110
518.2329, 0.6125030
518.7150, 0.4002000
519.1971, 0.1187130
519.6793, 0.1730960
520.1614, 0.4107670
520.6435, 0.4003370
521.1256, 2.5276000E-02
521.6077, 0.2075500
522.0898, 0.1128850
522.5720, 9.0538003E-02
523.0541, 0.2696000
523.5362, 0.3814700
524.0183, 0.3374790
524.5004, 3.9489999E-02
524.9825, 0.4206240
525.4647, 0.5516510
525.9468, 8.7867998E-02
526.4289, 0.4272770
526.9110, 0.1409910
527.3931, 0.3017500
527.8752, 0.5914000
528.3574, 0.6512370
528.8395, 0.4725800
529.3216, 8.5235998E-02
529.8037, 0.9094620
530.2858, 1.255882
530.7679, 0.9073410
531.2501, 0.5823520
531.7322, 0.5840000
532.2143, 0.7708970
532.6964, 1.054886
533.1785, 1.448196
533.6606, 1.766747
534.1428, 1.846519
534.6249, 1.770691
535.1070, 1.698845
535.5891, 1.649025
536.0712, 1.686325
536.5533, 1.885765
537.0355, 2.210701
537.5176, 2.454231
537.9997, 2.585503
538.4818, 2.689545
538.9639, 2.808296
539.4460, 2.897903
539.9282, 2.837227
540.4103, 2.636871
540.8924, 2.563293
541.3745, 2.945015
541.8566, 3.799034
542.3387, 4.319092
542.8209, 4.236511
543.3029, 4.120628
543.7850, 3.992043
544.2672, 3.933250
544.7493, 4.083305
545.2314, 4.466393
545.7135, 4.858475
546.1956, 5.021080
546.6777, 4.966293
547.1599, 4.773132
547.6420, 4.313019
548.1241, 3.997803
548.6062, 4.239555
549.0883, 4.763412
549.5704, 5.143379
550.0526, 5.288994
550.5347, 5.324364
551.0168, 5.280273
551.4989, 5.190628
551.9810, 5.119965
552.4631, 5.080711
552.9453, 5.094795
553.4274, 5.221077
553.9095, 5.459778
554.3916, 5.441322
554.8737, 4.917397
555.3558, 4.473694
555.8380, 4.291222
556.3201, 4.266937
556.8022, 4.283417
557.2843, 4.299667
557.7664, 4.346855
558.2485, 4.500229
558.7307, 4.764122
559.2128, 4.778572
559.6949, 4.293739
560.1770, 3.925781
560.6591, 3.987488
561.1412, 4.217354
561.6234, 4.293900
562.1055, 4.129044
562.5876, 3.903992
563.0697, 3.738480
563.5518, 3.637733
564.0339, 3.653999
564.5161, 3.823349
564.9982, 3.949020
565.4803, 3.857491
565.9624, 3.605026
566.4445, 3.454575
566.9266, 3.443306
567.4088, 3.479454
567.8909, 3.584610
568.3730, 3.679512
568.8551, 3.659248
569.3372, 3.530182
569.8193, 3.404808
570.3015, 3.383766
570.7836, 3.458496
571.2657, 3.533783
571.7478, 3.736275
572.2299, 3.768257
572.7120, 3.488480
573.1942, 3.090912
573.6763, 2.702499
574.1584, 2.365341
574.6405, 2.152946
575.1226, 2.208733
575.6047, 2.431831
576.0869, 2.420471
576.5690, 2.116760
577.0511, 1.935097
577.5332, 2.212708
578.0153, 2.624474
578.4974, 2.647049
578.9796, 2.190475
579.4617, 1.669159
579.9438, 1.174271
580.4259, 0.7765660
580.9080, 0.5401540
581.3901, 0.4664080
581.8723, 0.5395050
582.3544, 0.7709580
582.8365, 1.070763
583.3186, 1.235893
583.8007, 1.273277
584.2828, 1.239082
584.7650, 1.054291
585.2471, 0.8377000
585.7292, 0.6859660
586.2113, 0.6062390
586.6934, 0.5604400
587.1755, 0.5411070
587.6577, 0.5205610
588.1398, 0.4825820
588.6219, 0.4167710
589.1040, 0.3892750
589.5861, 0.4711230
590.0682, 0.5397190
590.5504, 0.3813860
591.0325, 6.1469998E-02
591.5146, 6.2330002E-03
591.9967, 0.7504430
592.4788, 1.471031
592.9609, 1.255219
593.4431, 0.4134750
593.9252, 9.7190998E-02
594.4073, 8.6937003E-02
594.8894, 0.5457150
595.3715, 0.6587830
595.8536, 0.2589720
596.3358, 0.2807620
596.8179, 1.307487
597.3000, 2.045708
597.7821, 1.760590
598.2642, 1.003159
598.7463, 0.6127780
599.2285, 0.8704680
599.7106, 1.322876
600.1927, 1.399872
600.6748, 1.118172
601.1569, 0.9470060
601.6390, 0.9429170
602.1212, 0.9690860
602.6033, 0.8540500
603.0854, 0.7506100
603.5675, 0.9554370
604.0496, 1.642632
604.5317, 2.225006
605.0139, 2.318634
605.4960, 2.166580
605.9781, 2.174667
606.4602, 2.363655
606.9423, 2.366928
607.4244, 1.879272
607.9066, 1.104042
608.3887, 0.9585340
608.8708, 2.178703
609.3529, 2.986351
609.8350, 3.119308
610.3171, 2.995369
610.7993, 2.765182
611.2814, 2.541298
611.7635, 2.523125
612.2456, 2.905464
612.7277, 3.479141
613.2098, 3.832405
613.6920, 3.961456
614.1741, 3.908287
614.6562, 3.585167
615.1383, 3.209244
615.6204, 2.960617
616.1025, 2.834930
616.5847, 2.853073
617.0668, 3.226593
617.5489, 3.538475
618.0310, 3.464294
618.5131, 3.145279
618.9952, 2.845871
619.4774, 2.648300
619.9595, 2.536575
620.4416, 2.491432
620.9237, 2.512123
621.4058, 2.645599
621.8879, 3.103790
622.3701, 3.406799
622.8522, 3.431221
623.3343, 3.273369
623.8164, 2.972824
624.2985, 2.559204
624.7806, 2.189705
625.2628, 1.980942
625.7448, 1.916161
626.2269, 2.025528
626.7090, 2.337334
627.1912, 2.465881
627.6733, 2.139114
628.1554, 1.619522
628.6375, 1.439598
629.1196, 1.671585
629.6017, 1.806412
630.0839, 1.671280
630.5660, 1.508003
631.0481, 1.506653
631.5302, 1.606323
632.0123, 1.640381
632.4944, 1.534927
632.9766, 1.381020
633.4587, 1.341629
633.9408, 1.439194
634.4229, 1.519936
634.9050, 1.665100
635.3871, 1.698364
635.8693, 1.474136
636.3514, 1.127129
636.8335, 0.8479770
637.3156, 0.6726680
637.7977, 0.5853880
638.2798, 0.5968860
638.7620, 0.6900790
639.2441, 0.8775410
639.7262, 1.146782
640.2083, 1.322838
640.6904, 1.282684
641.1725, 1.087952
641.6547, 0.9412310
642.1368, 0.9264140
642.6189, 0.8335800
643.1010, 0.5535960
643.5831, 0.2869190
644.0652, 0.1681440
644.5474, 0.1739500
645.0295, 0.2274550
645.5116, 0.3010100
645.9937, 0.3439640
646.4758, 0.1940920
646.9579, 0.1446150
647.4401, 0.1549530
647.9222, 0.4269490
648.4043, 0.9427260
648.8864, 0.6754680
649.3685, 5.8166999E-02
649.8506, 0.2387310
650.3328, 0.6878890
650.8149, 1.410980
651.2970, 1.252159
651.7791, 0.7134400
652.2612, 0.3418960
652.7433, 0.2197420
653.2255, 0.2176740
653.7076, 0.2486270
654.1897, 0.3099590
654.6718, 0.3907010
655.1539, 0.4688800
655.6360, 0.6029280
656.1182, 1.006966
656.6003, 1.286209
657.0824, 1.081055
657.5645, 0.5532990
658.0466, 0.2190320
658.5287, 0.3462450
659.0109, 0.6173860
659.4930, 0.7618940
659.9751, 0.8011630
660.4572, 0.8230130
660.9393, 0.8465190
661.4214, 0.8083340
661.9036, 0.6434630
662.3857, 0.3629910
662.8678, 9.1789000E-02
663.3499, 0.3712160
663.8320, 0.5531230
664.3141, 0.1361240
664.7963, 0.3672940
665.2784, 0.4955220
665.7605, 0.3092800
666.2426, 0.2349470
666.7247, 0.6198270
667.2068, 1.117264
667.6890, 0.9730000
668.1711, 0.2144550
668.6532, 0.1986310
669.1353, 2.0804999E-02
669.6174, 0.4688950
670.0995, 0.8652950
670.5817, 1.183769
671.0638, 1.246078
671.5459, 0.7371060
672.0280, 0.3526760
672.5101, 0.4549260
672.9922, 0.7214660
673.4744, 0.7526320
673.9565, 0.5243760
674.4386, 0.3081280
674.9207, 0.3199160
675.4028, 0.4763950
675.8849, 0.4635010
676.3671, 0.2075650
676.8492, 0.1098560
677.3313, 0.4136280
677.8134, 0.7128750
678.2955, 0.5766600
678.7776, 0.1557850
679.2598, 6.8819998E-03
679.7419, 0.4545210
680.2240, 0.8881230
680.7061, 0.8283460
681.1882, 0.5258030
681.6703, 0.3548660
682.1525, 0.3951110
682.6346, 0.5511320
683.1167, 0.7390290
683.5988, 0.9544910
684.0809, 1.186401
684.5630, 1.577812
685.0452, 1.675903
685.5273, 1.030449
686.0094, 0.4151080
686.4915, 0.4014890
686.9736, 0.8008580
687.4557, 0.9666900
687.9379, 0.4831160
688.4200, 4.1199999E-04
688.9021, 0.3103100
689.3842, 1.028931
689.8663, 1.153374
690.3484, 0.5158840
690.8306, 0.1711270
691.3127, 0.3590390
691.7948, 0.1225970
692.2769, 0.1599810
692.7590, 0.6856920
693.2411, 0.9247590
693.7233, 0.5485990
694.2054, 0.1793670
694.6875, 0.3195040
695.1696, 0.7785190
695.6517, 0.9869690
696.1339, 0.6158370
696.6160, 0.1420900
697.0981, 0.1848370
697.5802, 0.5910490
698.0623, 0.7841640
698.5444, 0.6705020
699.0266, 0.4546970
699.5087, 0.2576980
699.9908, 0.1025920
700.4729, 7.1266003E-02
700.9550, 0.2757720
701.4371, 0.4312440
701.9193, 0.5097810
702.4014, 0.5619050
702.8835, 0.6066740
703.3656, 0.6584550
703.8477, 0.7180630
704.3298, 0.7866060
704.8120, 0.8789060
705.2941, 1.112396
705.7762, 1.415588
706.2583, 1.310760
706.7404, 0.6695480
707.2225, 0.1391680
707.7046, 4.2656001E-02
708.1867, 0.3718260
708.6688, 1.189941
709.1509, 3.080437
709.6331, 3.946823
710.1152, 2.816788
710.5973, 1.461067
711.0794, 0.7970730
711.5615, 0.6824570
712.0436, 0.7662430
712.5258, 0.9105450
713.0079, 1.028214
713.4900, 0.9371570
713.9721, 0.7102510
714.4542, 0.8494870
714.9363, 1.464531
715.4185, 1.807381
715.9006, 1.396973
716.3827, 0.7186130
716.8648, 0.6602780
717.3469, 1.319237
717.8290, 1.709114
718.3112, 1.605423
718.7933, 1.385567
719.2754, 1.144989
719.7575, 0.9409100
720.2396, 0.8751750
720.7217, 0.9627080
721.2039, 1.074020
721.6860, 1.117867
722.1681, 1.087341
722.6502, 0.9415590
723.1323, 0.6493230
723.6144, 0.4679410
724.0966, 0.5176240
724.5787, 0.6811450
725.0608, 0.8057170
725.5429, 0.8687520
726.0250, 0.8547590
726.5071, 0.7312470
726.9893, 0.6108630
727.4714, 0.4959260
727.9535, 0.3896100
728.4356, 0.3507540
728.9177, 0.3723830
729.3998, 0.3565670
729.8820, 0.1968460
730.3641, 1.7325999E-02
730.8462, 0.1789320
731.3283, 0.6990280
731.8104, 0.9870680
732.2925, 0.8502200
732.7747, 0.6374510
733.2568, 0.6736300
733.7389, 0.9156420
734.2210, 1.082077
734.7031, 1.200462
735.1852, 1.235657
735.6674, 0.9904330
736.1495, 0.7264330
736.6316, 0.7228390
737.1137, 0.9237820
737.5958, 1.147194
738.0779, 1.313438
738.5601, 1.353287
739.0422, 1.050797
739.5243, 0.4683530
740.0064, 0.2547610
740.4885, 0.5400240
740.9706, 0.8353270
741.4528, 0.8616490
741.9349, 0.7315140
742.4170, 0.6855550
742.8991, 0.7080080
743.3812, 0.8603210
743.8633, 1.405121
744.3455, 1.824478
744.8276, 1.750534
745.3097, 1.367096
745.7918, 0.9957120
746.2739, 0.7386860
746.7560, 0.5949860
747.2382, 0.6275860
747.7203, 0.7556690
748.2024, 0.7084880
748.6845, 0.4720610
749.1666, 0.2617490
749.6487, 0.1784590
750.1309, 0.1610180
750.6130, 0.1577220
751.0951, 0.1690900
751.5772, 0.1173710
752.0593, 0.1016850
752.5414, 0.2444380
753.0236, 0.2610780
753.5057, 0.1782990
753.9878, 5.1132001E-02
754.4699, 0.3622590
754.9520, 0.5441970
755.4341, 0.4173740
755.9163, 0.2433620
756.3984, 0.4701230
756.8805, 0.9696730
757.3626, 1.142944
757.8447, 0.8745500
758.3268, 0.5841450
758.8090, 0.5894240
759.2911, 0.7798000
759.7732, 0.7801970
760.2553, 0.4117360
760.7374, 0.1819000
761.2195, 0.2048490
761.7017, 0.2393650
762.1838, 0.1559680
762.6659, 1.5807999E-02
763.1480, 8.8264003E-02
763.6301, 0.1324540
764.1122, 0.1024090
764.5944, 3.5094999E-02
765.0765, 0.2337190
765.5586, 0.5133440
766.0407, 0.8326340
766.5228, 0.8654860
767.0049, 0.4623110
767.4871, 3.0121000E-02
767.9692, 0.1457600
768.4513, 0.1308900
768.9334, 0.3682790
769.4155, 0.6052170
769.8976, 0.7420880
770.3798, 0.7406690
770.8619, 0.6480410
771.3440, 0.4250870
771.8261, 0.1198270
772.3082, 3.8070999E-02
772.7903, 0.2149120
773.2725, 0.3900300
773.7546, 5.6038000E-02
774.2367, 0.7129750
774.7188, 0.8693920
775.2009, 0.4929280
775.6830, 8.6418003E-02
776.1652, 2.2163000E-02
776.6473, 4.2824000E-02
777.1294, 4.0534999E-02
777.6115, 0.3226170
778.0936, 0.3792880
778.5757, 1.7821999E-02
779.0579, 0.2591320
779.5400, 0.2279360
780.0221, 0.9722140
780.5042, 1.148804
780.9863, 0.6222990
781.4684, 9.0401001E-02
781.9506, 0.4103010
782.4327, 0.7255330
782.9148, 0.6271510
783.3969, 0.3250730
783.8790, 0.2048340
784.3611, 0.3423160
784.8433, 0.4314270
785.3254, 0.1201400
785.8075, 0.4106370
786.2896, 0.5552520
786.7717, 0.3073880
787.2538, 0.2373580
787.7360, 0.5675890
788.2181, 0.8267590
788.7002, 0.5169530
789.1823, 0.2544630
789.6644, 0.6308980
790.1465, 0.3273240
790.6286, 7.4584998E-02
791.1107, 0.1710430
791.5928, 0.2718810
792.0750, 0.1634830
792.5571, 0.7573620
793.0392, 0.5790480
793.5213, 0.8111880
794.0034, 2.059082
794.4855, 1.657097
794.9677, 0.4464260
795.4498, 2.4239000E-02
795.9319, 0.3766480
796.4140, 0.7791370
796.8961, 0.9447250
797.3782, 0.8913800
797.8604, 0.6162800
798.3425, 0.1180270
798.8246, 0.1496580
799.3067, 9.8640002E-02
799.7888, 4.9740002E-03
800.2709, 0.2590710
800.7531, 0.4147420
801.2352, 0.1155620
801.7173, 0.5002900
802.1994, 0.7419820
802.6815, 0.1267090
803.1636, 0.4565730
803.6458, 0.4541090
804.1279, 0.2214050
804.6100, 0.1259690
805.0921, 0.2169190
805.5742, 0.4865490
806.0563, 0.9409330
806.5385, 1.368843
807.0206, 1.363152
807.5027, 0.9680250
807.9848, 0.7922210
808.4669, 0.9197240
808.9490, 0.9459990
809.4312, 0.6158140
809.9133, 0.1796190
810.3954, 5.7617001E-02
810.8775, 0.3286970
811.3596, 0.4688190
811.8417, 0.4779210
812.3239, 0.3776090
812.8060, 7.8766003E-02
813.2881, 0.4826200
813.7702, 0.3395540
814.2523, 0.2729030
814.7344, 0.7910390
815.2166, 0.8913270
815.6987, 0.8755040
816.1808, 1.096947
816.6629, 1.425804
817.1450, 1.531166
817.6271, 1.400757
818.1093, 1.302246
818.5914, 1.387520
819.0735, 1.581490
819.5556, 1.743988
820.0377, 1.886795
820.5198, 1.861389
821.0020, 1.543610
821.4841, 1.296013
821.9662, 1.248192
822.4483, 1.355743
822.9304, 1.588432
823.4125, 1.936844
823.8947, 2.291962
824.3768, 2.821404
824.8589, 3.127380
825.3410, 2.802841
825.8231, 2.303680
826.3052, 2.138367
826.7874, 2.314217
827.2695, 2.608376
827.7516, 2.921509
828.2337, 3.201752
828.7158, 3.375305
829.1979, 3.453110
829.6801, 3.485291
830.1622, 3.472923
830.6443, 3.359055
831.1264, 3.067513
831.6085, 2.711014
832.0906, 2.459427
832.5728, 2.346657
833.0549, 2.360718
833.5370, 2.501923
834.0191, 2.757111
834.5012, 3.322617
834.9833, 3.828941
835.4655, 3.818138
835.9476, 3.419151
836.4297, 3.352806
836.9118, 4.155251
837.3939, 4.837311
837.8760, 4.594238
838.3582, 4.071213
838.8403, 3.982536
839.3224, 4.334190
839.8045, 4.865906
840.2866, 5.474045
840.7687, 6.041489
841.2509, 6.375847
841.7330, 6.493530
842.2151, 6.452446
842.6972, 6.233223
843.1793, 6.285393
843.6614, 6.814514
844.1436, 7.479706
844.6257, 7.904022
845.1078, 8.091759
845.5899, 8.217743
846.0720, 8.189041
846.5541, 8.232399
847.0363, 8.401169
847.5184, 8.585648
848.0005, 8.710228
848.4826, 8.837868
848.9647, 9.110863
849.4468, 9.563080
849.9290, 10.16612
850.4111, 11.12389
850.8932, 12.05212
851.3753, 12.39605
851.8574, 12.37881
852.3395, 12.65861
852.8217, 13.40633
853.3038, 14.19540
853.7859, 14.60336
854.2680, 14.72684
854.7501, 14.82253
855.2322, 14.89098
855.7144, 15.02216
856.1965, 15.22018
856.6786, 15.54421
857.1607, 16.07365
857.6428, 16.74223
858.1249, 17.33274
858.6071, 17.72849
859.0892, 18.29579
859.5713, 19.17661
860.0534, 20.03207
860.5355, 20.79765
861.0176, 21.47202
861.4998, 22.00726
861.9819, 22.42204
862.4640, 23.02650
862.9461, 24.13483
863.4282, 25.27872
863.9103, 26.14240
864.3925, 26.83846
864.8746, 27.46900
865.3567, 28.08821
865.8388, 28.77943
866.3209, 29.59531
866.8030, 30.47311
867.2852, 31.30305
867.7673, 32.10081
868.2494, 32.98891
868.7315, 33.97752
869.2136, 34.84416
869.6957, 35.44196
870.1779, 36.09726
870.6600, 37.31398
871.1421, 39.09731
871.6242, 40.30431
872.1063, 40.41270
872.5884, 40.86287
873.0705, 42.14871
873.5526, 43.59743
874.0347, 44.86763
874.5168, 45.98021
874.9990, 47.03738
875.4811, 48.05001
875.9632, 48.99855
876.4453, 49.72650
876.9274, 50.52528
877.4095, 51.72148
877.8917, 53.09892
878.3738, 54.26849
878.8559, 55.15276
879.3380, 55.99043
879.8201, 56.97785
880.3022, 58.01186
880.7844, 58.86927
881.2665, 59.62726
881.7486, 60.59880
882.2307, 61.82146
882.7128, 63.03680
883.1949, 64.08020
883.6771, 65.00408
884.1592, 65.89878
884.6413, 66.75854
885.1234, 67.64352
885.6055, 68.56418
886.0876, 69.49249
886.5698, 70.51644
887.0519, 71.46352
887.5340, 72.06881
888.0161, 72.34986
888.4982, 72.71233
888.9803, 73.16757
889.4625, 73.75622
889.9446, 74.66098
890.4267, 75.57529
890.9088, 76.28691
891.3909, 76.82899
891.8730, 77.31627
892.3552, 77.78842
892.8373, 78.13940
893.3194, 78.34457
893.8015, 78.37248
894.2836, 78.04726
894.7657, 77.54491
895.2479, 77.35868
895.7300, 77.50481
896.2121, 77.34520
896.6942, 76.34477
897.1763, 74.94141
897.6584, 74.14334
898.1406, 73.87595
898.6227, 73.09399
899.1048, 71.66508
899.5869, 70.26759
900.0690, 69.23685
900.5511, 68.30562
901.0333, 67.06702
901.5154, 65.51572
901.9975, 64.08956
902.4796, 62.88406
902.9617, 61.55891
903.4438, 60.18955
903.9260, 58.57709
904.4081, 56.25114
904.8902, 53.62294
905.3723, 51.85985
905.8544, 51.47224
906.3365, 50.85741
906.8187, 49.50690
907.3008, 47.95378
907.7829, 46.41919
908.2650, 44.94382
908.7471, 43.55546
909.2292, 42.25298
909.7114, 40.95850
910.1935, 39.57350
910.6756, 38.27571
911.1577, 37.39159
911.6398, 36.65658
912.1219, 35.54314
912.6041, 34.07008
913.0862, 32.57881
913.5683, 31.23222
914.0504, 29.98970
914.5325, 28.76428
915.0146, 27.59165
915.4968, 26.69830
915.9789, 26.09772
916.4610, 25.34742
916.9431, 24.31128
917.4252, 23.17107
917.9073, 22.02632
918.3895, 20.92716
918.8716, 20.06055
919.3537, 19.50411
919.8358, 18.96974
920.3179, 18.54881
920.8000, 18.01406
921.2822, 17.17845
921.7643, 16.24390
922.2464, 15.41250
922.7285, 14.68724
923.2106, 14.04375
923.6927, 13.62809
924.1749, 13.09098
924.6570, 12.25042
925.1391, 11.32939
925.6212, 10.50710
926.1033, 9.747574
926.5854, 8.875580
927.0676, 7.830444
927.5497, 7.045456
928.0318, 6.916656
928.5139, 7.092789
928.9960, 7.412712
929.4781, 7.699333
929.9603, 7.601509
930.4424, 7.104980
930.9245, 6.475037
931.4066, 5.861755
931.8887, 5.312454
932.3708, 4.957558
932.8530, 4.737556
933.3351, 4.396683
933.8172, 3.927628
934.2993, 3.419930
934.7814, 2.898903
935.2635, 2.470558
935.7457, 2.263054
936.2278, 2.243271
936.7099, 2.227356
937.1920, 2.221581
937.6741, 2.210831
938.1563, 2.277008
938.6384, 2.130951
939.1205, 1.442299
939.6026, 0.5792690
940.0847, 0.2310490
940.5668, 0.5104520
941.0490, 0.6416020
941.5311, 0.4867400
942.0132, 0.3792650
942.4953, 0.5064850
942.9774, 0.5905990
943.4595, 0.3513340
943.9417, 8.5410997E-02
944.4238, 0.3888320
944.9059, 0.5002060
945.3880, 0.4583050
945.8701, 2.3040001E-03
946.3522, 0.3161390
946.8344, 7.7872999E-02
947.3165, 0.7469330
947.7986, 1.105400
948.2807, 1.090538
948.7628, 0.9765700
949.2449, 0.8774410
949.7271, 0.8123550
950.2092, 0.7844310
950.6913, 0.8111500
951.1734, 0.9973070
951.6555, 1.264091
952.1376, 1.335609
952.6198, 1.131149
953.1019, 0.8738860
953.5840, 0.8021390
954.0661, 0.7981410
954.5482, 0.4993290
955.0303, 2.5374999E-02
955.5124, 0.3028640
955.9945, 0.2671660
956.4766, 0.1066440
956.9587, 9.8693997E-02
957.4409, 0.2566070
957.9230, 0.1850510
958.4051, 0.1085360
958.8872, 0.1528020
959.3693, 0.1766660
959.8514, 0.1793670
960.3336, 0.4489360
960.8157, 1.079674
961.2978, 1.216209
961.7799, 1.020363
962.2620, 0.9395600
962.7441, 0.9909060
963.2263, 1.106049
963.7084, 1.354164
964.1905, 1.572861
964.6726, 1.664322
965.1547, 1.754120
965.6368, 1.927071
966.1190, 2.190514
966.6011, 2.576416
967.0832, 3.253014
967.5653, 3.718529
968.0474, 3.589272
968.5295, 3.520416
969.0117, 3.901260
969.4938, 4.561577
969.9759, 5.319450
970.4580, 6.113983
970.9401, 6.806114
971.4222, 7.257782
971.9044, 7.713608
972.3865, 8.275604
972.8686, 8.960754
973.3507, 9.826942
973.8328, 10.81980
974.3149, 11.81443
974.7971, 12.77653
975.2792, 13.80248
975.7613, 15.07104
976.2434, 16.32382
976.7255, 16.94859
977.2076, 17.37984
977.6898, 18.67157
978.1719, 20.80437
978.6540, 23.03024
979.1361, 25.00263
979.6182, 26.63316
980.1003, 27.62412
980.5825, 28.25917
981.0646, 29.49033
981.5467, 31.25901
982.0288, 33.19704
982.5109, 35.22326
982.9930, 37.06821
983.4752, 38.55475
983.9573, 39.72635
984.4394, 40.63524
984.9215, 41.27928
985.4036, 41.87920
985.8857, 42.46756
986.3679, 42.79357
986.8500, 42.75354
987.3321, 42.56673
987.8142, 42.43544
988.2963, 42.26888
988.7784, 41.74374
989.2606, 40.69164
989.7427, 39.90565
990.2248, 39.59699
990.7069, 39.14159
991.1890, 38.28590
991.6711, 37.26466
992.1533, 36.26901
992.6354, 35.29766
993.1175, 34.34681
993.5996, 33.25972
994.0817, 32.48052
994.5638, 32.27540
995.0460, 32.06254
995.5281, 31.76965
996.0102, 31.25583
996.4923, 30.14027
996.9744, 28.56460
997.4565, 27.59927
997.9387, 27.96930
998.4208, 28.09219
998.9029, 27.49212
999.3850, 26.61082
999.8671, 25.51880
1000.349, 24.43334
1000.831, 23.74271
1001.313, 23.43017
1001.796, 22.90379
1002.278, 21.81376
1002.760, 20.62386
1003.242, 19.43401
1003.724, 18.39360
1004.206, 17.64562
1004.688, 17.12289
1005.170, 16.69275
1005.653, 16.31722
1006.135, 15.89912
1006.617, 15.39918
1007.099, 14.80802
1007.581, 13.92949
1008.063, 13.06947
1008.545, 12.81291
1009.027, 12.96067
1009.509, 12.84039
1009.992, 12.23972
1010.474, 11.49320
1010.956, 10.78316
1011.438, 10.19611
1011.920, 9.983437
1012.402, 10.01791
1012.884, 9.885101
1013.366, 9.557175
1013.849, 9.415787
1014.331, 9.638763
1014.813, 9.843468
1015.295, 9.534767
1015.777, 8.964218
1016.259, 8.782158
1016.741, 8.909386
1017.223, 8.921570
1017.705, 8.727638
1018.188, 8.504692
1018.670, 8.328545
1019.152, 8.191307
1019.634, 8.098656
1020.116, 7.993248
1020.598, 7.712326
1021.080, 7.300652
1021.562, 7.237907
1022.044, 7.579582
1022.527, 7.871643
1023.009, 7.859337
1023.491, 7.685295
1023.973, 7.530373
1024.455, 7.382195
1024.937, 7.523155
1025.419, 8.010033
1025.901, 8.352768
1026.384, 8.467972
1026.866, 8.383827
1027.348, 8.075035
1027.830, 7.671837
1028.312, 7.386208
1028.794, 7.207283
1029.276, 7.388260
1029.758, 8.127052
1030.240, 8.488152
1030.723, 8.129135
1031.205, 7.752838
1031.687, 7.813232
1032.169, 8.162819
1032.651, 8.505096
1033.133, 8.830574
1033.615, 9.264496
1034.097, 10.02100
1034.579, 10.42301
1035.062, 10.05188
1035.544, 9.681755
1036.026, 9.915092
1036.508, 10.45538
1036.990, 10.65638
1037.472, 10.43035
1037.954, 10.34669
1038.436, 10.43407
1038.919, 10.60636
1039.401, 11.10590
1039.883, 11.43172
1040.365, 11.17757
1040.847, 10.52721
1041.329, 9.822845
1041.811, 8.995209
1042.293, 8.481789
1042.776, 8.670822
1043.258, 8.636452
1043.740, 8.080116
1044.222, 7.379135
1044.704, 6.638657
1045.186, 5.973183
1045.668, 5.666039
1046.150, 5.819901
1046.632, 5.737343
1047.115, 5.116463
1047.597, 4.566116
1048.079, 4.324852
1048.561, 4.116013
1049.043, 3.727776
1049.525, 3.235886
1050.007, 2.757568
1050.489, 2.297302
1050.971, 2.012192
1051.454, 2.060379
1051.936, 2.117607
1052.418, 2.209671
1052.900, 2.158783
1053.382, 1.647125
1053.864, 0.9771580
1054.346, 0.7509310
1054.828, 1.063545
1055.311, 1.268265
1055.793, 1.177856
1056.275, 0.9782330
1056.757, 0.5319290
1057.239, 0.1949460
1057.721, 0.4071430
1058.203, 0.8436660
1058.685, 0.8866350
1059.167, 0.4511030
1059.650, 8.1565998E-02
1060.132, 7.1693003E-02
1060.614, 9.3039997E-02
1061.096, 0.1316150
1061.578, 0.3385700
1062.060, 0.2380410
1062.542, 1.1963000E-02
1063.024, 8.9490004E-03
1063.506, 0.2151110
1063.989, 0.4382480
1064.471, 0.6037670
1064.953, 0.7038500
1065.435, 0.7339360
1065.917, 0.7018280
1066.399, 0.5884670
1066.881, 0.4316600
1067.363, 0.2630420
1067.846, 9.7057000E-02
1068.328, 1.7223001E-02
1068.810, 9.1060000E-03
1069.292, 3.5023000E-02
1069.774, 0.3065680
1070.256, 0.4930230
1070.738, 0.2474940
1071.220, 0.1852420
1071.703, 0.4765240
1072.185, 0.5761110
1072.667, 0.5664440
1073.149, 0.4727290
1073.631, 0.2893300
1074.113, 0.2432290
1074.595, 0.5991970
1075.077, 0.1132160
1075.559, 0.6034470
1076.042, 0.6358530
1076.524, 4.6050999E-02
1077.006, 0.3134460
1077.488, 5.8453001E-02
1077.970, 0.1435810
1078.452, 0.2294390
1078.934, 0.5268290
1079.416, 8.1184000E-02
1079.898, 0.5312350
1080.380, 0.5169720
1080.863, 4.6160002E-03
1081.345, 0.3385700
1081.827, 0.2553020
1082.309, 5.7362001E-02
1082.791, 0.1758880
1083.273, 0.4171490
1083.755, 0.7471580
1084.237, 0.9995540
1084.720, 0.9304850
1085.202, 0.6413380
1085.684, 0.4248120
1086.166, 0.3580860
1086.648, 0.3567770
1087.130, 0.3958780
1087.612, 0.4766430
1088.094, 0.6704480
1088.577, 0.8454970
1089.059, 0.8897550
1089.541, 0.8135150
1090.023, 0.6456950
1090.505, 0.3909650
1090.987, 0.1391750
1091.469, 0.1954120
1091.951, 0.3606910
1092.433, 7.1152002E-02
1092.916, 0.2559740
1093.398, 0.2758710
1093.880, 0.1075250
1094.362, 3.9211001E-02
1094.844, 0.1261220
1095.326, 0.1523320
1095.808, 4.0188000E-02
1096.290, 1.9283000E-02
1096.772, 0.1393320
1097.255, 0.2573510
1097.737, 0.1170010
1098.219, 0.1259650
1098.701, 0.2592510
1099.183, 0.2767910
1099.665, 0.2991370
1100.147, 0.3514370
1100.629, 0.4140360
1101.112, 0.4673730
1101.594, 0.5480270
1102.076, 0.7453000
1102.558, 0.9205970
1103.040, 0.9079090
1103.522, 0.7444760
1104.004, 0.6034010
1104.486, 0.5139160
1104.969, 0.4295230
1105.451, 0.2575450
1105.933, 0.2014540
1106.415, 0.3721430
1106.897, 0.6459580
1107.379, 1.008114
1107.861, 1.377670
1108.343, 1.556034
1108.825, 1.491737
1109.307, 1.454895
1109.790, 1.535130
1110.272, 1.550732
1110.754, 1.340637
1111.236, 1.186657
1111.718, 1.362415
1112.200, 1.654762
1112.682, 1.697617
1113.164, 1.474651
1113.647, 1.275799
1114.129, 1.021152
1114.611, 0.9259260
1115.093, 1.026363
1115.575, 1.265461
1116.057, 1.748737
1116.539, 2.231236
1117.021, 2.470272
1117.504, 2.458176
1117.986, 2.129414
1118.468, 1.159233
1118.950, 0.7077640
1119.432, 1.031868
1119.914, 1.354164
1120.396, 1.430828
1120.878, 1.416443
1121.360, 1.389263
1121.843, 1.416351
1122.325, 1.781063
1122.807, 2.645466
1123.289, 2.780960
1123.771, 1.888290
1124.253, 1.290737
1124.735, 1.319107
1125.217, 1.559322
1125.699, 1.804371
1126.182, 1.983894
1126.664, 1.968544
1127.146, 1.767265
1127.628, 1.551643
1128.110, 1.319679
1128.592, 1.180416
1129.074, 1.152267
1129.556, 1.220146
1130.039, 1.407204
1130.521, 1.519016
1131.003, 1.290337
1131.485, 0.8747220
1131.967, 0.8537220
1132.449, 1.198200
1132.931, 1.415871
1133.413, 1.463516
1133.896, 1.402458
1134.378, 1.249386
1134.860, 1.178440
1135.342, 1.389317
1135.824, 1.705963
1136.306, 1.804634
1136.788, 1.719658
1137.270, 1.593739
1137.752, 1.433384
1138.234, 1.287418
1138.717, 1.164623
1139.199, 1.095730
1139.681, 1.127563
1140.163, 1.199974
1140.645, 1.230141
1141.127, 1.247093
1141.609, 1.349617
1142.091, 1.468349
1142.574, 1.432053
1143.056, 1.262001
1143.538, 1.071781
1144.020, 0.9098850
1144.502, 0.8223110
1144.984, 0.8684540
1145.466, 0.9364400
1145.948, 0.8731690
1146.431, 0.7934530
1146.913, 0.8600500
1147.395, 1.012486
1147.877, 1.167782
1148.359, 1.277760
1148.841, 1.230602
1149.323, 0.9367640
1149.805, 0.6747780
1150.287, 0.6343150
1150.770, 0.7210880
1151.252, 0.9437330
1151.734, 1.176777
1152.216, 1.305183
1152.698, 1.328995
1153.180, 1.284019
1153.662, 1.185680
1154.144, 1.025723
1154.626, 0.5930600
1155.109, 0.3658600
1155.591, 0.6482430
1156.073, 1.057411
1156.555, 1.508808
1157.037, 1.829800
1157.519, 1.751926
1158.001, 1.329243
1158.483, 0.9937630
1158.966, 0.7347490
1159.448, 0.6743320
1159.930, 1.080357
1160.412, 1.329838
1160.894, 1.147518
1161.376, 0.8755990
1161.858, 0.7584690
1162.340, 0.7335280
1162.822, 0.6495670
1163.305, 0.4854050
1163.787, 0.4831920
1164.269, 0.6964000
1164.751, 0.9411850
1165.233, 1.230904
1165.715, 1.446247
1166.197, 1.543987
1166.679, 1.492798
1167.161, 1.214466
1167.644, 0.8005790
1168.126, 0.6453860
1168.608, 0.7571750
1169.090, 0.8437350
1169.572, 0.8938060
1170.054, 0.9386630
1170.536, 0.9847950
1171.018, 1.046852
1171.500, 1.147125
1171.983, 1.191624
1172.465, 0.9463200
1172.947, 0.5533790
1173.429, 0.5150340
1173.911, 0.7545470
1174.393, 1.041985
1174.875, 1.306522
1175.357, 1.383606
1175.840, 1.224102
1176.322, 1.019901
1176.804, 0.9452320
1177.286, 0.8804780
1177.768, 0.5924530
1178.250, 0.2640530
1178.732, 0.2203980
1179.214, 0.3348460
1179.697, 0.2774350
1180.179, 6.9224998E-02
1180.661, 5.5992000E-02
1181.143, 0.4006310
1181.625, 0.7754330
1182.107, 1.090363
1182.589, 1.240986
1183.071, 0.9813690
1183.553, 0.6802180
1184.036, 0.7596660
1184.518, 1.031857
1185.000, 1.067390
1185.482, 0.8234330
1185.964, 0.7154120
1186.446, 1.032547
1186.928, 1.249454
1187.410, 1.148579
1187.892, 0.9446640
1188.375, 0.7943190
1188.857, 0.6414720
1189.339, 0.3470040
1189.821, 3.1906001E-02
1190.303, 9.2030004E-02
1190.785, 0.6273920
1191.267, 0.8476490
1191.749, 0.5915110
1192.232, 0.4979210
1192.714, 0.7501030
1193.196, 0.9143830
1193.678, 0.7351260
1194.160, 0.4780810
1194.642, 0.4705240
1195.124, 0.6537550
1195.606, 0.8104670
1196.089, 0.9416200
1196.571, 1.079887
1197.053, 1.218292
1197.535, 1.162106
1198.017, 0.8735960
1198.499, 0.5954700
1198.981, 0.4744830
1199.463, 0.4955220
1199.945, 0.7101210
1200.427, 0.9968680
1200.910, 1.112427
1201.392, 1.111774
1201.874, 1.097549
1202.356, 1.085274
1202.838, 1.095310
1203.320, 1.119091
1203.802, 1.068123
1204.284, 0.8688890
1204.767, 0.6369930
1205.249, 0.3443720
1205.731, 0.1788600
1206.213, 0.4950640
1206.695, 0.8819960
1207.177, 0.7149430
1207.659, 0.2116170
1208.141, 0.1106110
1208.624, 0.5864300
1209.106, 0.9165420
1209.588, 0.8269500
1210.070, 0.7264400
1210.552, 0.6752320
1211.034, 0.6606030
1211.516, 0.6958690
1211.998, 0.7465020
1212.480, 0.7801510
1212.963, 0.8008840
1213.445, 0.8399960
1213.927, 0.9458580
1214.409, 0.7806020
1214.891, 0.2046810
1215.373, 6.4185999E-02
1215.855, 0.1573490
1216.337, 0.4784770
1216.819, 0.7157100
1217.302, 0.8246500
1217.784, 0.7210390
1218.266, 0.4963650
1218.748, 0.4549370
1219.230, 0.5556490
1219.712, 0.5966680
1220.194, 0.5771290
1220.676, 0.5290950
1221.159, 0.4773370
1221.641, 0.5376930
1222.123, 0.7795940
1222.605, 0.9917760
1223.087, 0.9435650
1223.569, 0.7691730
1224.051, 0.5355260
1224.533, 0.3350980
1225.016, 0.3199040
1225.498, 0.4220730
1225.980, 0.5215640
1226.462, 0.5830730
1226.944, 0.5656780
1227.426, 0.3996240
1227.908, 0.3115460
1228.390, 0.4500620
1228.872, 0.5614740
1229.354, 0.4325140
1229.837, 0.3394510
1230.319, 0.6292080
1230.801, 1.028198
1231.283, 0.9996030
1231.765, 0.5573500
1232.247, 0.3333630
1232.729, 0.4137920
1233.211, 0.4608570
1233.694, 0.4798360
1234.176, 0.3901860
1234.658, 0.1248250
1235.140, 5.4993000E-02
1235.622, 4.4238999E-02
1236.104, 0.3105470
1236.586, 0.6195450
1237.068, 0.8935590
1237.551, 0.6965370
1238.033, 0.1760520
1238.515, 2.5474999E-02
1238.997, 8.9690998E-02
1239.479, 0.1893770
1239.961, 0.1714630
1240.443, 0.1442950
1240.925, 0.1609190
1241.407, 0.2415890
1241.890, 0.5413590
1242.372, 0.7708740
1242.854, 0.6366200
1243.336, 0.2822110
1243.818, 0.3506090
1244.300, 0.9562000
1244.782, 0.8458480
1245.264, 2.0354999E-02
1245.746, 0.6798440
1246.229, 0.9030800
1246.711, 0.8724480
1247.193, 0.3261180
1247.675, 3.7684999E-02
1248.157, 0.1738850
1248.639, 0.4521370
1249.121, 0.4298170
1249.603, 0.2517510
1250.085, 0.1727680
1250.568, 0.1812250
1251.050, 0.1827090
1251.532, 0.1583710
1252.014, 0.2168810
1252.496, 0.3727990
1252.978, 0.6403160
1253.460, 1.022156
1253.942, 1.185879
1254.425, 0.8739400
1254.907, 0.4747050
1255.389, 0.5971790
1255.871, 0.9695850
1256.353, 1.134266
1256.835, 1.121391
1257.317, 0.9094770
1257.799, 0.5949520
1258.281, 0.3454740
1258.764, 0.2179110
1259.246, 0.3242650
1259.728, 0.8216970
1260.210, 1.116112
1260.692, 0.6779100
1261.174, 0.3685650
1261.656, 0.7514610
1262.138, 1.221523
1262.620, 1.324741
1263.103, 1.228638
1263.585, 1.254383
1264.067, 1.383289
1264.549, 1.365940
1265.031, 1.016705
1265.513, 0.8494300
1265.995, 0.4724620
1266.477, 0.2766000
1266.960, 0.4249500
1267.442, 0.6135750
1267.924, 0.6820410
1268.406, 0.6322630
1268.888, 0.4358830
1269.370, 0.1860050
1269.852, 3.5084002E-02
1270.334, 6.4810002E-03
1270.817, 0.1759490
1271.299, 0.4821550
1271.781, 0.6593510
1272.263, 0.6727290
1272.745, 0.6180230
1273.227, 0.4991380
1273.709, 0.3994410
1274.191, 0.3765750
1274.673, 0.3488540
1275.156, 0.1618270
1275.638, 0.1080630
1276.120, 0.5919110
1276.602, 1.138145
1277.084, 1.099365
1277.566, 0.6678160
1278.048, 0.5903430
1278.530, 0.9409750
1279.012, 1.123955
1279.495, 1.127556
1279.977, 0.9591370
1280.459, 0.5635800
1280.941, 0.3016590
1281.423, 0.3056260
1281.905, 0.5132560
1282.387, 0.9163090
1282.869, 1.247135
1283.352, 0.8746640
1283.834, 0.1837580
1284.316, 4.0509999E-03
1284.798, 0.0000000E+00
##END=



