##NAMES=Apachite
##RRUFFID=R060694
##IDEAL CHEMISTRY=Cu^2+^_9_Si_10_O_29_&#183;11H_2_O
##LOCALITY=Christmas mine, Gila County, Arizona, USA
##OWNER=RRUFF
##SOURCE=Bob Jenkins
##DESCRIPTION=Spherical aggregates of pale blue fibers, associated with yellowish-orange andradite and colorless calcite
##STATUS=The identification of this mineral is not yet confirmed.
##URL=rruff.info/R060694
202.519, 0.000
203.001, 8.133
203.483, 50.672
203.965, 116.855
204.447, 194.180
204.929, 248.430
205.411, 269.641
205.893, 289.664
206.376, 332.914
206.858, 407.152
207.340, 453.984
207.822, 459.305
208.304, 431.434
208.786, 423.355
209.268, 429.051
209.750, 424.395
210.232, 408.539
210.714, 379.918
211.197, 352.652
211.679, 332.730
212.161, 318.965
212.643, 294.715
213.125, 262.430
213.607, 218.074
214.089, 147.672
214.572, 27.930
215.054, 47.539
215.536, 49.156
216.018, 23.633
216.500, 64.125
216.982, 62.438
217.464, 50.766
217.946, 61.465
218.428, 102.719
218.911, 141.215
219.393, 170.957
219.875, 191.207
220.357, 201.570
220.839, 200.441
221.321, 191.680
221.803, 177.754
222.285, 153.512
222.767, 138.555
223.250, 142.773
223.732, 169.859
224.214, 181.402
224.696, 176.684
225.178, 159.469
225.660, 129.188
226.142, 66.398
226.624, 29.672
227.107, 46.789
227.589, 131.785
228.071, 158.508
228.553, 85.570
229.035, 14.324
229.517, 38.977
229.999, 55.184
230.481, 143.375
230.963, 189.848
231.445, 186.043
231.928, 189.570
232.410, 208.766
232.892, 229.664
233.374, 228.742
233.856, 188.785
234.338, 157.738
234.820, 150.094
235.303, 170.500
235.785, 196.750
236.267, 233.473
236.749, 273.914
237.231, 310.109
237.713, 356.578
238.195, 373.895
238.677, 335.316
239.159, 208.715
239.641, 161.445
240.124, 232.016
240.606, 357.434
241.088, 433.754
241.570, 432.820
242.052, 427.844
242.534, 442.605
243.016, 484.219
243.498, 517.312
243.981, 536.277
244.463, 548.078
244.945, 565.129
245.427, 588.371
245.909, 609.762
246.391, 625.488
246.873, 631.887
247.355, 643.008
247.837, 667.859
248.320, 701.234
248.802, 737.082
249.284, 796.113
249.766, 816.074
250.248, 787.672
250.730, 703.480
251.212, 634.293
251.694, 601.941
252.176, 585.176
252.659, 578.727
253.141, 610.906
253.623, 623.004
254.105, 587.953
254.587, 486.852
255.069, 420.129
255.551, 397.445
256.033, 403.730
256.516, 412.508
256.998, 420.266
257.480, 437.266
257.962, 471.336
258.444, 531.098
258.926, 563.266
259.408, 550.559
259.890, 521.609
260.372, 530.660
260.855, 597.379
261.337, 657.500
261.819, 686.387
262.301, 677.473
262.783, 666.578
263.265, 650.191
263.747, 633.930
264.229, 628.277
264.711, 636.672
265.194, 646.859
265.676, 663.309
266.158, 693.441
266.640, 665.004
267.122, 547.758
267.604, 407.238
268.086, 359.738
268.569, 440.996
269.051, 508.801
269.533, 505.848
270.015, 423.352
270.497, 376.117
270.979, 377.461
271.461, 396.344
271.943, 387.355
272.425, 346.906
272.908, 293.680
273.390, 225.301
273.872, 142.434
274.354, 107.625
274.836, 136.254
275.318, 184.570
275.800, 183.820
276.282, 121.520
276.764, 79.922
277.247, 91.871
277.729, 155.488
278.211, 213.516
278.693, 269.691
279.175, 310.355
279.657, 305.301
280.139, 247.902
280.621, 213.168
281.103, 237.070
281.586, 309.184
282.068, 344.906
282.550, 340.422
283.032, 311.828
283.514, 260.715
283.996, 186.293
284.478, 153.645
284.960, 210.086
285.443, 327.109
285.925, 346.277
286.407, 254.113
286.889, 145.461
287.371, 132.004
287.853, 207.180
288.335, 257.918
288.817, 242.137
289.299, 182.496
289.782, 151.051
290.264, 150.016
290.746, 151.863
291.228, 131.277
291.710, 90.668
292.192, 42.719
292.674, 17.492
293.156, 76.977
293.638, 102.645
294.121, 94.148
294.603, 75.492
295.085, 68.730
295.567, 67.531
296.049, 47.613
296.531, 13.566
297.013, 79.613
297.496, 75.410
297.978, 7.566
298.460, 55.539
298.942, 47.238
299.424, 3.488
299.906, 27.859
300.388, 7.648
300.870, 46.613
301.352, 0.430
301.835, 117.586
302.317, 222.484
302.799, 237.375
303.281, 210.895
303.763, 217.734
304.245, 278.852
304.727, 355.828
305.209, 409.836
305.691, 446.664
306.174, 481.102
306.656, 545.434
307.138, 607.262
307.620, 623.348
308.102, 576.039
308.584, 522.773
309.066, 503.133
309.548, 510.742
310.030, 529.805
310.513, 570.359
310.995, 609.160
311.477, 620.156
311.959, 594.562
312.441, 569.805
312.923, 575.148
313.405, 595.652
313.887, 608.410
314.370, 611.871
314.852, 601.438
315.334, 566.234
315.816, 500.738
316.298, 449.199
316.780, 445.566
317.262, 462.699
317.744, 466.805
318.226, 418.988
318.709, 381.371
319.191, 386.016
319.673, 436.691
320.155, 484.945
320.637, 519.613
321.119, 544.133
321.601, 561.664
322.083, 555.113
322.565, 557.828
323.048, 579.398
323.530, 618.973
324.012, 661.371
324.494, 692.863
324.976, 732.137
325.458, 791.719
325.940, 937.520
326.422, 1030.238
326.905, 1024.766
327.387, 937.008
327.869, 884.410
328.351, 895.410
328.833, 922.434
329.315, 942.488
329.797, 942.941
330.279, 955.945
330.762, 1000.438
331.244, 1059.855
331.726, 1074.098
332.208, 1004.211
332.690, 938.598
333.172, 920.535
333.654, 987.105
334.136, 1010.676
334.618, 973.180
335.100, 903.914
335.583, 855.227
336.065, 824.152
336.547, 819.656
337.029, 853.902
337.511, 937.332
337.993, 991.527
338.475, 1012.645
338.957, 1007.645
339.440, 977.938
339.922, 913.852
340.404, 866.766
340.886, 862.941
341.368, 897.027
341.850, 895.180
342.332, 853.770
342.814, 788.984
343.297, 702.043
343.779, 592.930
344.261, 528.711
344.743, 547.836
345.225, 617.855
345.707, 621.977
346.189, 556.051
346.671, 485.695
347.153, 467.566
347.635, 492.777
348.118, 520.188
348.600, 542.203
349.082, 559.738
349.564, 572.902
350.046, 580.781
350.528, 584.551
351.010, 593.605
351.492, 598.934
351.975, 578.957
352.457, 524.543
352.939, 459.223
353.421, 401.738
353.903, 354.711
354.385, 324.980
354.867, 331.332
355.349, 344.938
355.832, 331.172
356.314, 283.477
356.796, 237.008
357.278, 226.676
357.760, 233.516
358.242, 225.695
358.724, 184.426
359.206, 135.281
359.688, 83.438
360.171, 26.133
360.653, 12.953
361.135, 6.812
361.617, 15.953
362.099, 27.043
362.581, 10.738
363.063, 33.473
363.545, 2.359
364.027, 71.562
364.510, 113.523
364.992, 74.684
365.474, 17.340
365.956, 20.789
366.438, 10.078
366.920, 10.152
367.402, 39.680
367.884, 85.062
368.366, 107.609
368.849, 84.844
369.331, 55.652
369.813, 35.938
370.295, 40.020
370.777, 17.402
371.259, 59.547
371.741, 150.332
372.224, 189.457
372.706, 144.395
373.188, 100.633
373.670, 77.957
374.152, 75.707
374.634, 94.844
375.116, 145.645
375.598, 199.602
376.080, 223.723
376.562, 209.691
377.045, 199.852
377.527, 203.367
378.009, 218.297
378.491, 241.672
378.973, 280.055
379.455, 297.844
379.937, 240.047
380.419, 114.445
380.902, 67.617
381.384, 143.281
381.866, 269.938
382.348, 300.230
382.830, 242.125
383.312, 193.484
383.794, 219.852
384.276, 298.840
384.759, 379.000
385.241, 456.617
385.723, 527.504
386.205, 582.480
386.687, 623.496
387.169, 657.344
387.651, 682.723
388.133, 701.684
388.615, 710.875
389.098, 709.758
389.580, 718.559
390.062, 764.398
390.544, 823.754
391.026, 867.492
391.508, 878.672
391.990, 881.961
392.472, 896.594
392.954, 918.465
393.437, 927.422
393.919, 903.375
394.401, 873.492
394.883, 854.594
395.365, 850.293
395.847, 857.672
396.329, 887.379
396.811, 927.191
397.293, 954.320
397.776, 965.480
398.258, 961.477
398.740, 934.602
399.222, 870.820
399.704, 834.594
400.186, 842.762
400.668, 868.129
401.151, 884.789
401.633, 895.617
402.115, 892.703
402.597, 869.238
403.079, 828.574
403.561, 801.973
404.043, 791.992
404.525, 792.883
405.007, 808.676
405.490, 850.145
405.972, 852.996
406.454, 799.273
406.936, 717.559
407.418, 666.676
407.900, 646.539
408.382, 657.102
408.864, 726.879
409.346, 841.293
409.828, 873.168
410.311, 808.465
410.793, 714.867
411.275, 664.359
411.757, 652.312
412.239, 657.812
412.721, 683.434
413.203, 716.082
413.685, 723.648
414.168, 709.152
414.650, 711.613
415.132, 793.594
415.614, 900.680
416.096, 947.453
416.578, 886.375
417.060, 814.027
417.542, 804.949
418.025, 842.707
418.507, 884.543
418.989, 924.281
419.471, 956.117
419.953, 975.141
420.435, 979.023
420.917, 977.328
421.399, 972.449
421.881, 966.754
422.364, 961.777
422.846, 938.469
423.328, 942.590
423.810, 1012.867
424.292, 1152.250
424.774, 1218.680
425.256, 1122.703
425.738, 1014.414
426.220, 984.254
426.703, 1102.602
427.185, 1178.227
427.667, 1176.625
428.149, 1134.246
428.631, 1151.762
429.113, 1257.699
429.595, 1356.078
430.077, 1399.227
430.560, 1381.848
431.042, 1405.770
431.524, 1485.215
432.006, 1571.305
432.488, 1599.969
432.970, 1571.406
433.452, 1544.086
433.934, 1533.055
434.417, 1534.516
434.899, 1537.551
435.381, 1542.676
435.863, 1555.883
436.345, 1605.211
436.827, 1666.012
437.309, 1666.426
437.791, 1578.582
438.273, 1481.695
438.755, 1470.465
439.238, 1513.520
439.720, 1535.344
440.202, 1473.797
440.684, 1392.344
441.166, 1351.805
441.648, 1355.238
442.130, 1333.418
442.612, 1217.008
443.095, 1074.363
443.577, 972.109
444.059, 958.895
444.541, 953.730
445.023, 930.926
445.505, 898.129
445.987, 885.316
446.469, 933.332
446.952, 973.098
447.434, 974.945
447.916, 926.109
448.398, 872.840
448.880, 813.375
449.362, 751.223
449.844, 689.602
450.326, 621.234
450.808, 570.117
451.290, 545.832
451.773, 544.926
452.255, 535.141
452.737, 511.648
453.219, 491.457
453.701, 493.551
454.183, 517.438
454.665, 524.656
455.147, 509.840
455.630, 478.648
456.112, 438.332
456.594, 389.656
457.076, 335.336
457.558, 257.449
458.040, 181.016
458.522, 164.352
459.004, 209.914
459.487, 260.336
459.969, 271.711
460.451, 257.199
460.933, 236.371
461.415, 215.105
461.897, 189.941
462.379, 146.922
462.861, 95.922
463.343, 67.223
463.826, 77.555
464.308, 111.340
464.790, 171.543
465.272, 277.473
465.754, 340.441
466.236, 321.531
466.718, 259.207
467.200, 196.887
467.682, 105.047
468.165, 52.070
468.647, 62.348
469.129, 128.316
469.611, 170.949
470.093, 183.191
470.575, 181.824
471.057, 172.672
471.539, 150.930
472.022, 140.105
472.504, 142.160
472.986, 152.539
473.468, 173.930
473.950, 207.430
474.432, 210.996
474.914, 151.152
475.396, 55.238
475.878, 14.547
476.361, 30.250
476.843, 49.223
477.325, 21.719
477.807, 32.020
478.289, 77.320
478.771, 112.406
479.253, 121.133
479.735, 55.809
480.217, 48.898
480.700, 112.414
481.182, 25.898
481.664, 61.762
482.146, 41.562
482.628, 95.945
483.110, 216.164
483.592, 259.816
484.074, 270.465
484.556, 282.570
485.039, 302.754
485.521, 319.641
486.003, 340.578
486.485, 356.664
486.967, 341.441
487.449, 266.766
487.931, 201.258
488.414, 176.238
488.896, 201.754
489.378, 195.281
489.860, 145.840
490.342, 89.594
490.824, 66.496
491.306, 80.195
491.788, 92.199
492.270, 99.848
492.753, 98.273
493.235, 62.996
493.717, 2.242
494.199, 49.586
494.681, 40.793
495.163, 2.355
495.645, 45.570
496.127, 87.152
496.609, 109.754
497.092, 81.801
497.574, 28.402
498.056, 14.859
498.538, 39.594
499.020, 45.812
499.502, 18.699
499.984, 31.176
500.466, 66.020
500.948, 44.773
501.431, 28.516
501.913, 58.594
502.395, 169.758
502.877, 224.926
503.359, 148.730
503.841, 46.594
504.323, 23.133
504.805, 134.664
505.288, 221.543
505.770, 251.219
506.252, 237.312
506.734, 256.625
507.216, 317.262
507.698, 381.574
508.180, 430.898
508.662, 465.711
509.145, 498.965
509.627, 534.977
510.109, 553.953
510.591, 511.734
511.073, 428.523
511.555, 380.723
512.037, 410.762
512.519, 465.383
513.001, 468.809
513.484, 435.625
513.966, 420.672
514.448, 486.566
514.930, 563.297
515.412, 585.473
515.894, 535.512
516.376, 494.012
516.858, 499.180
517.341, 525.891
517.823, 549.129
518.305, 576.039
518.787, 584.605
519.269, 550.262
519.751, 490.277
520.233, 472.711
520.715, 527.742
521.197, 590.945
521.680, 640.035
522.162, 674.988
522.644, 672.344
523.126, 615.645
523.608, 549.852
524.090, 539.473
524.572, 586.082
525.054, 605.445
525.536, 572.875
526.019, 516.398
526.501, 484.465
526.983, 475.160
527.465, 476.402
527.947, 489.797
528.429, 506.000
528.911, 514.605
529.393, 513.914
529.875, 499.871
530.358, 455.320
530.840, 401.715
531.322, 361.520
531.804, 350.906
532.286, 341.301
532.768, 321.590
533.250, 297.098
533.732, 280.062
534.214, 297.258
534.697, 297.773
535.179, 261.852
535.661, 186.125
536.143, 124.066
536.625, 79.398
537.107, 47.156
537.589, 27.871
538.071, 22.055
538.554, 19.734
539.036, 11.727
539.518, 11.695
540.000, 57.527
540.482, 145.969
540.964, 222.719
541.446, 253.781
541.928, 258.547
542.411, 264.723
542.893, 271.602
543.375, 277.855
543.857, 281.520
544.339, 283.520
544.821, 285.645
545.303, 289.145
545.785, 288.590
546.268, 274.875
546.750, 257.551
547.232, 249.441
547.714, 265.297
548.196, 279.254
548.678, 290.391
549.160, 297.328
549.642, 287.691
550.124, 243.801
550.606, 207.430
551.089, 203.965
551.571, 244.984
552.053, 244.242
552.535, 189.527
553.017, 126.805
553.499, 109.441
553.981, 135.520
554.463, 161.395
554.945, 181.023
555.428, 190.395
555.910, 176.238
556.392, 142.801
556.874, 110.414
557.356, 95.988
557.838, 86.832
558.320, 65.176
558.802, 31.039
559.284, 8.043
559.767, 13.875
560.249, 33.875
560.731, 57.934
561.213, 101.113
561.695, 119.074
562.177, 73.074
562.659, 2.645
563.141, 21.836
563.624, 25.043
564.106, 80.074
564.588, 136.000
565.070, 189.688
565.552, 220.934
566.034, 223.473
566.516, 221.820
566.998, 234.422
567.481, 259.332
567.963, 271.508
568.445, 268.809
568.927, 260.574
569.409, 258.086
569.891, 258.613
570.373, 255.355
570.855, 248.195
571.338, 233.926
571.820, 201.738
572.302, 159.125
572.784, 127.578
573.266, 120.262
573.748, 122.891
574.230, 132.461
574.712, 149.820
575.194, 156.227
575.677, 147.281
576.159, 127.770
576.641, 101.613
577.123, 72.777
577.605, 28.168
578.087, 43.496
578.569, 119.035
579.051, 161.914
579.533, 170.996
580.016, 149.930
580.498, 87.699
580.980, 3.578
581.462, 48.863
581.944, 70.941
582.426, 83.523
582.908, 102.254
583.390, 118.164
583.872, 115.258
584.355, 90.688
584.837, 62.672
585.319, 29.559
585.801, 4.398
586.283, 1.691
586.765, 39.477
587.247, 79.605
587.729, 127.234
588.211, 169.652
588.694, 176.707
589.176, 104.562
589.658, 57.293
590.140, 69.957
590.622, 136.270
591.104, 170.828
591.586, 169.453
592.068, 148.883
592.551, 107.727
593.033, 50.016
593.515, 31.477
593.997, 61.738
594.479, 95.496
594.961, 65.617
595.443, 1.586
595.925, 24.059
596.407, 36.574
596.890, 99.043
597.372, 69.754
597.854, 12.020
598.336, 54.738
598.818, 26.824
599.300, 111.316
599.782, 139.410
600.265, 107.652
600.747, 87.164
601.229, 95.723
601.711, 104.312
602.193, 95.383
602.675, 57.793
603.157, 37.445
603.639, 33.629
604.121, 47.926
604.604, 98.160
605.086, 183.082
605.568, 223.789
606.050, 187.637
606.532, 121.855
607.014, 103.102
607.496, 123.488
607.978, 153.727
608.460, 183.828
608.943, 212.422
609.425, 235.312
609.907, 253.281
610.389, 275.605
610.871, 330.797
611.353, 374.125
611.835, 371.715
612.317, 288.984
612.799, 234.977
613.282, 228.402
613.764, 242.910
614.246, 252.297
614.728, 256.527
615.210, 260.254
615.692, 269.492
616.174, 274.316
616.656, 238.082
617.138, 162.016
617.621, 110.586
618.103, 133.621
618.585, 190.504
619.067, 190.949
619.549, 142.586
620.031, 114.816
620.513, 174.797
620.995, 261.523
621.477, 320.812
621.960, 336.582
622.442, 350.766
622.924, 389.582
623.406, 426.957
623.888, 438.270
624.370, 399.293
624.852, 363.316
625.334, 327.172
625.817, 297.863
626.299, 295.430
626.781, 328.988
627.263, 349.504
627.745, 333.777
628.227, 297.465
628.709, 306.754
629.191, 359.188
629.674, 387.738
630.156, 322.688
630.638, 216.836
631.120, 145.648
631.602, 115.234
632.084, 100.395
632.566, 88.816
633.048, 83.824
633.531, 90.078
634.013, 121.102
634.495, 141.445
634.977, 136.828
635.459, 120.270
635.941, 104.750
636.423, 76.660
636.905, 78.164
637.387, 137.969
637.870, 226.770
638.352, 231.980
638.834, 145.148
639.316, 76.488
639.798, 102.793
640.280, 184.195
640.762, 206.656
641.244, 173.180
641.726, 128.289
642.209, 82.137
642.691, 54.691
643.173, 79.234
643.655, 175.715
644.137, 255.121
644.619, 256.129
645.101, 236.105
645.583, 253.328
646.065, 375.906
646.548, 452.543
647.030, 447.676
647.512, 405.891
647.994, 412.918
648.476, 475.035
648.958, 568.988
649.440, 699.820
649.922, 840.402
650.404, 917.719
650.887, 938.145
651.369, 952.883
651.851, 975.203
652.333, 1008.070
652.815, 1076.617
653.297, 1180.043
653.779, 1255.625
654.261, 1254.992
654.744, 1224.207
655.226, 1198.367
655.708, 1178.004
656.190, 1176.625
656.672, 1192.875
657.154, 1233.664
657.636, 1317.359
658.118, 1482.859
658.601, 1577.457
659.083, 1563.227
659.565, 1487.227
660.047, 1434.133
660.529, 1404.094
661.011, 1410.828
661.493, 1474.992
661.975, 1566.938
662.458, 1640.465
662.940, 1699.523
663.422, 1759.277
663.904, 1837.910
664.386, 1915.922
664.868, 1967.949
665.350, 1990.574
665.832, 2046.902
666.314, 2207.988
666.797, 2363.965
667.279, 2439.590
667.761, 2372.473
668.243, 2394.590
668.725, 2545.531
669.207, 2721.961
669.689, 2793.281
670.171, 2759.625
670.653, 2741.613
671.135, 2764.520
671.618, 2798.984
672.100, 2819.164
672.582, 2817.855
673.064, 2774.852
673.546, 2659.121
674.028, 2522.332
674.510, 2383.836
674.992, 2252.273
675.474, 2152.762
675.957, 2137.703
676.439, 2118.828
676.921, 2070.039
677.403, 1993.156
677.885, 1868.902
678.367, 1662.816
678.849, 1476.750
679.331, 1376.809
679.814, 1362.777
680.296, 1365.238
680.778, 1384.859
681.260, 1395.418
681.742, 1367.418
682.224, 1309.590
682.706, 1233.934
683.188, 1127.914
683.670, 1047.934
684.153, 1087.117
684.635, 1161.098
685.117, 1154.926
685.599, 926.562
686.081, 749.926
686.563, 722.867
687.045, 777.832
687.528, 766.496
688.010, 651.887
688.492, 561.391
688.974, 534.074
689.456, 555.953
689.938, 574.820
690.420, 590.402
690.902, 595.078
691.384, 567.875
691.867, 532.121
692.349, 527.418
692.831, 552.668
693.313, 586.746
693.795, 654.910
694.277, 699.461
694.759, 660.871
695.241, 496.465
695.723, 384.102
696.206, 393.621
696.688, 428.203
697.170, 416.227
697.652, 338.508
698.134, 283.797
698.616, 261.336
699.098, 257.812
699.580, 254.477
700.062, 253.328
700.545, 267.090
701.027, 311.855
701.509, 349.234
701.991, 323.582
702.473, 259.930
702.955, 201.301
703.437, 170.078
703.919, 145.027
704.402, 119.488
704.884, 91.625
705.366, 53.609
705.848, 26.984
706.330, 75.422
706.812, 51.156
707.294, 37.102
707.776, 44.293
708.258, 43.984
708.741, 128.008
709.223, 130.590
709.705, 76.324
710.187, 35.164
710.669, 9.516
711.151, 8.988
711.633, 33.785
712.115, 52.043
712.597, 40.777
713.080, 23.973
713.562, 48.789
714.044, 36.238
714.526, 149.637
715.008, 212.832
715.490, 201.504
715.972, 188.504
716.455, 179.844
716.937, 166.758
717.419, 122.215
717.901, 48.586
718.383, 19.207
718.865, 67.629
719.347, 141.863
719.829, 170.184
720.311, 167.586
720.794, 172.559
721.276, 223.926
721.758, 267.484
722.240, 260.238
722.722, 217.016
723.204, 201.895
723.686, 265.164
724.168, 307.957
724.651, 297.188
725.133, 238.023
725.615, 178.477
726.097, 112.031
726.579, 77.680
727.061, 120.719
727.543, 213.641
728.025, 271.375
728.507, 293.027
728.990, 294.844
729.472, 287.383
729.954, 267.074
730.436, 219.664
730.918, 132.410
731.400, 83.703
731.882, 137.715
732.364, 210.191
732.846, 234.465
733.328, 182.938
733.811, 148.453
734.293, 133.078
734.775, 130.793
735.257, 136.676
735.739, 149.625
736.221, 165.695
736.703, 188.000
737.185, 200.617
737.667, 162.211
738.150, 105.797
738.632, 90.762
739.114, 204.590
739.596, 286.812
740.078, 254.188
740.560, 149.910
741.042, 67.770
741.524, 6.992
742.007, 21.797
742.489, 58.418
742.971, 194.734
743.453, 264.719
743.935, 265.117
744.417, 243.793
744.899, 196.598
745.381, 154.367
745.864, 188.641
746.346, 281.625
746.828, 369.336
747.310, 440.336
747.792, 470.848
748.274, 415.941
748.756, 277.496
749.238, 206.766
749.721, 299.074
750.203, 379.828
750.685, 374.527
751.167, 281.184
751.649, 183.293
752.131, 76.770
752.613, 7.176
753.095, 39.711
753.577, 30.102
754.060, 0.965
754.542, 52.000
755.024, 109.723
755.506, 181.863
755.988, 244.027
756.470, 270.160
756.952, 239.910
757.434, 211.754
757.916, 213.457
758.399, 205.590
758.881, 145.793
759.363, 6.387
759.845, 65.035
760.327, 44.633
760.809, 14.668
761.291, 58.996
761.773, 87.711
762.255, 92.898
762.738, 65.641
763.220, 38.766
763.702, 40.609
764.184, 58.762
764.666, 80.441
765.148, 101.883
765.630, 127.691
766.112, 145.004
766.594, 157.355
767.077, 182.000
767.559, 226.551
768.041, 261.738
768.523, 270.438
769.005, 272.633
769.487, 331.578
769.969, 431.230
770.451, 489.609
770.934, 440.938
771.416, 361.367
771.898, 320.688
772.380, 307.445
772.862, 298.168
773.344, 294.359
773.826, 285.000
774.308, 263.594
774.791, 234.711
775.273, 217.836
775.755, 218.305
776.237, 218.758
776.719, 214.527
777.201, 206.000
777.683, 186.340
778.165, 158.684
778.648, 147.211
779.130, 182.352
779.612, 228.258
780.094, 250.227
780.576, 247.844
781.058, 245.312
781.540, 244.547
782.022, 248.910
782.504, 262.086
782.987, 283.969
783.469, 292.883
783.951, 284.934
784.433, 274.031
784.915, 269.805
785.397, 270.352
785.879, 266.387
786.361, 258.547
786.843, 253.531
787.326, 275.238
787.808, 291.492
788.290, 254.129
788.772, 145.098
789.254, 95.957
789.736, 202.668
790.218, 326.156
790.700, 393.043
791.182, 400.211
791.665, 347.180
792.147, 211.234
792.629, 92.500
793.111, 99.516
793.593, 195.012
794.075, 277.348
794.557, 335.945
795.039, 365.910
795.521, 346.961
796.004, 306.277
796.486, 267.047
796.968, 231.324
797.450, 213.520
797.932, 226.379
798.414, 244.430
798.896, 244.262
799.378, 225.730
799.860, 201.809
800.343, 176.277
800.825, 149.938
801.307, 131.348
801.789, 115.680
802.271, 83.516
802.753, 19.859
803.235, 18.324
803.718, 26.238
804.200, 102.648
804.682, 157.246
805.164, 170.480
805.646, 175.453
806.128, 173.031
806.610, 161.582
807.092, 131.988
807.574, 83.922
808.057, 61.797
808.539, 75.465
809.021, 103.648
809.503, 122.152
809.985, 136.410
810.467, 158.090
810.949, 206.098
811.431, 230.004
811.914, 189.301
812.396, 121.711
812.878, 72.816
813.360, 38.438
813.842, 35.922
814.324, 83.426
814.806, 140.016
815.288, 132.973
815.770, 72.785
816.253, 33.676
816.735, 36.035
817.217, 57.172
817.699, 99.652
818.181, 145.098
818.663, 157.277
819.145, 74.816
819.627, 18.621
820.109, 38.695
820.592, 88.125
821.074, 109.855
821.556, 101.395
822.038, 70.473
822.520, 5.430
823.002, 53.320
823.484, 20.477
823.966, 71.578
824.448, 120.461
824.931, 66.539
825.413, 14.602
825.895, 42.090
826.377, 115.160
826.859, 184.812
827.341, 256.203
827.823, 298.293
828.305, 297.676
828.787, 275.062
829.270, 265.816
829.752, 270.438
830.234, 265.934
830.716, 247.223
831.198, 220.289
831.680, 186.320
832.162, 151.453
832.644, 127.598
833.127, 125.438
833.609, 126.262
834.091, 133.965
834.573, 137.160
835.055, 115.273
835.537, 46.281
836.019, 11.801
836.501, 28.039
836.984, 69.715
837.466, 98.711
837.948, 117.242
838.430, 139.902
838.912, 179.348
839.394, 201.496
839.876, 150.762
840.358, 73.848
840.841, 35.082
841.323, 87.164
841.805, 130.957
842.287, 156.891
842.769, 172.441
843.251, 185.645
843.733, 195.820
844.215, 211.516
844.697, 239.891
845.180, 252.969
845.662, 176.762
846.144, 67.094
846.626, 35.789
847.108, 161.172
847.590, 265.625
848.072, 248.223
848.554, 181.168
849.036, 154.832
849.519, 194.441
850.001, 217.613
850.483, 222.012
850.965, 206.363
851.447, 151.430
851.929, 72.578
852.411, 40.285
852.893, 79.258
853.375, 111.402
853.858, 67.699
854.340, 7.293
854.822, 68.023
855.304, 119.387
855.786, 122.668
856.268, 42.266
856.750, 47.195
857.232, 63.562
857.714, 2.910
858.197, 14.734
858.679, 144.156
859.161, 275.621
859.643, 274.133
860.125, 210.180
860.607, 190.258
861.089, 240.699
861.571, 284.984
862.054, 282.707
862.536, 269.477
863.018, 275.551
863.500, 307.125
863.982, 306.094
864.464, 263.719
864.946, 220.387
865.428, 215.598
865.911, 237.688
866.393, 267.172
866.875, 302.695
867.357, 308.168
867.839, 237.164
868.321, 145.098
868.803, 66.512
869.285, 5.195
869.767, 27.574
870.250, 22.395
870.732, 3.867
871.214, 18.012
871.696, 42.355
872.178, 59.469
872.660, 69.191
873.142, 67.035
873.624, 20.215
874.106, 20.363
874.589, 6.461
875.071, 99.855
875.553, 172.633
876.035, 181.645
876.517, 190.891
876.999, 232.629
877.481, 296.594
877.963, 278.535
878.445, 173.008
878.928, 97.062
879.410, 158.672
879.892, 265.117
880.374, 269.535
880.856, 196.812
881.338, 157.020
881.820, 244.621
882.302, 317.949
882.784, 300.738
883.267, 228.258
883.749, 220.566
884.231, 288.562
884.713, 370.508
885.195, 456.504
885.677, 531.727
886.159, 559.562
886.641, 553.402
887.124, 553.062
887.606, 608.418
888.088, 639.359
888.570, 577.211
889.052, 472.492
889.534, 431.219
890.016, 487.363
890.498, 531.172
890.981, 544.742
891.463, 544.453
891.945, 555.355
892.427, 574.801
892.909, 594.203
893.391, 609.367
893.873, 624.652
894.355, 641.684
894.838, 660.074
895.320, 679.098
895.802, 684.203
896.284, 717.906
896.766, 810.500
897.248, 886.398
897.730, 843.586
898.212, 702.012
898.694, 602.508
899.177, 563.875
899.659, 546.414
900.141, 538.188
900.623, 523.418
901.105, 482.945
901.587, 407.457
902.069, 340.867
902.551, 288.254
903.033, 244.277
903.516, 200.926
903.998, 157.836
904.480, 159.039
904.962, 205.164
905.444, 235.234
905.926, 171.047
906.408, 88.309
906.890, 76.098
907.372, 132.715
907.855, 180.250
908.337, 217.879
908.819, 213.785
909.301, 132.727
909.783, 0.684
910.265, 29.406
910.747, 50.371
911.229, 123.047
911.711, 123.598
912.194, 97.887
912.676, 125.625
913.158, 177.227
913.640, 177.168
914.122, 22.742
914.604, 89.230
915.086, 95.211
915.568, 41.094
916.051, 5.859
916.533, 9.883
917.015, 13.238
917.497, 2.664
917.979, 7.949
918.461, 11.387
918.943, 41.684
919.425, 43.781
919.907, 22.984
920.390, 56.359
920.872, 2.320
921.354, 92.598
921.836, 161.195
922.318, 206.035
922.800, 231.469
923.282, 231.891
923.764, 233.879
924.247, 268.734
924.729, 319.648
925.211, 369.605
925.693, 417.625
926.175, 425.953
926.657, 305.816
927.139, 207.887
927.621, 240.457
928.104, 407.633
928.586, 460.785
929.068, 382.020
929.550, 304.520
930.032, 321.070
930.514, 385.914
930.996, 433.387
931.478, 459.723
931.960, 445.180
932.443, 319.961
932.925, 226.609
933.407, 258.309
933.889, 357.414
934.371, 353.832
934.853, 222.859
935.335, 134.918
935.817, 143.051
936.299, 206.930
936.782, 297.363
937.264, 391.816
937.746, 439.332
938.228, 397.699
938.710, 349.422
939.192, 321.102
939.674, 300.012
940.156, 269.547
940.638, 224.301
941.121, 201.738
941.603, 206.492
942.085, 223.266
942.567, 249.875
943.049, 272.020
943.531, 252.527
944.013, 181.223
944.495, 150.492
944.977, 261.453
945.460, 363.090
945.942, 360.895
946.424, 255.723
946.906, 211.164
947.388, 231.930
947.870, 263.555
948.352, 289.176
948.834, 297.344
949.317, 241.699
949.799, 147.703
950.281, 109.477
950.763, 243.250
951.245, 345.156
951.727, 348.555
952.209, 288.508
952.691, 235.969
953.174, 188.812
953.656, 182.469
954.138, 238.832
954.620, 303.137
955.102, 312.617
955.584, 285.555
956.066, 245.461
956.548, 168.984
957.031, 142.715
957.513, 216.340
957.995, 311.574
958.477, 370.430
958.959, 394.797
959.441, 380.004
959.923, 323.879
960.405, 277.469
960.887, 293.520
961.370, 323.176
961.852, 302.668
962.334, 231.676
962.816, 214.176
963.298, 304.203
963.780, 403.867
964.262, 496.453
964.744, 570.023
965.226, 556.020
965.709, 462.301
966.191, 373.184
966.673, 320.543
967.155, 295.617
967.637, 309.152
968.119, 340.980
968.601, 356.730
969.083, 318.438
969.565, 315.703
970.048, 370.793
970.530, 438.293
971.012, 460.820
971.494, 443.207
971.976, 397.035
972.458, 312.598
972.940, 250.090
973.422, 269.156
973.904, 315.965
974.387, 343.363
974.869, 343.039
975.351, 359.059
975.833, 398.688
976.315, 431.707
976.797, 436.348
977.279, 420.348
977.761, 395.602
978.244, 364.977
978.726, 352.027
979.208, 371.414
979.690, 397.398
980.172, 430.988
980.654, 459.539
981.136, 453.230
981.618, 405.945
982.101, 354.125
982.583, 302.289
983.065, 258.043
983.547, 233.363
984.029, 224.676
984.511, 227.195
984.993, 244.047
985.475, 260.402
985.957, 288.180
986.440, 299.660
986.922, 263.957
987.404, 175.184
987.886, 159.266
988.368, 214.801
988.850, 271.688
989.332, 285.512
989.814, 270.680
990.296, 232.652
990.779, 176.840
991.261, 127.352
991.743, 72.742
992.225, 53.469
992.707, 92.137
993.189, 159.512
993.671, 186.586
994.153, 178.992
994.635, 166.980
995.118, 162.039
995.600, 147.434
996.082, 77.633
996.564, 8.191
997.046, 11.812
997.528, 142.449
998.010, 203.941
998.492, 173.371
998.974, 135.242
999.457, 174.602
999.939, 255.199
1000.421, 277.855
1000.903, 245.719
1001.385, 219.902
1001.867, 234.648
1002.349, 260.969
1002.831, 296.145
1003.314, 330.793
1003.796, 329.098
1004.278, 286.602
1004.760, 248.766
1005.242, 228.059
1005.724, 219.824
1006.206, 243.508
1006.688, 267.496
1007.171, 233.883
1007.653, 60.250
1008.135, 19.785
1008.617, 57.500
1009.099, 163.957
1009.581, 193.004
1010.063, 153.055
1010.545, 160.105
1011.027, 215.020
1011.510, 268.883
1011.992, 309.723
1012.474, 315.039
1012.956, 233.574
1013.438, 85.621
1013.920, 30.227
1014.402, 120.488
1014.884, 169.230
1015.367, 116.332
1015.849, 17.574
1016.331, 23.688
1016.813, 26.977
1017.295, 45.332
1017.777, 111.844
1018.259, 149.430
1018.741, 108.090
1019.223, 36.660
1019.706, 33.281
1020.188, 107.953
1020.670, 130.949
1021.152, 99.199
1021.634, 54.301
1022.116, 11.660
1022.598, 15.590
1023.080, 5.652
1023.563, 35.793
1024.045, 75.652
1024.527, 104.965
1025.009, 131.309
1025.491, 151.742
1025.973, 172.684
1026.455, 225.125
1026.937, 293.398
1027.419, 302.188
1027.901, 215.996
1028.384, 125.906
1028.866, 88.492
1029.348, 78.758
1029.830, 71.664
1030.312, 60.629
1030.794, 105.117
1031.276, 224.039
1031.758, 308.750
1032.241, 248.113
1032.723, 126.551
1033.205, 69.996
1033.687, 71.668
1034.169, 96.258
1034.651, 159.484
1035.133, 206.020
1035.615, 216.055
1036.098, 208.926
1036.580, 217.039
1037.062, 238.430
1037.544, 265.586
1038.026, 296.191
1038.508, 330.707
1038.990, 402.836
1039.472, 455.586
1039.954, 418.027
1040.437, 267.699
1040.919, 194.988
1041.401, 221.297
1041.883, 253.312
1042.365, 243.660
1042.847, 210.180
1043.329, 195.184
1043.811, 187.895
1044.293, 155.578
1044.776, 30.203
1045.258, 46.543
1045.740, 15.215
1046.222, 55.398
1046.704, 80.168
1047.186, 60.211
1047.668, 51.672
1048.150, 58.598
1048.633, 87.730
1049.115, 175.941
1049.597, 264.312
1050.079, 295.898
1050.561, 266.086
1051.043, 253.805
1051.525, 262.422
1052.007, 286.914
1052.490, 341.070
1052.972, 388.324
1053.454, 313.426
1053.936, 180.844
1054.418, 147.988
1054.900, 352.023
1055.382, 495.203
1055.864, 441.961
1056.346, 347.617
1056.828, 336.070
1057.311, 406.230
1057.793, 437.805
1058.275, 429.125
1058.757, 406.387
1059.239, 388.633
1059.721, 364.941
1060.203, 318.445
1060.685, 258.980
1061.168, 229.723
1061.650, 249.914
1062.132, 246.691
1062.614, 199.164
1063.096, 143.344
1063.578, 153.707
1064.060, 185.137
1064.542, 139.324
1065.025, 29.086
1065.507, 138.371
1065.989, 90.027
1066.471, 12.645
1066.953, 38.555
1067.435, 65.945
1067.917, 83.609
1068.399, 91.898
1068.881, 92.164
1069.364, 73.633
1069.846, 59.418
1070.328, 64.301
1070.810, 82.520
1071.292, 103.672
1071.774, 125.820
1072.256, 154.227
1072.738, 190.043
1073.220, 221.375
1073.703, 227.059
1074.185, 223.488
1074.667, 246.152
1075.149, 292.957
1075.631, 304.332
1076.113, 243.836
1076.595, 188.395
1077.077, 158.867
1077.559, 147.125
1078.042, 145.473
1078.524, 148.723
1079.006, 129.395
1079.488, 68.207
1079.970, 24.258
1080.452, 41.598
1080.934, 81.477
1081.416, 111.492
1081.899, 130.809
1082.381, 138.352
1082.863, 132.668
1083.345, 133.215
1083.827, 154.746
1084.309, 183.715
1084.791, 209.461
1085.273, 231.152
1085.755, 249.383
1086.238, 273.879
1086.720, 268.000
1087.202, 217.246
1087.684, 164.707
1088.166, 166.656
1088.648, 202.062
1089.130, 227.188
1089.612, 238.570
1090.094, 251.344
1090.577, 273.086
1091.059, 302.555
1091.541, 338.715
1092.023, 375.590
1092.505, 394.832
1092.987, 402.355
1093.469, 429.707
1093.951, 500.297
1094.434, 547.105
1094.916, 483.730
1095.398, 399.363
1095.880, 388.992
1096.362, 466.559
1096.844, 501.703
1097.326, 491.531
1097.808, 465.895
1098.291, 427.988
1098.773, 396.438
1099.255, 402.750
1099.737, 433.664
1100.219, 457.391
1100.701, 466.992
1101.183, 470.273
1101.665, 465.332
1102.147, 461.008
1102.630, 476.250
1103.112, 494.945
1103.594, 474.258
1104.076, 413.148
1104.558, 387.160
1105.040, 485.105
1105.522, 556.332
1106.004, 535.652
1106.486, 461.184
1106.969, 442.996
1107.451, 471.312
1107.933, 484.203
1108.415, 458.336
1108.897, 414.777
1109.379, 350.402
1109.861, 292.426
1110.343, 255.281
1110.826, 235.289
1111.308, 240.578
1111.790, 275.883
1112.272, 285.062
1112.754, 210.020
1113.236, 133.430
1113.718, 142.727
1114.200, 203.145
1114.682, 262.441
1115.165, 318.254
1115.647, 352.469
1116.129, 357.492
1116.611, 357.566
1117.093, 384.605
1117.575, 417.844
1118.057, 412.109
1118.539, 371.359
1119.021, 335.391
1119.504, 332.121
1119.986, 318.254
1120.468, 283.652
1120.950, 236.809
1121.432, 174.879
1121.914, 112.906
1122.396, 122.043
1122.878, 223.824
1123.361, 291.133
1123.843, 238.570
1124.325, 165.211
1124.807, 113.969
1125.289, 86.910
1125.771, 102.559
1126.253, 158.746
1126.735, 222.703
1127.218, 290.465
1127.700, 342.062
1128.182, 343.676
1128.664, 327.691
1129.146, 332.191
1129.628, 359.605
1130.110, 398.191
1130.592, 451.348
1131.074, 480.320
1131.557, 430.848
1132.039, 363.812
1132.521, 355.387
1133.003, 390.070
1133.485, 432.566
1133.967, 512.664
1134.449, 522.578
1134.931, 433.129
1135.413, 340.059
1135.896, 379.785
1136.378, 476.484
1136.860, 482.746
1137.342, 397.461
1137.824, 306.977
1138.306, 191.273
1138.788, 144.176
1139.270, 207.137
1139.752, 321.000
1140.235, 392.004
1140.717, 418.090
1141.199, 377.812
1141.681, 253.500
1142.163, 165.883
1142.645, 233.719
1143.127, 290.367
1143.609, 240.383
1144.092, 112.754
1144.574, 46.062
1145.056, 34.945
1145.538, 33.918
1146.020, 32.449
1146.502, 28.656
1146.984, 31.020
1147.466, 25.645
1147.948, 6.910
1148.431, 72.133
1148.913, 96.832
1149.395, 80.980
1149.877, 24.398
1150.359, 115.328
1150.841, 252.293
1151.323, 313.316
1151.805, 321.207
1152.287, 326.184
1152.770, 334.715
1153.252, 313.066
1153.734, 250.543
1154.216, 203.176
1154.698, 252.637
1155.180, 323.223
1155.662, 303.805
1156.144, 216.770
1156.627, 221.242
1157.109, 405.875
1157.591, 479.430
1158.073, 366.586
1158.555, 203.879
1159.037, 156.457
1159.519, 182.812
1160.001, 231.102
1160.484, 295.691
1160.966, 330.207
1161.448, 314.605
1161.930, 288.863
1162.412, 261.688
1162.894, 235.211
1163.376, 226.570
1163.858, 219.957
1164.340, 167.887
1164.823, 34.273
1165.305, 43.781
1165.787, 24.188
1166.269, 82.840
1166.751, 37.418
1167.233, 69.387
1167.715, 68.492
1168.197, 14.117
1168.679, 78.148
1169.162, 85.375
1169.644, 62.500
1170.126, 34.859
1170.608, 111.242
1171.090, 76.383
1171.572, 58.266
1172.054, 159.812
1172.536, 226.230
1173.019, 259.578
1173.501, 226.254
1173.983, 198.578
1174.465, 221.758
1174.947, 262.305
1175.429, 279.656
1175.911, 274.223
1176.393, 265.590
1176.875, 255.828
1177.358, 253.652
1177.840, 286.395
1178.322, 309.578
1178.804, 271.734
1179.286, 207.773
1179.768, 219.617
1180.250, 311.914
1180.732, 335.254
1181.214, 255.574
1181.697, 186.219
1182.179, 250.094
1182.661, 343.117
1183.143, 376.078
1183.625, 354.555
1184.107, 345.715
1184.589, 350.082
1185.071, 353.758
1185.554, 350.559
1186.036, 353.156
1186.518, 389.578
1187.000, 429.281
1187.482, 438.484
1187.964, 414.453
1188.446, 381.773
1188.928, 340.969
1189.411, 289.309
1189.893, 220.164
1190.375, 151.125
1190.857, 87.227
1191.339, 44.969
1191.821, 60.180
1192.303, 170.070
1192.785, 186.488
1193.267, 87.961
1193.750, 8.465
1194.232, 47.148
1194.714, 130.422
1195.196, 181.613
1195.678, 203.277
1196.160, 198.262
1196.642, 149.445
1197.124, 109.988
1197.606, 76.211
1198.089, 66.957
1198.571, 131.895
1199.053, 207.109
1199.535, 193.676
1200.017, 115.270
1200.499, 50.945
1200.981, 7.031
1201.463, 2.715
1201.945, 30.250
1202.428, 72.227
1202.910, 93.816
1203.392, 100.445
1203.874, 97.574
1204.356, 86.605
1204.838, 70.828
1205.320, 29.805
1205.802, 34.434
1206.285, 103.414
1206.767, 184.559
1207.249, 209.445
1207.731, 207.277
1208.213, 215.000
1208.695, 239.246
1209.177, 256.613
1209.659, 248.770
1210.141, 252.617
1210.624, 282.637
1211.106, 319.961
1211.588, 339.762
1212.070, 344.496
1212.552, 337.988
1213.034, 321.016
1213.516, 281.613
1213.998, 190.320
1214.480, 153.902
1214.963, 233.176
1215.445, 344.594
1215.927, 328.172
1216.409, 247.938
1216.891, 222.172
1217.373, 301.227
1217.855, 313.098
1218.337, 218.742
1218.820, 130.777
1219.302, 106.781
1219.784, 114.727
1220.266, 89.715
1220.748, 53.969
1221.230, 52.863
1221.712, 125.664
1222.194, 152.883
1222.677, 110.234
1223.159, 70.555
1223.641, 91.566
1224.123, 140.871
1224.605, 175.027
1225.087, 188.902
1225.569, 185.660
1226.051, 142.254
1226.533, 132.938
1227.016, 168.914
1227.498, 209.012
1227.980, 219.027
1228.462, 209.008
1228.944, 205.074
1229.426, 208.277
1229.908, 207.180
1230.390, 192.473
1230.872, 190.574
1231.355, 205.305
1231.837, 225.391
1232.319, 252.277
1232.801, 271.227
1233.283, 233.723
1233.765, 166.695
1234.247, 173.645
1234.729, 326.762
1235.212, 408.207
1235.694, 386.965
1236.176, 337.754
1236.658, 324.023
1237.140, 332.402
1237.622, 359.574
1238.104, 395.750
1238.586, 397.914
1239.068, 351.066
1239.551, 312.637
1240.033, 290.793
1240.515, 280.867
1240.997, 294.383
1241.479, 307.098
1241.961, 283.812
1242.443, 230.152
1242.925, 193.312
1243.407, 174.715
1243.890, 180.793
1244.372, 211.324
1244.854, 252.703
1245.336, 297.738
1245.818, 337.730
1246.300, 358.637
1246.782, 360.703
1247.264, 370.312
1247.747, 388.953
1248.229, 381.340
1248.711, 328.758
1249.193, 286.004
1249.675, 324.457
1250.157, 385.559
1250.639, 425.344
1251.121, 437.695
1251.604, 386.203
1252.086, 270.012
1252.568, 197.121
1253.050, 206.926
1253.532, 232.688
1254.014, 218.684
1254.496, 197.562
1254.978, 203.770
1255.460, 230.070
1255.943, 214.016
1256.425, 157.539
1256.907, 144.812
1257.389, 209.324
1257.871, 289.730
1258.353, 385.758
1258.835, 435.543
1259.317, 379.391
1259.799, 237.105
1260.281, 152.184
1260.764, 119.164
1261.246, 97.398
1261.728, 80.074
1262.210, 67.863
1262.692, 67.223
1263.174, 76.176
1263.656, 101.289
1264.138, 133.863
1264.621, 123.641
1265.103, 77.012
1265.585, 13.375
1266.067, 83.488
1266.549, 138.176
1267.031, 104.938
1267.513, 43.562
1267.995, 13.469
1268.478, 71.762
1268.960, 179.078
1269.442, 308.039
1269.924, 368.918
1270.406, 258.047
1270.888, 232.406
1271.370, 365.770
1271.852, 508.352
1272.334, 563.766
1272.817, 558.168
1273.299, 534.812
1273.781, 507.379
1274.263, 511.543
1274.745, 617.609
1275.227, 626.922
1275.709, 494.707
1276.191, 386.988
1276.673, 463.148
1277.156, 598.730
1277.638, 578.668
1278.120, 466.598
1278.602, 393.992
1279.084, 401.656
1279.566, 415.812
1280.048, 440.992
1280.530, 442.469
1281.013, 365.594
1281.495, 275.461
1281.977, 225.500
1282.459, 220.219
1282.941, 272.328
1283.423, 390.430
1283.905, 404.188
1284.387, 380.973
1284.870, 358.836
1285.352, 262.109
1285.834, 186.492
1286.316, 237.555
1286.798, 338.414
1287.280, 376.852
1287.762, 350.434
1288.244, 311.953
1288.726, 264.902
1289.208, 234.090
1289.691, 256.449
1290.173, 274.219
1290.655, 262.355
1291.137, 232.879
1291.619, 179.164
1292.101, 108.773
1292.583, 116.645
1293.065, 199.027
1293.548, 253.395
1294.030, 179.367
1294.512, 137.434
1294.994, 163.691
1295.476, 221.027
1295.958, 307.719
1296.440, 377.641
1296.922, 292.109
1297.405, 160.957
1297.887, 105.902
1298.369, 33.844
1298.851, 1.922
1299.333, 0.418
1299.815, 25.988
1300.297, 12.598
1300.779, 0.000
##END=



