##NAMES=Aramayoite
##RRUFFID=R061071
##IDEAL CHEMISTRY=Ag^1+^_3_Sb^3+^_2_(Bi^3+^,Sb^3+^)S^2-^_6_
##LOCALITY=Animas mine, Potosi, Bolivia
##OWNER=RRUFF
##SOURCE=Michael Scott
##DESCRIPTION=Black platy submetallic
##STATUS=The identification of this mineral has been confirmed only by single crystal X-ray diffraction.
##URL=rruff.info/R061071
109.0298, 0.0000000E+00
109.5119, 14.51254
109.9940, 31.37544
110.4761, 52.47345
110.9582, 16.03860
111.4403, 5.531052
111.9225, 1.879333
112.4046, 23.49165
112.8867, 45.19640
113.3688, 57.67496
113.8509, 64.05423
114.3330, 66.89853
114.8152, 56.98700
115.2973, 51.72751
115.7794, 56.88565
116.2615, 72.90213
116.7436, 97.18729
117.2257, 134.0540
117.7079, 177.3440
118.1900, 217.6959
118.6721, 253.8625
119.1542, 283.9898
119.6363, 304.0067
120.1184, 306.0894
120.6006, 314.6163
121.0827, 356.4514
121.5648, 421.2188
122.0469, 475.0895
122.5290, 488.7479
123.0111, 482.3638
123.4933, 466.5221
123.9754, 478.4559
124.4575, 482.5707
124.9396, 479.2838
125.4217, 446.0040
125.9038, 451.7406
126.3860, 442.0050
126.8681, 431.7394
127.3502, 443.2806
127.8323, 414.9344
128.3144, 426.3310
128.7965, 421.9974
129.2787, 424.9998
129.7608, 412.4082
130.2429, 404.7493
130.7250, 412.8652
131.2071, 412.3787
131.6892, 398.3242
132.1714, 402.3017
132.6535, 374.2888
133.1356, 374.5315
133.6177, 387.0354
134.0998, 374.2363
134.5819, 378.9562
135.0640, 377.1016
135.5462, 345.1220
136.0283, 383.0408
136.5104, 402.0461
136.9925, 409.3568
137.4746, 405.9216
137.9567, 393.0375
138.4389, 366.8920
138.9210, 340.6490
139.4031, 328.5901
139.8852, 333.9332
140.3673, 341.2130
140.8494, 347.5042
141.3316, 353.1769
141.8137, 356.8915
142.2958, 360.9854
142.7779, 361.7490
143.2600, 351.1543
143.7421, 318.6821
144.2243, 292.7739
144.7064, 284.8026
145.1885, 305.6641
145.6706, 319.8394
146.1527, 326.2534
146.6348, 326.1006
147.1170, 322.8198
147.5991, 312.9500
148.0812, 302.9955
148.5633, 296.1908
149.0454, 295.0941
149.5275, 293.7422
150.0097, 292.5437
150.4918, 291.3033
150.9739, 287.3255
151.4560, 275.3868
151.9381, 263.5297
152.4202, 257.2137
152.9024, 264.2822
153.3845, 269.3060
153.8666, 269.7960
154.3487, 265.4333
154.8308, 257.9756
155.3129, 244.0160
155.7950, 228.3376
156.2772, 216.4773
156.7593, 210.1493
157.2414, 209.1773
157.7235, 210.9353
158.2056, 215.6284
158.6877, 222.7498
159.1699, 240.0483
159.6520, 259.0661
160.1341, 264.3418
160.6162, 234.1852
161.0983, 199.9996
161.5804, 180.3828
162.0626, 186.0439
162.5447, 196.4193
163.0268, 201.7787
163.5089, 203.3553
163.9910, 202.3026
164.4731, 194.2609
164.9553, 185.9041
165.4374, 183.4069
165.9195, 192.9960
166.4016, 203.3423
166.8837, 209.6437
167.3658, 213.3899
167.8480, 211.2987
168.3301, 192.0280
168.8122, 167.5651
169.2943, 152.0916
169.7764, 165.5576
170.2585, 182.6805
170.7407, 178.3118
171.2228, 151.0586
171.7049, 125.1452
172.1870, 121.0382
172.6691, 131.6720
173.1512, 142.7740
173.6334, 151.5059
174.1155, 155.7357
174.5976, 150.5606
175.0797, 133.8998
175.5618, 116.5679
176.0439, 110.5185
176.5260, 113.0261
177.0082, 114.9798
177.4903, 110.8983
177.9724, 102.8907
178.4545, 93.84900
178.9366, 82.69250
179.4187, 73.66089
179.9009, 73.56482
180.3830, 81.49023
180.8651, 91.21558
181.3472, 101.1041
181.8293, 109.8462
182.3114, 113.4064
182.7936, 95.48712
183.2757, 111.0900
183.7578, 118.7593
184.2399, 118.9241
184.7220, 89.00049
185.2041, 98.00653
185.6863, 91.45776
186.1684, 84.30261
186.6505, 98.88098
187.1326, 73.50256
187.6147, 87.80103
188.0968, 86.30609
188.5790, 92.08423
189.0611, 82.21045
189.5432, 77.21155
190.0253, 87.93188
190.5074, 89.99451
190.9895, 78.43677
191.4717, 84.85754
191.9538, 59.23608
192.4359, 61.78662
192.9180, 48.10876
193.4001, 22.77734
193.8822, 6.735840
194.3644, 12.53113
194.8465, 38.60693
195.3286, 58.07397
195.8107, 70.46912
196.2928, 76.68567
196.7749, 78.31946
197.2570, 75.49353
197.7392, 67.08704
198.2213, 48.02502
198.7034, 17.38660
199.1855, 0.2105710
199.6676, 0.9945070
200.1497, 8.799927
200.6319, 16.17444
201.1140, 21.30627
201.5961, 23.34656
202.0782, 21.08875
202.5603, 14.10583
203.0424, 6.604004
203.5246, 0.9619140
204.0067, 8.674072
204.4888, 18.61731
204.9709, 33.50635
205.4530, 42.95923
205.9352, 36.08704
206.4173, 7.981079
206.8994, 12.16736
207.3815, 17.00110
207.8636, 10.01196
208.3457, 12.05261
208.8279, 27.56128
209.3100, 43.01257
209.7921, 44.45544
210.2742, 26.26489
210.7563, 13.93079
211.2384, 15.09399
211.7206, 28.50757
212.2027, 31.99780
212.6848, 21.75610
213.1669, 7.186401
213.6490, 1.158447
214.1311, 0.2590330
214.6133, 2.153931
215.0954, 12.97803
215.5775, 33.61218
216.0596, 37.94604
216.5417, 18.88562
217.0238, 8.508301
217.5059, 26.29724
217.9881, 32.64722
218.4702, 33.45898
218.9523, 29.11560
219.4344, 18.57666
219.9165, 10.42566
220.3986, 5.541626
220.8808, 2.285278
221.3629, 3.048828
221.8450, 15.06030
222.3271, 20.10486
222.8092, 9.936523
223.2913, 24.07251
223.7735, 38.07764
224.2556, 21.57324
224.7377, 8.793823
225.2198, 20.00330
225.7019, 2.263550
226.1840, 17.87610
226.6662, 30.01953
227.1483, 29.46216
227.6304, 34.20728
228.1125, 49.79272
228.5946, 68.56934
229.0767, 71.09058
229.5589, 44.36646
230.0410, 21.11511
230.5231, 17.15845
231.0052, 46.89319
231.4873, 63.55798
231.9694, 61.79736
232.4516, 47.83130
232.9337, 40.13831
233.4158, 39.83813
233.8979, 44.21753
234.3800, 53.63513
234.8621, 75.98230
235.3443, 85.94897
235.8264, 76.74402
236.3085, 54.41321
236.7906, 42.24304
237.2727, 41.96448
237.7548, 49.50378
238.2369, 63.91833
238.7191, 90.74402
239.2012, 113.1151
239.6833, 128.5840
240.1654, 138.3892
240.6475, 148.9060
241.1296, 163.0594
241.6118, 174.1169
242.0939, 177.5300
242.5760, 170.3060
243.0581, 161.0414
243.5402, 148.3444
244.0223, 133.5759
244.5045, 125.3051
244.9866, 126.1428
245.4687, 130.3320
245.9508, 133.9702
246.4329, 136.1447
246.9150, 140.1373
247.3972, 148.8474
247.8793, 160.9462
248.3614, 163.1261
248.8435, 148.3625
249.3256, 132.2103
249.8077, 126.5967
250.2899, 135.2827
250.7720, 146.9474
251.2541, 164.4819
251.7362, 186.1470
252.2183, 189.1023
252.7004, 160.7451
253.1826, 129.3296
253.6647, 118.8348
254.1468, 139.7903
254.6289, 158.7417
255.1110, 171.0107
255.5931, 176.8352
256.0753, 180.9451
256.5574, 185.0083
257.0395, 185.2975
257.5216, 176.3633
258.0037, 150.2681
258.4858, 134.6240
258.9680, 137.0491
259.4501, 156.6622
259.9322, 172.7117
260.4143, 186.8083
260.8964, 195.1917
261.3785, 193.1667
261.8607, 176.8988
262.3428, 159.6552
262.8249, 140.9402
263.3070, 121.5670
263.7891, 116.1877
264.2712, 130.9475
264.7534, 150.8384
265.2355, 161.9296
265.7176, 162.0646
266.1997, 160.1385
266.6818, 156.7050
267.1639, 152.0719
267.6461, 152.0966
268.1282, 158.9702
268.6103, 166.5283
269.0924, 167.2264
269.5745, 157.9056
270.0566, 154.0303
270.5387, 160.0492
271.0208, 175.1819
271.5030, 190.1315
271.9851, 206.5616
272.4672, 219.3978
272.9493, 221.4818
273.4314, 209.0254
273.9135, 199.6060
274.3957, 198.7107
274.8778, 205.1644
275.3599, 208.6947
275.8420, 207.8484
276.3241, 207.9236
276.8062, 217.4281
277.2884, 238.5928
277.7705, 251.6588
278.2526, 247.6090
278.7347, 230.3379
279.2168, 227.9762
279.6989, 244.4273
280.1811, 262.4623
280.6632, 262.4818
281.1453, 243.4109
281.6274, 231.0437
282.1095, 234.1888
282.5916, 248.8052
283.0738, 255.5115
283.5559, 253.2136
284.0380, 249.8649
284.5201, 257.7499
285.0022, 276.5175
285.4843, 282.9503
285.9665, 264.4065
286.4486, 230.9336
286.9307, 219.9117
287.4128, 233.7139
287.8949, 251.7087
288.3770, 252.3448
288.8592, 224.5029
289.3413, 245.0296
289.8234, 258.0437
290.3055, 263.7803
290.7876, 238.8652
291.2697, 251.9397
291.7519, 249.1841
292.2340, 245.8895
292.7161, 264.7849
293.1982, 243.9423
293.6803, 262.4685
294.1624, 264.9324
294.6446, 274.6233
295.1267, 268.7764
295.6088, 268.0933
296.0909, 284.0841
296.5730, 292.4121
297.0551, 300.1309
297.5373, 326.1443
298.0194, 346.0701
298.5015, 344.9507
298.9836, 325.4457
299.4657, 308.5559
299.9478, 313.5999
300.4300, 332.3314
300.9121, 349.0624
301.3942, 359.3069
301.8763, 367.2151
302.3584, 378.8091
302.8405, 393.1174
303.3227, 404.6118
303.8048, 409.6855
304.2869, 409.6584
304.7690, 405.3359
305.2511, 393.9610
305.7332, 384.2112
306.2154, 388.1233
306.6975, 401.6335
307.1796, 410.3710
307.6617, 397.9607
308.1438, 379.7862
308.6259, 373.4341
309.1081, 388.2103
309.5901, 401.9509
310.0723, 395.6389
310.5544, 376.1880
311.0365, 360.0236
311.5186, 365.4401
312.0007, 371.1446
312.4828, 357.1296
312.9650, 314.0301
313.4471, 269.5195
313.9292, 239.2839
314.4113, 218.5045
314.8934, 197.5546
315.3755, 165.3455
315.8577, 137.0828
316.3398, 125.5704
316.8219, 139.1683
317.3040, 145.2513
317.7861, 121.5139
318.2682, 84.46997
318.7504, 59.75146
319.2325, 69.88831
319.7146, 80.83270
320.1967, 73.58478
320.6788, 40.33661
321.1609, 19.94189
321.6431, 33.65857
322.1252, 61.67041
322.6073, 79.18970
323.0894, 75.76617
323.5715, 66.71863
324.0536, 53.19141
324.5358, 33.24268
325.0179, 23.26978
325.5000, 33.20148
325.9821, 50.14130
326.4642, 61.33057
326.9464, 63.58521
327.4285, 62.80017
327.9106, 60.39404
328.3927, 56.61993
328.8748, 47.68524
329.3569, 25.31390
329.8391, 3.657288
330.3212, 5.606323
330.8033, 6.591309
331.2854, 18.14630
331.7675, 27.74249
332.2496, 35.15698
332.7318, 35.22815
333.2139, 24.34857
333.6960, 10.42145
334.1781, 1.862732
334.6602, 14.47815
335.1423, 20.94214
335.6245, 18.91547
336.1066, 10.07568
336.5887, 2.974182
337.0708, 2.181335
337.5529, 6.214966
338.0350, 10.10938
338.5172, 14.53589
338.9993, 14.94769
339.4814, 9.462036
339.9635, 1.183899
340.4456, 1.888123
340.9277, 1.563049
341.4099, 4.540039
341.8920, 1.343201
342.3741, 8.242859
342.8562, 10.50830
343.3383, 2.813171
343.8204, 8.648438
344.3026, 14.32330
344.7847, 13.84882
345.2668, 10.95367
345.7489, 6.447021
346.2310, 0.6973880
346.7131, 5.426331
347.1953, 12.69904
347.6774, 16.74103
348.1595, 7.225769
348.6416, 12.21466
349.1237, 25.57745
349.6058, 19.87976
350.0880, 4.794739
350.5700, 0.1484380
351.0522, 6.565369
351.5343, 14.31055
352.0164, 15.68970
352.4985, 11.55835
352.9806, 3.663208
353.4627, 13.24176
353.9449, 29.11993
354.4270, 31.42084
354.9091, 21.23517
355.3912, 8.500854
355.8733, 3.773560
356.3554, 13.42725
356.8376, 17.55756
357.3197, 11.47919
357.8018, 4.381042
358.2839, 2.455505
358.7660, 4.683777
359.2481, 7.225830
359.7303, 6.966919
360.2124, 6.549438
360.6945, 8.372131
361.1766, 13.46283
361.6587, 19.97443
362.1408, 29.78247
362.6230, 40.56732
363.1051, 47.02490
363.5872, 43.91156
364.0693, 38.97192
364.5514, 35.11334
365.0335, 31.57513
365.5157, 31.66962
365.9978, 43.52875
366.4799, 57.65356
366.9620, 60.03833
367.4441, 28.71552
367.9262, 5.442566
368.4084, 4.050415
368.8905, 29.54303
369.3726, 48.09766
369.8547, 57.00458
370.3368, 60.60632
370.8189, 63.27783
371.3011, 68.51917
371.7832, 66.83655
372.2653, 51.67627
372.7474, 24.54114
373.2295, 14.74188
373.7116, 31.99646
374.1938, 52.00867
374.6759, 54.13135
375.1580, 31.49078
375.6401, 16.43188
376.1222, 12.81940
376.6043, 19.31519
377.0865, 34.85638
377.5686, 62.41949
378.0507, 85.51263
378.5328, 91.19110
379.0149, 79.69727
379.4970, 72.73755
379.9792, 73.48914
380.4613, 76.09781
380.9434, 67.93896
381.4255, 49.58917
381.9076, 34.74240
382.3897, 31.68896
382.8719, 37.39532
383.3540, 43.97562
383.8361, 51.63107
384.3182, 58.18478
384.8003, 59.44919
385.2824, 57.41174
385.7646, 57.80029
386.2467, 65.05173
386.7288, 74.67749
387.2109, 81.91711
387.6930, 86.67795
388.1751, 87.59012
388.6573, 80.99359
389.1394, 71.56387
389.6215, 66.60327
390.1036, 72.80396
390.5857, 78.13800
391.0678, 70.65341
391.5499, 54.45978
392.0320, 44.28525
392.5142, 53.55423
392.9963, 67.30331
393.4784, 75.59326
393.9605, 74.46249
394.4426, 73.49966
394.9247, 77.88498
395.4069, 84.00070
395.8890, 85.44672
396.3711, 72.48260
396.8532, 61.92889
397.3353, 46.87094
397.8174, 65.38901
398.2996, 75.74863
398.7817, 78.72769
399.2638, 51.68750
399.7459, 63.37894
400.2280, 58.91705
400.7101, 53.65271
401.1923, 70.50946
401.6744, 47.87048
402.1565, 65.00616
402.6386, 66.28165
403.1207, 74.70184
403.6028, 67.27231
404.0850, 64.39407
404.5671, 76.81802
405.0492, 80.10147
405.5313, 69.46979
406.0134, 77.31876
406.4955, 54.17105
406.9777, 48.04495
407.4598, 49.89792
407.9419, 58.88113
408.4240, 59.75705
408.9061, 50.46606
409.3882, 39.81342
409.8704, 42.79611
410.3525, 57.37128
410.8346, 67.26123
411.3167, 60.90756
411.7988, 45.76825
412.2809, 40.63641
412.7631, 46.21173
413.2452, 54.59644
413.7273, 59.86444
414.2094, 62.35632
414.6915, 63.16733
415.1736, 63.38086
415.6558, 60.42017
416.1379, 46.54315
416.6200, 25.99826
417.1021, 15.03345
417.5842, 34.46390
418.0663, 60.08792
418.5485, 70.66913
419.0306, 58.00348
419.5127, 43.13596
419.9948, 33.00552
420.4769, 26.96658
420.9590, 23.58124
421.4412, 19.76804
421.9233, 20.76160
422.4054, 32.36594
422.8875, 57.79788
423.3696, 72.14395
423.8517, 60.10294
424.3339, 42.06802
424.8160, 35.99036
425.2981, 56.88922
425.7802, 68.38757
426.2623, 63.70282
426.7444, 46.82581
427.2266, 36.36658
427.7087, 35.13214
428.1908, 35.41675
428.6729, 31.35440
429.1550, 19.20483
429.6371, 19.88864
430.1193, 39.72974
430.6014, 65.66013
431.0835, 72.54074
431.5656, 58.98428
432.0477, 44.89954
432.5298, 36.20831
433.0119, 32.78003
433.4940, 39.98248
433.9762, 60.07611
434.4583, 76.82672
434.9404, 67.61514
435.4225, 39.56927
435.9046, 18.68668
436.3867, 12.97229
436.8689, 17.36542
437.3510, 31.75772
437.8331, 53.20178
438.3152, 65.87369
438.7973, 49.75647
439.2794, 23.41339
439.7616, 8.607483
440.2437, 11.69260
440.7258, 18.57205
441.2079, 19.25641
441.6900, 17.83456
442.1721, 21.16296
442.6543, 41.80743
443.1364, 59.68927
443.6185, 62.03970
444.1006, 48.11044
444.5827, 34.66147
445.0648, 19.94864
445.5470, 10.26169
446.0291, 10.36832
446.5112, 34.73584
446.9933, 52.29449
447.4754, 59.74924
447.9576, 58.63208
448.4397, 54.15598
448.9218, 44.00391
449.4039, 33.57874
449.8860, 25.07220
450.3681, 18.96027
450.8503, 14.45428
451.3324, 10.84106
451.8145, 9.434845
452.2966, 13.91574
452.7787, 25.74014
453.2608, 32.81845
453.7430, 28.70355
454.2251, 17.77133
454.7072, 19.37717
455.1893, 34.43469
455.6714, 49.54614
456.1535, 51.05817
456.6357, 42.96762
457.1178, 38.27487
457.5999, 40.77094
458.0820, 44.69901
458.5641, 42.26819
459.0462, 35.44641
459.5284, 29.62320
460.0105, 29.05109
460.4926, 30.56610
460.9747, 31.71741
461.4568, 32.35873
461.9389, 32.47925
462.4211, 30.61148
462.9032, 28.83572
463.3853, 29.38205
463.8674, 37.07614
464.3495, 42.76089
464.8316, 41.73621
465.3138, 35.82260
465.7959, 33.09323
466.2780, 40.55640
466.7601, 46.65927
467.2422, 45.69281
467.7243, 33.02509
468.2065, 24.16589
468.6886, 19.29935
469.1707, 17.85037
469.6528, 19.48428
470.1349, 25.90244
470.6170, 31.89691
471.0992, 37.36691
471.5813, 41.66196
472.0634, 37.10626
472.5455, 21.09320
473.0276, 6.507080
473.5097, 4.533691
473.9918, 14.32956
474.4739, 25.83847
474.9561, 38.36053
475.4382, 49.52368
475.9203, 57.80621
476.4024, 63.52423
476.8845, 65.01703
477.3666, 60.56534
477.8488, 51.69379
478.3309, 37.87952
478.8130, 19.08380
479.2951, 4.862335
479.7772, 5.996918
480.2593, 14.23776
480.7415, 19.65506
481.2236, 15.70871
481.7057, 13.34863
482.1878, 21.79367
482.6699, 36.25864
483.1520, 43.22919
483.6342, 27.94305
484.1163, 13.62585
484.5984, 11.10602
485.0805, 25.38165
485.5626, 37.04932
486.0447, 48.10425
486.5269, 54.67688
487.0090, 53.38525
487.4911, 39.89767
487.9732, 27.89163
488.4553, 17.91840
488.9374, 10.81982
489.4196, 11.32715
489.9017, 21.67249
490.3838, 32.47382
490.8659, 39.52182
491.3480, 42.73056
491.8301, 38.95459
492.3123, 26.01062
492.7944, 13.34076
493.2765, 14.76996
493.7586, 27.57437
494.2407, 40.12741
494.7228, 51.44739
495.2050, 57.72141
495.6871, 47.69299
496.1692, 24.39346
496.6513, 7.612091
497.1334, 16.59058
497.6155, 34.75031
498.0977, 47.30676
498.5798, 52.13953
499.0619, 48.74149
499.5440, 26.78934
500.0261, 1.095276
500.5082, 16.97260
500.9904, 5.022156
501.4725, 8.673798
501.9546, 15.74759
502.4367, 15.95126
502.9188, 20.91959
503.4009, 38.99155
503.8831, 54.26883
504.3652, 57.54749
504.8473, 42.70294
505.3294, 28.82062
505.8115, 13.43539
506.2936, 1.907654
506.7758, 8.217102
507.2579, 36.81747
507.7400, 55.52795
508.2221, 49.72809
508.7042, 25.66571
509.1863, 8.710297
509.6685, 1.038910
510.1506, 5.453430
510.6327, 3.842133
511.1148, 1.753479
511.5969, 6.596985
512.0790, 9.949341
512.5612, 12.21146
513.0433, 11.70602
513.5254, 10.42261
514.0075, 12.63852
514.4896, 26.70850
514.9717, 39.67609
515.4539, 41.20312
515.9360, 31.67963
516.4181, 25.62183
516.9002, 34.95621
517.3823, 44.98605
517.8644, 29.91092
518.3466, 47.47394
518.8287, 57.07074
519.3108, 59.12881
519.7929, 31.06693
520.2750, 41.90149
520.7571, 37.14972
521.2393, 31.75952
521.7214, 48.07172
522.2035, 24.39676
522.6856, 40.36780
523.1677, 40.51505
523.6498, 47.90625
524.1320, 39.61465
524.6141, 36.16864
525.0962, 48.41336
525.5783, 51.97272
526.0604, 41.88162
526.5425, 49.74139
527.0247, 25.53146
527.5068, 29.46515
527.9889, 45.54230
528.4710, 36.24533
528.9531, 40.65771
529.4352, 38.30878
529.9174, 32.02289
530.3995, 24.37219
530.8816, 15.49521
531.3637, 3.852020
531.8458, 16.28577
532.3279, 26.64612
532.8101, 15.48843
533.2922, 6.638397
533.7743, 23.70383
534.2564, 37.12732
534.7385, 41.90417
535.2206, 32.89087
535.7027, 12.15024
536.1848, 1.581085
536.6669, 3.694702
537.1490, 10.85510
537.6312, 21.15945
538.1133, 35.52951
538.5954, 39.86795
539.0775, 30.05438
539.5596, 16.87228
540.0417, 15.61493
540.5239, 24.27734
541.0060, 31.17828
541.4881, 33.55435
541.9702, 31.05893
542.4523, 18.48975
542.9344, 1.448761
543.4166, 15.04584
543.8987, 8.741058
544.3808, 4.592316
544.8629, 13.55896
545.3450, 16.03665
545.8271, 18.90976
546.3093, 26.16992
546.7914, 32.49866
547.2735, 33.72742
547.7556, 20.67194
548.2377, 12.24927
548.7198, 14.06552
549.2020, 22.84631
549.6841, 27.98465
550.1662, 29.35840
550.6483, 27.13095
551.1304, 19.35129
551.6125, 5.415497
552.0947, 0.5354000
552.5768, 6.585754
553.0589, 15.83591
553.5410, 22.25830
554.0231, 25.69077
554.5052, 23.37885
554.9874, 10.64401
555.4695, 2.015594
555.9516, 2.241364
556.4337, 19.20093
556.9158, 34.60028
557.3979, 43.03430
557.8801, 45.74799
558.3622, 40.42386
558.8443, 28.99323
559.3264, 20.32928
559.8085, 23.32440
560.2906, 27.84018
560.7728, 25.56049
561.2549, 5.743378
561.7370, 3.451599
562.2191, 11.45834
562.7012, 35.49939
563.1833, 48.68866
563.6655, 47.28922
564.1476, 41.21808
564.6297, 30.21518
565.1118, 15.96136
565.5939, 7.829681
566.0760, 6.717712
566.5582, 7.831818
567.0403, 5.810272
567.5224, 2.519073
568.0045, 13.58496
568.4866, 42.09122
568.9688, 67.79260
569.4509, 63.86365
569.9330, 41.59399
570.4151, 24.53223
570.8972, 21.71246
571.3793, 23.52698
571.8615, 25.07416
572.3436, 25.61026
572.8257, 23.20547
573.3078, 10.55545
573.7899, 0.4910280
574.2720, 0.4592900
574.7542, 11.66928
575.2363, 22.02292
575.7184, 35.21255
576.2005, 43.27676
576.6826, 39.45178
577.1647, 14.45181
577.6469, 1.767090
578.1290, 7.182159
578.6111, 19.94318
579.0932, 21.09131
579.5753, 9.526703
580.0574, 3.328156
580.5396, 10.67957
581.0217, 25.48267
581.5038, 32.46460
581.9859, 32.23465
582.4680, 31.10318
582.9501, 34.79895
583.4323, 39.24542
583.9144, 37.60538
584.3965, 28.44568
584.8786, 22.05643
585.3607, 28.75778
585.8428, 39.43948
586.3250, 44.92923
586.8071, 37.18283
587.2892, 31.58487
587.7713, 32.14102
588.2534, 36.22540
588.7355, 37.79343
589.2177, 34.84076
589.6998, 31.83435
590.1819, 30.89383
590.6640, 33.00616
591.1461, 31.52753
591.6282, 24.10184
592.1104, 18.76355
592.5925, 24.25952
593.0746, 38.30240
593.5567, 46.16492
594.0388, 46.60275
594.5209, 40.96216
595.0031, 23.76459
595.4852, 2.185730
595.9673, 8.591492
596.4494, 3.510468
596.9315, 19.30740
597.4136, 24.35092
597.8958, 22.16931
598.3779, 22.38193
598.8600, 34.31445
599.3421, 43.92282
599.8242, 42.84201
600.3063, 28.84293
600.7885, 23.27734
601.2706, 35.76929
601.7527, 46.38428
602.2348, 38.74405
602.7169, 4.323517
603.1990, 14.60455
603.6812, 13.50992
604.1633, 1.991913
604.6454, 8.510468
605.1275, 17.77786
605.6096, 23.42908
606.0917, 23.59485
606.5739, 21.22266
607.0560, 20.24286
607.5381, 20.61908
608.0202, 22.24377
608.5023, 25.27725
608.9844, 29.36118
609.4666, 37.12302
609.9487, 48.90936
610.4308, 51.61951
610.9129, 26.96405
611.3950, 0.3897710
611.8771, 9.551941
612.3593, 15.69006
612.8414, 29.62946
613.3235, 27.57248
613.8056, 17.17249
614.2877, 9.987915
614.7698, 5.966644
615.2520, 5.929077
615.7341, 12.58746
616.2162, 21.12680
616.6983, 23.42328
617.1804, 20.04825
617.6625, 18.65894
618.1446, 27.50906
618.6267, 39.54715
619.1088, 42.38315
619.5909, 35.75693
620.0731, 28.21481
620.5552, 22.26431
621.0373, 19.49927
621.5194, 8.668152
622.0015, 27.19324
622.4836, 37.75012
622.9658, 40.76724
623.4479, 13.66263
623.9300, 25.45322
624.4121, 21.65585
624.8942, 17.21906
625.3763, 34.48294
625.8585, 11.75836
626.3406, 28.67834
626.8227, 29.77255
627.3048, 38.49515
627.7869, 32.15506
628.2690, 29.65140
628.7512, 42.83615
629.2333, 47.33337
629.7154, 38.63254
630.1975, 48.46414
630.6796, 25.19278
631.1617, 30.05789
631.6439, 47.05167
632.1260, 44.61774
632.6081, 42.47568
633.0902, 33.94962
633.5723, 27.34753
634.0544, 24.59045
634.5366, 24.01117
635.0187, 28.97079
635.5008, 35.29611
635.9829, 32.48083
636.4650, 13.65878
636.9471, 1.776978
637.4293, 5.697479
637.9114, 22.04047
638.3935, 34.80917
638.8756, 44.09723
639.3577, 47.43213
639.8398, 37.55606
640.3220, 21.35983
640.8041, 16.42877
641.2862, 24.15628
641.7683, 32.57983
642.2504, 33.48758
642.7325, 29.31366
643.2147, 22.03421
643.6968, 8.499207
644.1789, 1.126923
644.6610, 4.276123
645.1431, 1.512451
645.6252, 6.926270
646.1074, 30.29529
646.5895, 44.52008
647.0716, 41.86740
647.5537, 27.99402
648.0358, 24.76682
648.5179, 34.38998
649.0001, 42.12067
649.4822, 39.45132
649.9643, 29.44141
650.4464, 23.49289
650.9285, 21.56073
651.4106, 21.51730
651.8928, 22.95090
652.3749, 10.17737
652.8570, 28.20709
653.3391, 38.26865
653.8212, 40.29651
654.3033, 12.69608
654.7855, 23.99045
655.2676, 19.69702
655.7497, 14.76376
656.2318, 31.53104
656.7139, 8.309021
657.1960, 24.73114
657.6782, 25.32727
658.1603, 33.16757
658.6424, 25.32373
659.1245, 22.32654
659.6066, 35.01913
660.0887, 39.02426
660.5709, 29.37854
661.0530, 36.82004
661.5351, 12.25775
662.0172, 16.51715
662.4993, 33.03317
662.9814, 24.19086
663.4636, 33.18930
663.9457, 35.15497
664.4278, 6.897583
664.9099, 31.15909
665.3920, 32.70718
665.8741, 10.93353
666.3563, 33.39395
666.8384, 14.83441
667.3205, 10.91589
667.8026, 18.01547
668.2847, 13.65680
668.7668, 27.78888
669.2490, 24.09909
669.7311, 17.45215
670.2132, 0.2085270
670.6953, 7.325226
671.1774, 9.195862
671.6595, 31.64883
672.1417, 26.47748
672.6238, 1.259064
673.1059, 15.70584
673.5880, 0.3172610
674.0701, 21.46646
674.5522, 32.94016
675.0344, 33.19482
675.5165, 32.28662
675.9986, 32.79874
676.4807, 32.38766
676.9628, 28.82327
677.4449, 19.51920
677.9271, 19.15399
678.4092, 32.46317
678.8913, 45.96191
679.3734, 40.64392
679.8555, 18.64865
680.3376, 12.35370
680.8198, 29.37918
681.3019, 52.34802
681.7840, 60.86810
682.2661, 58.55225
682.7482, 53.19180
683.2303, 47.97919
683.7125, 39.96292
684.1946, 20.13965
684.6767, 3.881531
685.1588, 13.78436
685.6409, 16.77704
686.1230, 37.73288
686.6052, 28.54086
687.0873, 4.990143
687.5694, 14.29013
688.0515, 8.997650
688.5336, 34.24469
689.0157, 46.21539
689.4979, 46.27472
689.9800, 44.36865
690.4621, 40.42578
690.9442, 35.85275
691.4263, 29.08237
691.9084, 23.32797
692.3906, 25.33322
692.8727, 37.70636
693.3548, 47.06445
693.8369, 43.95221
694.3190, 35.11176
694.8011, 27.13171
695.2833, 21.65088
695.7654, 16.66754
696.2475, 11.06302
696.7296, 6.454315
697.2117, 5.446411
697.6938, 8.654816
698.1760, 12.97940
698.6581, 17.78763
699.1402, 23.34451
699.6223, 16.54587
700.1044, 34.78470
700.5865, 45.05844
701.0686, 47.79288
701.5507, 20.40527
702.0328, 31.68283
702.5150, 27.17438
702.9971, 22.19919
703.4792, 39.17252
703.9613, 16.16409
704.4434, 32.79959
704.9255, 33.60931
705.4077, 41.66129
705.8898, 34.02887
706.3719, 31.24020
706.8540, 44.14178
707.3361, 48.36136
707.8182, 38.93362
708.3004, 47.45593
708.7825, 23.90738
709.2646, 28.50040
709.7467, 45.23480
710.2288, 36.59378
710.7109, 45.39996
711.1931, 47.56052
711.6752, 19.53549
712.1573, 44.01785
712.6394, 45.78671
713.1215, 24.23380
713.6036, 46.91486
714.0858, 28.57590
714.5679, 24.87421
715.0500, 32.19891
715.5321, 28.43149
716.0142, 36.90063
716.4963, 29.29263
716.9785, 15.18396
717.4606, 13.36514
717.9427, 23.29541
718.4248, 32.40613
718.9069, 36.88492
719.3890, 36.28976
719.8712, 25.09634
720.3533, 6.282288
720.8354, 4.871796
721.3175, 4.823730
721.7996, 20.40781
722.2817, 35.71429
722.7639, 50.58929
723.2460, 59.27481
723.7281, 61.94376
724.2102, 58.09012
724.6923, 44.83362
725.1744, 20.20367
725.6566, 3.647827
726.1387, 4.869141
726.6208, 5.756256
727.1029, 5.973541
727.5850, 24.63068
728.0671, 34.42981
728.5493, 31.16803
729.0314, 26.32693
729.5135, 25.61530
729.9956, 28.10574
730.4777, 32.89240
730.9598, 43.32779
731.4420, 50.56671
731.9241, 51.28815
732.4062, 46.91754
732.8883, 37.52225
733.3704, 18.25781
733.8525, 10.16565
734.3347, 21.48169
734.8168, 40.15344
735.2989, 35.02734
735.7810, 10.11145
736.2631, 3.032166
736.7452, 19.88458
737.2274, 49.71426
737.7095, 50.65604
738.1916, 15.68628
738.6737, 33.54651
739.1558, 43.43857
739.6379, 45.79065
740.1201, 18.02066
740.6022, 29.14590
741.0843, 24.68289
741.5664, 19.58029
742.0485, 36.18298
742.5306, 12.42044
743.0128, 27.68213
743.4949, 28.12222
743.9770, 35.80380
744.4591, 27.79880
744.9412, 24.17389
745.4233, 35.65417
745.9055, 39.47894
746.3876, 29.65710
746.8697, 37.78436
747.3518, 13.84119
747.8339, 18.04550
748.3160, 34.40842
748.7982, 25.37320
749.2803, 33.78558
749.7624, 35.55240
750.2445, 7.119781
750.7266, 31.20618
751.2087, 32.57919
751.6909, 11.17288
752.1730, 34.25369
752.6551, 15.77176
753.1372, 11.68729
753.6193, 18.61264
754.1014, 14.05090
754.5836, 27.58319
755.0657, 18.46783
755.5478, 9.481842
756.0299, 0.9211120
756.5120, 1.316772
756.9941, 27.13947
757.4763, 44.96756
757.9584, 41.15659
758.4405, 26.88846
758.9226, 25.32172
759.4047, 39.99008
759.8868, 49.56851
760.3690, 47.38065
760.8511, 39.59772
761.3332, 38.40924
761.8153, 42.22748
762.2974, 44.97879
762.7795, 42.82330
763.2617, 39.35117
763.7438, 37.72229
764.2259, 37.53961
764.7080, 36.46750
765.1901, 30.28958
765.6722, 24.05475
766.1544, 19.42688
766.6365, 16.84995
767.1186, 19.36420
767.6007, 28.99753
768.0828, 34.47708
768.5649, 25.41815
769.0471, 9.302002
769.5292, 13.20758
770.0113, 34.70410
770.4934, 53.99677
770.9755, 60.37729
771.4576, 57.14435
771.9398, 40.50507
772.4219, 11.10233
772.9040, 4.276245
773.3861, 20.32568
773.8682, 42.81964
774.3503, 40.67526
774.8325, 10.02789
775.3146, 2.171448
775.7967, 7.393738
776.2788, 22.80530
776.7609, 33.90057
777.2430, 41.02286
777.7252, 44.74426
778.2073, 45.00180
778.6894, 43.80017
779.1715, 43.38657
779.6536, 43.03992
780.1357, 42.65988
780.6179, 42.64685
781.1000, 40.96182
781.5821, 33.35715
782.0642, 26.85150
782.5463, 27.49066
783.0284, 38.60959
783.5105, 41.86011
783.9926, 34.25882
784.4747, 25.63226
784.9568, 28.82550
785.4390, 39.74658
785.9211, 46.22180
786.4032, 45.57501
786.8853, 43.54901
787.3674, 45.06116
787.8495, 47.52216
788.3317, 47.97025
788.8138, 44.91125
789.2959, 41.23227
789.7780, 37.39139
790.2601, 33.06750
790.7422, 27.05307
791.2244, 18.22827
791.7065, 14.93317
792.1886, 19.85263
792.6707, 26.06989
793.1528, 18.73831
793.6349, 4.627167
794.1171, 4.716278
794.5992, 34.76575
795.0813, 61.08807
795.5634, 54.88412
796.0455, 32.78418
796.5276, 19.84863
797.0098, 33.10428
797.4919, 39.72751
797.9740, 34.19827
798.4561, 22.37881
798.9382, 14.22308
799.4203, 9.851959
799.9025, 7.514862
800.3846, 7.102386
800.8667, 7.890564
801.3488, 8.141907
801.8309, 8.699738
802.3130, 11.68008
802.7952, 22.07977
803.2773, 30.32330
803.7594, 31.16919
804.2415, 26.68594
804.7236, 20.97794
805.2057, 9.765808
805.6879, 5.776947
806.1700, 13.84360
806.6521, 28.21851
807.1342, 36.74512
807.6163, 39.40149
808.0984, 33.99780
808.5806, 14.11444
809.0627, 6.735779
809.5448, 10.75241
810.0269, 2.093567
810.5090, 9.267822
810.9911, 24.62155
811.4733, 36.19296
811.9554, 40.39511
812.4375, 38.51685
812.9196, 34.85071
813.4017, 29.69351
813.8839, 21.43176
814.3660, 7.333771
814.8481, 7.831177
815.3302, 9.951752
815.8123, 0.9632870
816.2944, 6.865814
816.7766, 4.034088
817.2587, 1.074921
817.7408, 9.506866
818.2229, 25.39883
818.7050, 37.89954
819.1871, 45.34192
819.6693, 46.97235
820.1514, 42.21725
820.6335, 31.96564
821.1156, 16.78622
821.5977, 5.505219
822.0798, 18.63623
822.5620, 15.92953
823.0441, 1.348145
823.5262, 26.00937
824.0083, 60.20551
824.4904, 79.85120
824.9725, 64.58649
825.4547, 41.56381
825.9368, 20.63022
826.4189, 4.239868
826.9010, 0.8416440
827.3831, 21.04547
827.8652, 37.74265
828.3474, 44.71249
828.8295, 43.21243
829.3116, 33.90152
829.7937, 17.31528
830.2758, 7.358978
830.7579, 14.44937
831.2401, 27.74384
831.7222, 30.96835
832.2043, 27.44226
832.6864, 26.89798
833.1685, 37.93811
833.6506, 47.61072
834.1328, 50.35425
834.6149, 47.79285
835.0970, 44.82040
835.5791, 41.89764
836.0612, 36.04541
836.5433, 23.00803
837.0255, 9.846954
837.5076, 18.78607
837.9897, 44.05487
838.4718, 60.77991
838.9539, 45.75864
839.4360, 28.16397
839.9182, 29.97964
840.4003, 44.91663
840.8824, 55.85934
841.3645, 58.13742
841.8466, 58.09686
842.3287, 56.42545
842.8109, 53.70987
843.2930, 51.18573
843.7751, 48.86908
844.2572, 46.63431
844.7393, 43.91135
845.2214, 41.95853
845.7036, 45.39124
846.1857, 50.86041
846.6678, 50.50674
847.1499, 29.08240
847.6320, 14.73380
848.1141, 26.07272
848.5963, 49.39838
849.0784, 53.51382
849.5605, 29.10016
850.0426, 9.941498
850.5247, 3.237488
851.0068, 6.870056
851.4890, 23.35251
851.9711, 47.75488
852.4532, 61.53040
852.9353, 52.23917
853.4174, 39.36810
853.8995, 36.96747
854.3817, 39.58517
854.8638, 38.66626
855.3459, 28.35510
855.8280, 21.38800
856.3101, 19.96286
856.7922, 21.31155
857.2744, 19.04568
857.7565, 13.66278
858.2386, 17.29480
858.7207, 36.12662
859.2028, 55.20789
859.6849, 55.41403
860.1671, 45.39740
860.6492, 38.54346
861.1313, 39.67505
861.6134, 43.06000
862.0955, 53.29019
862.5776, 61.59750
863.0598, 42.20755
863.5419, 60.31238
864.0240, 70.47144
864.5061, 73.09042
864.9882, 45.58789
865.4703, 56.97995
865.9524, 52.78400
866.4345, 47.94833
866.9166, 64.27106
867.3987, 40.35168
867.8809, 56.61945
868.3630, 57.30508
868.8451, 65.24158
869.3272, 57.49393
869.8093, 54.59012
870.2914, 67.37463
870.7736, 71.47186
871.2557, 61.91711
871.7378, 70.31207
872.2199, 46.62057
872.7020, 50.47299
873.1841, 66.33374
873.6663, 57.38321
874.1484, 66.04578
874.6305, 68.05096
875.1126, 39.81442
875.5947, 64.16248
876.0768, 65.80420
876.5590, 44.12448
877.0411, 66.67917
877.5232, 48.21393
878.0053, 44.39001
878.4874, 51.66360
878.9695, 47.65591
879.4517, 61.00385
879.9338, 56.08090
880.4159, 41.52206
880.8980, 37.10883
881.3801, 30.14697
881.8622, 8.110291
882.3444, 6.075378
882.8265, 1.111633
883.3086, 21.37689
883.7907, 41.73215
884.2728, 60.85434
884.7549, 70.37936
885.2371, 58.35641
885.7192, 37.93234
886.2013, 33.66721
886.6834, 42.56763
887.1655, 52.24084
887.6476, 63.53000
888.1298, 67.47037
888.6119, 53.62418
889.0940, 28.70563
889.5761, 16.00253
890.0582, 18.08917
890.5403, 23.81509
891.0225, 30.20300
891.5046, 37.93198
891.9867, 52.87277
892.4688, 70.73993
892.9509, 78.41412
893.4330, 63.47858
893.9152, 45.84650
894.3973, 34.16684
894.8794, 27.41821
895.3615, 23.74594
895.8436, 24.42087
896.3257, 25.34128
896.8079, 27.21835
897.2900, 27.28287
897.7721, 17.95007
898.2542, 2.454041
898.7363, 5.479858
899.2184, 2.096832
899.7006, 6.709717
900.1827, 19.80280
900.6648, 33.92102
901.1469, 45.61011
901.6290, 55.64886
902.1111, 59.66138
902.5933, 55.79572
903.0754, 48.56805
903.5575, 41.73981
904.0396, 35.19446
904.5217, 27.84824
905.0038, 19.62051
905.4860, 10.78232
905.9681, 6.165070
906.4502, 18.69165
906.9323, 9.187927
907.4144, 27.19360
907.8965, 47.75043
908.3787, 35.87225
908.8608, 21.89474
909.3429, 21.43631
909.8250, 32.16907
910.3071, 27.88547
910.7892, 8.807770
911.2714, 6.350250
911.7535, 2.542511
912.2356, 8.193115
912.7177, 15.60120
913.1998, 19.34879
913.6819, 19.29608
914.1641, 6.978699
914.6462, 1.521271
915.1283, 11.77301
915.6104, 30.37778
916.0925, 34.20505
916.5746, 23.79974
917.0568, 15.13861
917.5389, 13.41656
918.0210, 0.9430240
918.5031, 19.06207
918.9852, 29.21359
919.4673, 31.82556
919.9495, 4.316467
920.4316, 15.70282
920.9137, 11.50192
921.3958, 6.667725
921.8779, 23.54126
922.3600, 0.4273070
922.8422, 16.95804
923.3243, 17.66351
923.8064, 25.61203
924.2885, 17.87689
924.7706, 14.98868
925.2527, 27.79279
925.7349, 31.91125
926.2170, 22.37854
926.6991, 30.79556
927.1812, 7.142273
927.6633, 11.63141
928.1454, 28.26279
928.6276, 19.51935
929.1097, 28.22382
929.5918, 30.28351
930.0739, 2.144073
930.5560, 26.52701
931.0381, 28.20038
931.5203, 6.553619
932.0024, 29.14163
932.4845, 10.71045
932.9666, 6.921234
933.4487, 14.15085
933.9308, 9.894012
934.4130, 23.74734
934.8951, 20.15424
935.3772, 6.393982
935.8593, 1.771759
936.3414, 5.218353
936.8235, 10.55032
937.3057, 35.05743
937.7878, 47.61203
938.2699, 28.95212
938.7520, 13.36890
939.2341, 5.384338
939.7162, 4.150818
940.1984, 10.42633
940.6805, 25.67126
941.1626, 36.96884
941.6447, 42.96848
942.1268, 43.77863
942.6089, 34.56097
943.0911, 22.60315
943.5732, 18.09299
944.0553, 23.99622
944.5374, 29.56207
945.0195, 33.52823
945.5016, 34.92209
945.9838, 32.61407
946.4659, 26.73297
946.9480, 20.97046
947.4301, 15.24768
947.9122, 11.98575
948.3943, 15.50912
948.8764, 20.40720
949.3585, 19.16525
949.8406, 13.46341
950.3228, 11.24933
950.8049, 15.68307
951.2870, 23.82651
951.7691, 40.79456
952.2512, 58.60220
952.7333, 49.37064
953.2155, 15.97098
953.6976, 2.598633
954.1797, 31.09634
954.6618, 63.43481
955.1439, 55.04626
955.6260, 28.91162
956.1082, 17.37799
956.5903, 43.42386
957.0724, 56.95560
957.5545, 52.53720
958.0366, 40.32938
958.5187, 27.82071
959.0009, 15.90594
959.4830, 8.577087
959.9651, 6.022308
960.4472, 12.23035
960.9293, 45.12363
961.4114, 77.12567
961.8936, 80.54114
962.3757, 52.55652
962.8578, 36.35144
963.3399, 39.00128
963.8220, 43.25403
964.3041, 42.30426
964.7863, 39.15881
965.2684, 40.30136
965.7505, 43.72485
966.2326, 42.48462
966.7147, 22.44254
967.1968, 9.020721
967.6790, 24.14798
968.1611, 54.00690
968.6432, 73.47318
969.1253, 83.61111
969.6074, 74.81781
970.0895, 39.30487
970.5717, 1.980896
971.0538, 0.3193050
971.5359, 21.30771
972.0180, 34.42963
972.5001, 35.07837
972.9822, 28.87750
973.4644, 7.409607
973.9465, 10.25336
974.4286, 8.778259
974.9107, 12.59802
975.3928, 29.86789
975.8749, 43.58124
976.3571, 49.68579
976.8392, 40.88559
977.3213, 25.68481
977.8034, 18.67630
978.2855, 18.24905
978.7676, 20.31091
979.2498, 22.30600
979.7319, 22.83023
980.2140, 22.55341
980.6961, 22.25946
981.1782, 21.79388
981.6603, 20.94122
982.1425, 28.06781
982.6246, 47.59015
983.1067, 63.73059
983.5888, 55.19324
984.0709, 35.34637
984.5530, 19.95898
985.0352, 11.31158
985.5173, 10.26141
985.9994, 21.30255
986.4815, 32.91125
986.9636, 37.76517
987.4457, 36.62634
987.9279, 36.47879
988.4100, 37.09021
988.8921, 35.73578
989.3742, 26.57797
989.8563, 18.50879
990.3384, 18.68036
990.8206, 25.67346
991.3027, 33.96371
991.7848, 44.81580
992.2669, 52.98831
992.7490, 57.89343
993.2311, 59.02042
993.7133, 52.30023
994.1954, 41.07111
994.6775, 35.52603
995.1596, 39.03143
995.6417, 43.03342
996.1238, 46.92361
996.6060, 46.28674
997.0881, 35.08005
997.5702, 9.881622
998.0523, 1.453552
998.5344, 11.90362
999.0165, 24.52878
999.4987, 27.54352
999.9808, 25.79959
1000.463, 25.52106
1000.945, 26.94287
1001.427, 30.36127
1001.909, 40.93130
1002.391, 46.89255
1002.873, 43.59296
1003.356, 35.50409
1003.838, 32.61264
1004.320, 34.49698
1004.802, 33.42639
1005.284, 26.60806
1005.766, 20.77731
1006.248, 27.22824
1006.730, 35.21051
1007.213, 30.79352
1007.695, 2.948761
1008.177, 6.823059
1008.659, 8.081421
1009.141, 27.84656
1009.623, 41.60101
1010.105, 49.75769
1010.587, 52.26501
1011.069, 49.97214
1011.552, 47.76776
1012.034, 51.77454
1012.516, 52.78662
1012.998, 44.43536
1013.480, 30.17859
1013.962, 16.30606
1014.444, 1.631897
1014.926, 6.072754
1015.409, 4.734314
1015.891, 1.309753
1016.373, 11.28577
1016.855, 20.46774
1017.337, 20.56195
1017.819, 7.527252
1018.301, 1.844727
1018.783, 6.412933
1019.265, 3.088196
1019.748, 13.92130
1020.230, 41.24231
1020.712, 53.48096
1021.194, 51.81656
1021.676, 47.47882
1022.158, 45.40344
1022.640, 44.26541
1023.122, 45.08990
1023.604, 45.82593
1024.087, 41.43121
1024.569, 29.05795
1025.051, 17.92337
1025.533, 7.709930
1026.015, 2.272827
1026.497, 11.11966
1026.979, 27.00845
1027.461, 33.27130
1027.943, 27.20761
1028.426, 23.48758
1028.908, 34.56970
1029.390, 42.06448
1029.872, 33.49789
1030.354, 12.92975
1030.836, 13.09634
1031.318, 33.79208
1031.800, 48.25677
1032.283, 41.88348
1032.765, 31.07697
1033.247, 29.54221
1033.729, 34.02383
1034.211, 39.16928
1034.693, 53.81516
1035.175, 48.81360
1035.657, 14.43033
1036.140, 20.22824
1036.622, 22.56451
1037.104, 2.800354
1037.586, 11.12814
1038.068, 17.25400
1038.550, 18.28922
1039.032, 8.153107
1039.514, 1.098328
1039.996, 5.780090
1040.479, 18.85559
1040.961, 29.68109
1041.443, 38.42221
1041.925, 42.95139
1042.407, 41.08658
1042.889, 38.86432
1043.371, 45.25024
1043.853, 54.54349
1044.335, 59.63666
1044.818, 59.55911
1045.300, 51.81375
1045.782, 30.14285
1046.264, 12.75739
1046.746, 15.32587
1047.228, 32.20062
1047.710, 42.25763
1048.192, 46.06052
1048.675, 46.87735
1049.157, 46.94919
1049.639, 44.07559
1050.121, 31.30902
1050.603, 16.47769
1051.085, 15.16974
1051.567, 28.82614
1052.049, 40.85156
1052.531, 48.60983
1053.014, 55.32611
1053.496, 71.17258
1053.978, 83.76724
1054.460, 73.93457
1054.942, 35.72519
1055.424, 15.67725
1055.906, 25.31927
1056.388, 37.19513
1056.870, 41.04858
1057.353, 38.10828
1057.835, 26.15930
1058.317, 9.513672
1058.799, 2.095978
1059.281, 14.76431
1059.763, 29.34918
1060.245, 41.66934
1060.727, 50.33621
1061.210, 53.76831
1061.692, 51.75150
1062.174, 44.73468
1062.656, 32.27850
1063.138, 24.50064
1063.620, 36.54987
1064.102, 51.43484
1064.584, 49.75812
1065.067, 34.67249
1065.549, 28.44611
1066.031, 39.64761
1066.513, 42.07172
1066.995, 26.62268
1067.477, 7.088593
1067.959, 8.086853
1068.441, 22.06232
1068.923, 31.91550
1069.406, 33.33466
1069.888, 36.35245
1070.370, 47.15213
1070.852, 58.49872
1071.334, 67.53781
1071.816, 74.00778
1072.298, 75.11023
1072.780, 70.42429
1073.262, 60.15060
1073.745, 37.69760
1074.227, 17.81277
1074.709, 12.74390
1075.191, 17.07370
1075.673, 22.61230
1076.155, 31.34488
1076.637, 30.54047
1077.119, 17.64539
1077.601, 7.081482
1078.084, 16.40121
1078.566, 34.44775
1079.048, 40.39395
1079.530, 33.69296
1080.012, 30.90732
1080.494, 43.38574
1080.976, 51.53528
1081.458, 50.74756
1081.941, 44.23932
1082.423, 36.92007
1082.905, 29.35742
1083.387, 24.49982
1083.869, 23.69125
1084.351, 21.48911
1084.833, 11.41461
1085.315, 1.596771
1085.797, 1.988464
1086.280, 0.4389040
1086.762, 1.230591
1087.244, 0.1700130
1087.726, 4.594452
1088.208, 25.21194
1088.690, 43.52863
1089.172, 32.78973
1089.654, 9.024048
1090.136, 0.4395140
1090.619, 18.38290
1091.101, 32.66788
1091.583, 41.47409
1092.065, 43.96149
1092.547, 34.09818
1093.029, 18.98233
1093.511, 12.81683
1093.993, 13.94507
1094.476, 17.86377
1094.958, 29.83453
1095.440, 36.55975
1095.922, 33.34131
1096.404, 25.04095
1096.886, 18.38654
1097.368, 13.99011
1097.850, 16.38470
1098.333, 26.93768
1098.815, 37.78577
1099.297, 48.01624
1099.779, 52.59906
1100.261, 44.43140
1100.743, 25.85913
1101.225, 18.30890
1101.707, 22.18237
1102.189, 29.23767
1102.672, 38.40350
1103.154, 45.36554
1103.636, 40.62408
1104.118, 32.74414
1104.600, 35.19824
1105.082, 61.83252
1105.564, 64.83051
1106.046, 37.41455
1106.528, 8.506958
1107.011, 4.132263
1107.493, 2.906372
1107.975, 15.87598
1108.457, 45.72089
1108.939, 63.93219
1109.421, 51.22089
1109.903, 42.14874
1110.385, 43.52716
1110.868, 48.57886
1111.350, 51.19440
1111.832, 50.39709
1112.314, 38.34662
1112.796, 15.08923
1113.278, 3.141052
1113.760, 5.151367
1114.242, 0.9954220
1114.724, 6.689087
1115.207, 15.88318
1115.689, 19.58429
1116.171, 18.01782
1116.653, 24.52191
1117.135, 45.58496
1117.617, 60.91022
1118.099, 45.81049
1118.581, 21.21753
1119.063, 6.673218
1119.546, 4.218628
1120.028, 1.954590
1120.510, 0.5786130
1120.992, 0.5941160
1121.474, 10.65112
1121.956, 20.59027
1122.438, 14.46765
1122.920, 0.7396240
1123.403, 6.422302
1123.885, 0.2562870
1124.367, 7.418945
1124.849, 15.56891
1125.331, 22.64655
1125.813, 25.66522
1126.295, 26.91113
1126.777, 34.71411
1127.260, 46.31378
1127.742, 50.67072
1128.224, 37.14014
1128.706, 23.50488
1129.188, 9.977417
1129.670, 1.905029
1130.152, 11.79486
1130.634, 34.21643
1131.116, 39.13629
1131.599, 24.75110
1132.081, 15.79858
1132.563, 38.47852
1133.045, 57.81409
1133.527, 54.77979
1134.009, 36.86267
1134.491, 22.43640
1134.973, 11.44214
1135.455, 0.1714480
1135.938, 15.16901
1136.420, 20.08783
1136.902, 12.41809
1137.384, 47.63782
1137.866, 48.02466
1138.348, 15.41486
1138.830, 12.86737
1139.312, 44.12555
1139.795, 67.28638
1140.277, 64.00323
1140.759, 49.97577
1141.241, 37.01782
1141.723, 27.26190
1142.205, 24.55035
1142.687, 32.82385
1143.169, 36.00604
1143.651, 32.42316
1144.134, 29.53693
1144.616, 33.76953
1145.098, 40.01703
1145.580, 38.81671
1146.062, 33.12518
1146.544, 30.02484
1147.026, 40.25562
1147.508, 37.44452
1147.990, 12.95856
1148.473, 8.791016
1148.955, 2.535706
1149.437, 32.41534
1149.919, 47.67822
1150.401, 48.36243
1150.883, 45.15222
1151.365, 33.94965
1151.847, 31.47601
1152.330, 45.33789
1152.812, 64.06085
1153.294, 68.15894
1153.776, 61.87292
1154.258, 62.24255
1154.740, 71.28912
1155.222, 75.70538
1155.704, 64.19940
1156.186, 50.85016
1156.669, 39.93732
1157.151, 32.83893
1157.633, 36.47882
1158.115, 48.88818
1158.597, 55.01581
1159.079, 50.27814
1159.561, 44.89764
1160.043, 42.55890
1160.526, 45.24005
1161.008, 56.90070
1161.490, 75.22528
1161.972, 83.51245
1162.454, 81.95038
1162.936, 74.56293
1163.418, 59.59473
1163.900, 46.56763
1164.382, 43.28723
1164.865, 45.47729
1165.347, 49.23340
1165.829, 54.31512
1166.311, 62.09491
1166.793, 72.93719
1167.275, 81.13556
1167.757, 85.18750
1168.239, 83.33099
1168.721, 67.30988
1169.204, 46.97211
1169.686, 39.60248
1170.168, 50.81787
1170.650, 59.19269
1171.132, 64.37549
1171.614, 66.76801
1172.096, 67.89044
1172.578, 66.03430
1173.061, 55.93512
1173.543, 41.45526
1174.025, 35.19885
1174.507, 43.97595
1174.989, 45.66486
1175.471, 37.56976
1175.953, 25.92883
1176.435, 10.75012
1176.917, 0.4419560
1177.400, 7.327637
1177.882, 31.11041
1178.364, 46.32324
1178.846, 48.14038
1179.328, 42.72083
1179.810, 27.92358
1180.292, 15.78986
1180.774, 29.33954
1181.256, 50.99414
1181.739, 51.33881
1182.221, 27.34393
1182.703, 11.47919
1183.185, 10.82117
1183.667, 16.25574
1184.149, 26.96515
1184.631, 39.89136
1185.113, 52.87524
1185.596, 62.99591
1186.078, 62.13843
1186.560, 47.18793
1187.042, 37.02820
1187.524, 40.11719
1188.006, 41.02545
1188.488, 32.49377
1188.970, 19.84167
1189.453, 13.71759
1189.935, 13.70081
1190.417, 19.35370
1190.899, 31.93304
1191.381, 46.15918
1191.863, 66.78345
1192.345, 79.76300
1192.827, 76.66223
1193.309, 61.22345
1193.792, 37.25238
1194.274, 10.97375
1194.756, 1.657471
1195.238, 24.73456
1195.720, 42.93060
1196.202, 46.19019
1196.684, 44.18567
1197.166, 43.16211
1197.648, 42.10901
1198.131, 31.76544
1198.613, 16.73956
1199.095, 14.35358
1199.577, 48.99396
1200.059, 74.33655
1200.541, 79.26141
1201.023, 73.29468
1201.505, 61.77069
1201.988, 45.96875
1202.470, 28.65643
1202.952, 11.48798
1203.434, 3.235901
1203.916, 15.72870
1204.398, 27.88757
1204.880, 35.17773
1205.362, 38.49805
1205.844, 37.94299
1206.327, 33.61847
1206.809, 27.19122
1207.291, 19.15057
1207.773, 16.77582
1208.255, 30.42706
1208.737, 42.14423
1209.219, 49.01276
1209.701, 48.85266
1210.183, 30.91022
1210.666, 2.225403
1211.148, 0.5626220
1211.630, 24.10388
1212.112, 46.62280
1212.594, 55.63385
1213.076, 54.11951
1213.558, 39.24365
1214.040, 20.26147
1214.523, 15.55505
1215.005, 21.53876
1215.487, 22.96509
1215.969, 17.88666
1216.451, 15.40155
1216.933, 20.65643
1217.415, 27.44049
1217.897, 35.02826
1218.380, 40.87274
1218.862, 35.77722
1219.344, 24.12958
1219.826, 23.26404
1220.308, 37.09338
1220.790, 49.38098
1221.272, 55.21210
1221.754, 53.82208
1222.236, 41.16327
1222.719, 24.74121
1223.201, 26.41266
1223.683, 40.04364
1224.165, 45.79150
1224.647, 38.77020
1225.129, 27.48438
1225.611, 7.659912
1226.093, 6.771790
1226.575, 10.89685
1227.058, 5.654419
1227.540, 14.33197
1228.022, 41.10242
1228.504, 47.57684
1228.986, 18.50885
1229.468, 5.418091
1229.950, 41.41418
1230.432, 72.23987
1230.915, 71.25439
1231.397, 51.17499
1231.879, 47.02557
1232.361, 52.92920
1232.843, 52.70135
1233.325, 38.64178
1233.807, 28.62390
1234.289, 28.24646
1234.771, 29.53864
1235.254, 28.85864
1235.736, 25.92981
1236.218, 17.17297
1236.700, 5.237732
1237.182, 4.539612
1237.664, 12.13708
1238.146, 12.27472
1238.628, 0.6773680
1239.110, 9.071594
1239.593, 5.835571
1240.075, 2.183594
1240.557, 8.799744
1241.039, 29.14850
1241.521, 37.12000
1242.003, 13.60498
1242.485, 6.047119
1242.967, 4.605408
1243.449, 23.36328
1243.932, 34.15497
1244.414, 37.40558
1244.896, 10.53497
1245.378, 22.55988
1245.860, 19.00165
1246.342, 14.79175
1246.824, 32.31165
1247.306, 9.843323
1247.789, 27.02124
1248.271, 28.37286
1248.753, 36.96771
1249.235, 29.87909
1249.717, 27.63507
1250.199, 41.07990
1250.681, 45.80792
1251.163, 36.91461
1251.646, 45.97278
1252.128, 22.96259
1252.610, 28.09766
1253.092, 45.37549
1253.574, 37.27893
1254.056, 46.63092
1254.538, 49.20020
1255.020, 21.70837
1255.502, 46.73688
1255.984, 49.05298
1256.467, 28.05042
1256.949, 51.28210
1257.431, 33.67719
1257.913, 45.41852
1258.395, 62.57697
1258.877, 68.19971
1259.359, 60.95911
1259.841, 49.46985
1260.324, 34.04437
1260.806, 25.84290
1261.288, 42.02069
1261.770, 57.83752
1262.252, 53.13110
1262.734, 40.30573
1263.216, 30.13086
1263.698, 21.92950
1264.181, 22.84253
1264.663, 32.39624
1265.145, 39.98138
1265.627, 37.00433
1266.109, 32.81732
1266.591, 30.72919
1267.073, 30.52075
1267.555, 31.84027
1268.037, 32.52112
1268.520, 36.88440
1269.002, 40.86584
1269.484, 39.43530
1269.966, 19.87970
1270.448, 6.450012
1270.930, 5.421509
1271.412, 12.40125
1271.894, 29.94073
1272.376, 50.65582
1272.859, 41.35101
1273.341, 8.772156
1273.823, 4.582886
1274.305, 43.62744
1274.787, 73.53802
1275.269, 72.04883
1275.751, 56.49335
1276.233, 39.00281
1276.716, 23.85345
1277.198, 21.31531
1277.680, 29.03088
1278.162, 35.60425
1278.644, 40.07343
1279.126, 38.82770
1279.608, 29.65796
1280.090, 22.22522
1280.573, 32.10565
1281.055, 44.13965
1281.537, 34.11554
1282.019, 10.43671
1282.501, 4.921814
1282.983, 24.15912
1283.465, 42.04364
1283.947, 57.23303
1284.429, 61.52600
1284.911, 36.94330
1285.394, 10.92657
1285.876, 7.962097
1286.358, 22.26038
1286.840, 26.16656
1287.322, 18.73682
1287.804, 15.38507
1288.286, 17.20203
1288.768, 25.78644
1289.251, 54.22235
1289.733, 76.37854
1290.215, 75.83203
1290.697, 61.99133
1291.179, 36.27338
1291.661, 2.589172
1292.143, 2.919861
1292.625, 18.59186
1293.108, 34.48633
1293.590, 14.69568
1294.072, 6.321655
1294.554, 28.36420
1295.036, 44.34882
1295.518, 37.83093
1296.000, 9.056152
1296.482, 0.2695920
1296.964, 7.498779
1297.447, 0.0000000E+00
##END=



