##NAMES=Arfvedsonite
##RRUFFID=R040127
##IDEAL CHEMISTRY=NaNa_2_(Fe^2+^_4_Fe^3+^)Si_8_O_22_(OH)_2_
##LOCALITY=Mont Saint-Hilaire, Rouville County, Quebec, Canada
##OWNER=RRUFF
##SOURCE=Bob Downs
##DESCRIPTION=Black prismatic crystal associated with white analcime, R040128
##STATUS=The identification of this mineral has been confirmed by X-ray diffraction and chemical analysis
##URL=rruff.info/R040127
##MEASURED CHEMISTRY=(Na_0.61_K_0.39_)Na_2.00_(Fe^2+^_2.40_Mg_0.80_Mn_0.75_Ca_0.05_)_&#931;=4_(Fe^3+^_0.60_Al_0.25_Mn_0.15_)(Si_0.99_Ti_0.01_)_8_O_22_((OH)_0.67_F_0.33_)_2_
151.5903, 0.0000000E+00
152.0724, 2.005371
152.5545, 5.325500
153.0366, 3.078247
153.5188, 0.9428100
154.0009, 0.1653440
154.4830, 12.53632
154.9651, 25.15686
155.4472, 32.35175
155.9293, 30.00574
156.4115, 27.00311
156.8936, 23.04779
157.3757, 19.21002
157.8578, 19.21960
158.3399, 29.14923
158.8221, 40.34125
159.3042, 47.24762
159.7863, 43.85156
160.2684, 40.51813
160.7505, 39.78625
161.2326, 41.67767
161.7148, 46.43311
162.1969, 57.57086
162.6790, 70.34485
163.1611, 80.02863
163.6432, 83.21948
164.1253, 84.51593
164.6075, 86.26001
165.0896, 88.52808
165.5717, 90.13879
166.0538, 90.00555
166.5359, 88.82379
167.0180, 87.78149
167.5002, 86.37183
167.9823, 85.87469
168.4644, 88.12384
168.9465, 93.77667
169.4286, 98.51624
169.9107, 99.96381
170.3929, 98.19354
170.8750, 93.39734
171.3571, 83.16711
171.8392, 71.08099
172.3213, 60.62555
172.8034, 52.13245
173.2856, 45.95465
173.7677, 43.78058
174.2498, 44.63806
174.7319, 45.22656
175.2140, 43.92682
175.6961, 41.01990
176.1783, 36.19354
176.6604, 27.84937
177.1425, 20.44702
177.6246, 22.64661
178.1067, 32.70721
178.5888, 39.44177
179.0710, 28.55475
179.5531, 8.322327
180.0352, 1.948303
180.5173, 6.218750
180.9994, 22.59802
181.4815, 29.92279
181.9637, 28.51923
182.4458, 26.53613
182.9279, 30.99982
183.4100, 40.73822
183.8921, 51.57098
184.3742, 63.57123
184.8564, 75.36938
185.3385, 81.93469
185.8206, 82.84528
186.3027, 84.33704
186.7848, 96.08026
187.2669, 116.1668
187.7491, 130.3633
188.2312, 131.4307
188.7133, 122.6772
189.1954, 115.1097
189.6775, 108.4162
190.1596, 104.4930
190.6418, 106.7142
191.1239, 114.9410
191.6060, 123.9199
192.0881, 131.3283
192.5702, 137.4777
193.0524, 145.6644
193.5345, 156.6483
194.0166, 167.6199
194.4987, 172.9756
194.9808, 172.2775
195.4629, 172.5753
195.9451, 178.4319
196.4272, 189.7468
196.9093, 197.1225
197.3914, 199.2051
197.8735, 199.0223
198.3556, 203.8304
198.8378, 214.9606
199.3199, 222.6154
199.8020, 218.6406
200.2841, 201.8516
200.7662, 192.2535
201.2483, 192.5817
201.7305, 199.2663
202.2126, 203.9235
202.6947, 206.3322
203.1768, 207.5375
203.6589, 208.9156
204.1410, 211.0983
204.6232, 208.6125
205.1053, 199.8762
205.5874, 186.6398
206.0695, 173.8508
206.5516, 160.5151
207.0337, 150.2375
207.5159, 147.5681
207.9980, 155.4660
208.4801, 156.4917
208.9622, 145.5837
209.4443, 125.6852
209.9264, 115.3204
210.4086, 117.4434
210.8907, 123.1240
211.3728, 125.5753
211.8549, 123.9648
212.3370, 122.0204
212.8191, 119.8753
213.3013, 117.7021
213.7834, 117.9217
214.2655, 123.1425
214.7476, 126.5461
215.2297, 120.3522
215.7118, 98.65265
216.1940, 83.79480
216.6761, 81.17065
217.1582, 90.17078
217.6403, 98.34229
218.1224, 106.2491
218.6045, 112.4622
219.0867, 115.6652
219.5688, 115.8447
220.0509, 112.8038
220.5330, 105.3244
221.0151, 93.26709
221.4972, 85.98633
221.9794, 85.01373
222.4615, 86.32904
222.9436, 85.54205
223.4257, 81.11395
223.9078, 76.79492
224.3899, 74.12439
224.8721, 73.16467
225.3542, 73.97168
225.8363, 77.33667
226.3184, 80.10590
226.8005, 78.75635
227.2827, 71.39209
227.7648, 64.63312
228.2469, 59.62158
228.7290, 56.30707
229.2111, 57.68671
229.6932, 66.22589
230.1754, 75.90997
230.6575, 79.77423
231.1396, 73.85156
231.6217, 69.42053
232.1038, 70.74890
232.5859, 79.13879
233.0681, 84.54285
233.5502, 85.38367
234.0323, 83.77380
234.5144, 83.78760
234.9965, 89.50043
235.4786, 90.54016
235.9608, 80.87604
236.4429, 55.40094
236.9250, 44.17419
237.4071, 53.41626
237.8892, 73.11542
238.3713, 88.05463
238.8535, 97.62256
239.3356, 103.4682
239.8177, 105.3990
240.2998, 101.6936
240.7819, 99.23352
241.2640, 98.86420
241.7462, 99.20068
242.2283, 97.72546
242.7104, 93.35815
243.1925, 89.12897
243.6746, 85.42487
244.1567, 80.85919
244.6389, 80.18726
245.1210, 85.53870
245.6031, 93.50366
246.0852, 98.01923
246.5673, 97.94012
247.0494, 96.34454
247.5316, 94.07397
248.0137, 90.80621
248.4958, 88.04022
248.9779, 86.39447
249.4600, 84.91644
249.9421, 81.56250
250.4243, 74.62189
250.9064, 68.83643
251.3885, 66.46088
251.8706, 69.21442
252.3527, 69.39136
252.8348, 65.68353
253.3170, 60.22095
253.7991, 57.36462
254.2812, 58.84113
254.7633, 59.65558
255.2454, 57.18475
255.7275, 49.46222
256.2097, 46.26508
256.6918, 49.81067
257.1739, 56.39825
257.6560, 58.66803
258.1381, 53.99866
258.6202, 50.48199
259.1024, 52.80804
259.5845, 64.52173
260.0666, 66.28473
260.5487, 53.19568
261.0308, 33.87299
261.5129, 23.88605
261.9951, 25.91357
262.4772, 31.13489
262.9593, 36.78235
263.4414, 43.33752
263.9235, 48.18890
264.4056, 51.16168
264.8878, 52.63232
265.3699, 53.50861
265.8520, 54.20001
266.3341, 53.12787
266.8162, 49.33514
267.2983, 42.45868
267.7805, 35.31177
268.2626, 27.66351
268.7447, 20.07306
269.2268, 12.99829
269.7089, 5.822693
270.1910, 1.421509
270.6732, 2.033081
271.1553, 8.472351
271.6374, 11.54596
272.1195, 10.17657
272.6016, 7.021545
273.0837, 6.612610
273.5659, 9.463989
274.0480, 12.40454
274.5301, 14.63397
275.0122, 16.17834
275.4943, 15.54126
275.9764, 12.24646
276.4586, 7.665527
276.9407, 3.941895
277.4228, 1.299683
277.9049, 1.990540
278.3870, 7.576660
278.8691, 15.21417
279.3513, 19.12292
279.8334, 19.03302
280.3155, 15.91406
280.7976, 8.675293
281.2798, 3.022644
281.7619, 9.541016
282.2440, 3.768311
282.7261, 11.86688
283.2082, 17.67981
283.6903, 12.05298
284.1725, 2.566345
284.6546, 2.089783
285.1367, 1.993958
285.6188, 0.1531370
286.1009, 5.743408
286.5830, 12.84784
287.0652, 10.94586
287.5473, 1.400330
288.0294, 14.09967
288.5115, 14.25348
288.9936, 3.340332
289.4757, 6.403442
289.9579, 11.44501
290.4400, 12.30548
290.9221, 9.506714
291.4042, 2.795349
291.8863, 4.435669
292.3684, 9.508118
292.8506, 12.38849
293.3327, 12.86115
293.8148, 9.189514
294.2969, 4.033081
294.7790, 3.472534
295.2611, 7.516479
295.7433, 11.26819
296.2254, 8.183655
296.7075, 1.163696
297.1896, 1.245972
297.6717, 5.982056
298.1538, 16.77039
298.6360, 22.73840
299.1181, 24.03986
299.6002, 21.90326
300.0823, 11.62579
300.5644, 0.8053590
301.0465, 3.077271
301.5287, 13.82257
302.0108, 34.88782
302.4929, 42.15033
302.9750, 37.55792
303.4571, 31.89240
303.9392, 32.84760
304.4214, 36.98486
304.9035, 39.40515
305.3856, 37.56946
305.8677, 35.88391
306.3498, 39.33685
306.8319, 46.53107
307.3141, 52.60632
307.7962, 53.49530
308.2783, 52.36560
308.7604, 52.92029
309.2425, 57.70575
309.7246, 60.25262
310.2068, 51.83667
310.6889, 37.36810
311.1710, 29.46338
311.6531, 40.49384
312.1352, 56.57367
312.6173, 67.78595
313.0995, 72.01080
313.5816, 72.53723
314.0637, 67.94678
314.5458, 60.89014
315.0279, 56.31531
315.5100, 56.47638
315.9922, 59.34741
316.4743, 65.42926
316.9564, 76.70111
317.4385, 83.16376
317.9206, 76.63977
318.4027, 64.43689
318.8849, 56.76837
319.3670, 63.51892
319.8491, 68.98352
320.3312, 65.26044
320.8133, 49.37866
321.2954, 39.00977
321.7776, 41.14392
322.2597, 49.00128
322.7418, 55.35419
323.2239, 60.23853
323.7060, 62.45673
324.1881, 60.40668
324.6703, 53.55011
325.1524, 49.01123
325.6345, 48.45587
326.1166, 49.83563
326.5987, 51.54529
327.0808, 57.07672
327.5630, 58.74011
328.0451, 52.65552
328.5272, 39.49493
329.0093, 33.64215
329.4914, 40.45764
329.9735, 49.81970
330.4557, 54.92529
330.9378, 51.51459
331.4199, 51.54468
331.9020, 58.40558
332.3841, 69.83826
332.8662, 74.15656
333.3484, 67.26074
333.8305, 59.40442
334.3126, 56.20984
334.7947, 59.03882
335.2768, 62.25165
335.7589, 64.92645
336.2411, 67.85699
336.7232, 74.89825
337.2053, 89.08942
337.6874, 99.39160
338.1695, 97.60516
338.6516, 81.42603
339.1338, 76.76135
339.6159, 85.86169
340.0980, 102.1859
340.5801, 115.7189
341.0622, 127.4844
341.5443, 133.6589
342.0265, 128.5588
342.5086, 114.0219
342.9907, 110.8983
343.4728, 120.6793
343.9549, 135.4603
344.4370, 146.5247
344.9192, 154.5938
345.4013, 162.5931
345.8834, 170.6374
346.3655, 178.4026
346.8476, 185.1676
347.3297, 190.4577
347.8119, 194.0148
348.2940, 194.4978
348.7761, 193.1675
349.2582, 193.4343
349.7403, 196.7067
350.2225, 201.0162
350.7046, 204.5938
351.1867, 207.3690
351.6688, 208.5717
352.1509, 205.2436
352.6331, 200.5927
353.1152, 200.1083
353.5973, 207.1342
354.0794, 214.4940
354.5615, 214.0084
355.0436, 208.0962
355.5258, 204.5681
356.0079, 211.4586
356.4900, 219.9696
356.9721, 221.4023
357.4542, 212.1901
357.9363, 203.4718
358.4185, 203.0620
358.9006, 207.0535
359.3827, 209.0309
359.8648, 206.1526
360.3469, 200.0836
360.8290, 189.6888
361.3112, 173.6412
361.7933, 162.4158
362.2754, 163.0179
362.7575, 168.6625
363.2396, 171.9888
363.7217, 170.3842
364.2039, 167.2225
364.6860, 162.0364
365.1681, 154.8127
365.6502, 150.6685
366.1323, 154.1581
366.6144, 158.4630
367.0966, 158.8668
367.5787, 151.8335
368.0608, 144.9977
368.5429, 137.4853
369.0250, 130.0959
369.5071, 127.3881
369.9893, 133.5898
370.4714, 139.5590
370.9535, 140.8884
371.4356, 136.2233
371.9177, 129.5529
372.3998, 118.7656
372.8820, 107.0687
373.3641, 102.2145
373.8462, 106.2566
374.3283, 111.8499
374.8104, 116.6718
375.2925, 120.8734
375.7747, 122.9951
376.2568, 123.1409
376.7389, 121.0378
377.2210, 114.9504
377.7031, 104.4299
378.1852, 96.71637
378.6674, 96.05493
379.1495, 99.85791
379.6316, 94.24072
380.1137, 77.96350
380.5958, 63.96802
381.0779, 67.92322
381.5601, 86.09863
382.0422, 99.85956
382.5243, 105.0336
383.0064, 104.1368
383.4885, 99.72211
383.9706, 92.19861
384.4528, 84.92847
384.9349, 80.93286
385.4170, 78.46228
385.8991, 74.01367
386.3812, 66.18970
386.8633, 58.93677
387.3455, 56.78302
387.8276, 58.25073
388.3097, 59.95782
388.7918, 59.25085
389.2739, 59.41577
389.7560, 64.21808
390.2382, 73.94733
390.7203, 78.72858
391.2024, 68.23651
391.6845, 52.45068
392.1666, 42.14612
392.6487, 46.22809
393.1309, 50.53259
393.6130, 48.84161
394.0951, 41.72363
394.5772, 36.64093
395.0593, 36.85541
395.5414, 39.26837
396.0236, 41.56219
396.5057, 44.80621
396.9878, 44.92102
397.4699, 39.85870
397.9520, 31.39825
398.4341, 25.27417
398.9163, 24.12164
399.3984, 22.53857
399.8805, 17.58533
400.3626, 6.265320
400.8447, 4.0894002E-02
401.3268, 0.9067990
401.8090, 5.672180
402.2911, 10.01434
402.7732, 14.90741
403.2553, 16.98157
403.7374, 13.21259
404.2195, 3.877502
404.7017, 0.3281250
405.1838, 1.507629
405.6659, 6.908997
406.1480, 16.32361
406.6301, 30.02393
407.1122, 36.41486
407.5944, 31.01996
408.0765, 19.59546
408.5586, 15.98291
409.0407, 19.97363
409.5228, 25.97223
410.0049, 32.24847
410.4871, 37.73004
410.9692, 38.25995
411.4513, 32.03717
411.9334, 25.32422
412.4155, 26.51666
412.8976, 33.19586
413.3798, 38.30103
413.8619, 36.04865
414.3440, 32.15961
414.8261, 32.81018
415.3082, 38.12677
415.7903, 44.55878
416.2725, 50.95288
416.7546, 57.10547
417.2367, 62.16949
417.7188, 67.74225
418.2009, 70.19550
418.6830, 64.89740
419.1652, 54.66962
419.6473, 48.23669
420.1294, 50.01648
420.6115, 54.46942
421.0937, 58.98700
421.5758, 64.27051
422.0579, 67.21283
422.5400, 65.97675
423.0221, 62.46924
423.5042, 59.75549
423.9864, 57.61383
424.4685, 56.70154
424.9506, 57.99005
425.4327, 61.85669
425.9148, 62.67468
426.3969, 58.75653
426.8791, 53.77924
427.3612, 51.45233
427.8433, 53.71429
428.3254, 52.15961
428.8075, 43.72461
429.2896, 31.41241
429.7718, 25.82568
430.2539, 27.65021
430.7360, 32.28967
431.2181, 38.79089
431.7002, 46.76917
432.1823, 50.07111
432.6645, 47.75848
433.1466, 42.86737
433.6287, 38.53131
434.1108, 34.93311
434.5929, 33.08624
435.0750, 34.59137
435.5572, 37.63165
436.0393, 39.97021
436.5214, 41.51221
437.0035, 40.23328
437.4856, 29.73706
437.9677, 16.86365
438.4499, 11.96631
438.9320, 21.70276
439.4141, 33.14618
439.8962, 37.72028
440.3783, 36.86633
440.8604, 34.42023
441.3426, 32.49200
441.8247, 29.15521
442.3068, 22.18512
442.7889, 9.938782
443.2710, 0.8823850
443.7531, 0.8906560
444.2353, 0.9760740
444.7174, 2.419250
445.1995, 4.526367
445.6816, 4.345032
446.1637, 1.114777
446.6458, 10.85733
447.1280, 14.11426
447.6101, 5.222198
448.0922, 3.924713
448.5743, 5.895264
449.0564, 4.196747
449.5385, 7.963043
450.0207, 2.801514
450.5028, 6.930511
450.9849, 13.92688
451.4670, 18.43851
451.9491, 18.42444
452.4312, 10.14908
452.9134, 4.440094
453.3955, 8.792114
453.8776, 1.730133
454.3597, 7.166016
454.8418, 8.145264
455.3239, 2.819489
455.8061, 2.477997
456.2882, 7.137512
456.7703, 9.949127
457.2524, 7.384003
457.7345, 0.8518980
458.2166, 3.928986
458.6988, 3.079071
459.1809, 1.108337
459.6630, 7.552338
460.1451, 16.91666
460.6272, 23.15948
461.1093, 20.54031
461.5915, 13.15915
462.0736, 6.127960
462.5557, 2.901886
463.0378, 1.423096
463.5199, 11.61530
464.0020, 26.10321
464.4842, 33.47977
464.9663, 23.34796
465.4484, 11.33792
465.9305, 6.002228
466.4126, 14.13058
466.8947, 17.29047
467.3769, 11.94858
467.8590, 3.193085
468.3411, 0.6524050
468.8232, 2.171875
469.3053, 6.692383
469.7874, 12.80893
470.2696, 20.20496
470.7517, 22.27237
471.2338, 17.75262
471.7159, 11.79016
472.1980, 9.342133
472.6801, 10.27496
473.1623, 8.628235
473.6444, 2.294312
474.1265, 4.519348
474.6086, 2.243256
475.0907, 7.470947
475.5728, 13.93530
476.0550, 6.538422
476.5371, 6.000885
477.0192, 8.725342
477.5013, 1.079773
477.9834, 9.028503
478.4655, 18.63077
478.9477, 26.08118
479.4298, 28.82123
479.9119, 21.85638
480.3940, 15.43524
480.8761, 16.25162
481.3582, 22.02692
481.8404, 26.21890
482.3225, 27.42728
482.8046, 25.96210
483.2867, 20.56046
483.7688, 8.314758
484.2509, 1.912842
484.7331, 7.162140
485.2152, 16.31482
485.6973, 22.20651
486.1794, 22.20776
486.6615, 23.44333
487.1436, 27.02493
487.6258, 32.61108
488.1079, 39.04825
488.5900, 47.04538
489.0721, 53.81345
489.5542, 56.64230
490.0363, 55.48169
490.5185, 58.57101
491.0006, 67.07684
491.4827, 76.55423
491.9648, 81.62909
492.4470, 82.63531
492.9291, 80.91766
493.4112, 75.25699
493.8933, 68.60239
494.3754, 65.89664
494.8575, 66.66620
495.3397, 68.09607
495.8218, 65.25269
496.3039, 63.60699
496.7860, 70.45728
497.2681, 89.24893
497.7502, 107.3458
498.2324, 121.0014
498.7145, 129.1904
499.1966, 130.7691
499.6787, 116.4370
500.1608, 104.3745
500.6429, 100.9433
501.1251, 105.6932
501.6072, 110.3291
502.0893, 112.4477
502.5714, 116.2933
503.0535, 124.9096
503.5356, 143.9933
504.0178, 153.2067
504.4999, 147.5679
504.9820, 136.0409
505.4641, 132.7447
505.9462, 139.0097
506.4283, 145.2438
506.9105, 147.9517
507.3926, 148.4536
507.8747, 153.6768
508.3568, 164.0167
508.8389, 171.1485
509.3210, 166.4154
509.8032, 153.9073
510.2853, 144.5372
510.7674, 139.2262
511.2495, 137.0347
511.7316, 137.6208
512.2137, 141.0268
512.6959, 147.4591
513.1780, 160.3142
513.6601, 173.3260
514.1422, 183.1648
514.6243, 189.9301
515.1064, 194.2414
515.5886, 194.7987
516.0707, 194.0989
516.5528, 193.2086
517.0349, 190.2559
517.5170, 190.6349
517.9991, 197.3550
518.4813, 206.6717
518.9634, 214.2351
519.4455, 219.4351
519.9276, 224.7468
520.4097, 230.7114
520.8918, 237.0149
521.3740, 241.5075
521.8561, 243.5495
522.3382, 245.6022
522.8203, 248.5199
523.3024, 252.3888
523.7845, 260.6412
524.2667, 274.7367
524.7488, 288.8429
525.2309, 294.2134
525.7130, 293.4519
526.1951, 295.7008
526.6772, 306.5608
527.1594, 320.1309
527.6415, 330.0399
528.1236, 336.6618
528.6057, 341.8929
529.0878, 343.4250
529.5699, 346.1291
530.0521, 355.1435
530.5342, 373.4328
531.0163, 387.8543
531.4984, 390.4909
531.9805, 388.5152
532.4626, 390.3687
532.9448, 406.7499
533.4269, 415.1783
533.9090, 409.0682
534.3911, 392.2756
534.8732, 381.8757
535.3553, 379.8063
535.8375, 382.0355
536.3196, 388.8088
536.8017, 400.7504
537.2838, 404.2749
537.7659, 397.7007
538.2480, 388.3488
538.7302, 384.9986
539.2123, 386.4871
539.6944, 384.4194
540.1765, 375.4275
540.6586, 364.9420
541.1407, 361.0730
541.6229, 362.2786
542.1050, 362.9971
542.5871, 358.6906
543.0692, 353.6916
543.5513, 352.7332
544.0334, 356.0219
544.5156, 358.0413
544.9977, 356.0768
545.4798, 351.8553
545.9619, 346.6572
546.4440, 339.7016
546.9261, 333.2968
547.4083, 326.6129
547.8904, 320.9119
548.3725, 318.8005
548.8546, 323.2975
549.3367, 326.4702
549.8188, 326.5233
550.3010, 323.5748
550.7831, 319.0456
551.2652, 312.5112
551.7473, 306.1313
552.2294, 300.8974
552.7115, 296.6038
553.1937, 293.8068
553.6758, 293.5545
554.1579, 293.2938
554.6400, 289.1876
555.1221, 282.3336
555.6042, 275.7402
556.0864, 267.8162
556.5685, 263.2096
557.0506, 270.4930
557.5327, 286.2695
558.0148, 296.9899
558.4969, 290.4753
558.9791, 280.7798
559.4612, 277.0775
559.9433, 282.2477
560.4254, 285.1584
560.9075, 283.4076
561.3896, 278.6949
561.8718, 272.1514
562.3539, 258.6685
562.8360, 253.0817
563.3181, 260.5074
563.8002, 274.4244
564.2823, 278.6927
564.7645, 271.5019
565.2466, 262.4262
565.7287, 253.4573
566.2108, 245.4518
566.6929, 243.9111
567.1750, 249.1885
567.6572, 255.3681
568.1393, 257.6145
568.6214, 256.9505
569.1035, 255.7451
569.5856, 254.5500
570.0677, 251.5988
570.5499, 242.3121
571.0320, 231.0063
571.5141, 224.1223
571.9962, 232.0955
572.4783, 237.1893
572.9604, 228.2569
573.4426, 208.7000
573.9247, 196.4967
574.4068, 204.6399
574.8889, 211.5673
575.3710, 208.0306
575.8531, 191.2446
576.3353, 179.1970
576.8174, 173.2198
577.2995, 169.8165
577.7816, 166.2115
578.2637, 162.5544
578.7458, 156.6867
579.2280, 147.3213
579.7101, 137.4004
580.1922, 134.0851
580.6743, 135.8742
581.1564, 134.2927
581.6385, 122.1608
582.1207, 106.1725
582.6028, 94.60754
583.0849, 87.31778
583.5670, 82.30157
584.0491, 80.17621
584.5313, 78.73535
585.0134, 76.24402
585.4955, 72.20099
585.9776, 67.92206
586.4597, 61.89114
586.9418, 56.60629
587.4240, 55.15479
587.9061, 61.56091
588.3882, 65.66629
588.8703, 66.86554
589.3524, 64.94269
589.8345, 57.55627
590.3167, 42.17740
590.7988, 31.25677
591.2809, 33.53369
591.7630, 45.28250
592.2451, 45.55289
592.7272, 33.91650
593.2094, 21.28354
593.6915, 17.30273
594.1736, 18.66644
594.6557, 19.21893
595.1378, 17.91269
595.6199, 15.96188
596.1021, 11.05792
596.5842, 6.932831
597.0663, 8.921295
597.5485, 30.10025
598.0306, 45.70547
598.5127, 44.23141
598.9948, 29.63718
599.4769, 19.45868
599.9590, 17.57968
600.4412, 16.69907
600.9233, 14.11346
601.4054, 9.506012
601.8875, 8.279266
602.3696, 11.27954
602.8517, 15.62048
603.3339, 19.34253
603.8160, 22.42300
604.2981, 24.14435
604.7802, 24.55762
605.2623, 23.07031
605.7444, 17.44946
606.2266, 9.169525
606.7087, 2.503906
607.1908, 0.3307500
607.6729, 1.147827
608.1550, 6.557892
608.6371, 14.08258
609.1193, 17.99551
609.6014, 14.57785
610.0835, 8.157562
610.5656, 1.068970
611.0477, 14.22150
611.5298, 20.47473
612.0120, 14.88931
612.4941, 6.958862
612.9762, 3.184814
613.4583, 5.217590
613.9404, 5.238220
614.4225, 2.263153
614.9047, 1.593170
615.3868, 3.759155
615.8689, 4.239227
616.3510, 2.557129
616.8331, 2.633423
617.3152, 8.464630
617.7974, 10.70032
618.2795, 9.750824
618.7616, 7.389526
619.2437, 2.865509
619.7258, 1.407715
620.2079, 2.972198
620.6901, 1.743744
621.1722, 1.728821
621.6543, 6.227875
622.1364, 11.06479
622.6185, 13.30051
623.1006, 11.04385
623.5828, 10.05356
624.0649, 10.32834
624.5470, 11.86993
625.0291, 15.85364
625.5112, 23.65396
625.9933, 25.80914
626.4755, 18.71002
626.9576, 7.628845
627.4397, 4.430176
627.9218, 8.084686
628.4039, 10.75085
628.8860, 6.862122
629.3682, 0.6443790
629.8503, 1.089264
630.3324, 0.8952030
630.8145, 0.7307130
631.2966, 10.14221
631.7787, 20.79367
632.2609, 22.09192
632.7430, 9.715759
633.2251, 0.5313420
633.7072, 2.465424
634.1893, 0.6624450
634.6714, 5.619934
635.1536, 21.29324
635.6357, 30.32690
636.1178, 30.03433
636.5999, 24.11932
637.0820, 18.26538
637.5641, 12.42810
638.0463, 8.475677
638.5284, 6.737762
639.0105, 7.454620
639.4926, 13.18777
639.9747, 22.81601
640.4568, 29.70364
640.9390, 25.03986
641.4211, 18.99280
641.9032, 23.25995
642.3853, 38.60709
642.8674, 50.02521
643.3495, 50.01031
643.8317, 44.95114
644.3138, 38.73172
644.7959, 28.31454
645.2780, 23.83875
645.7601, 28.32355
646.2422, 36.08868
646.7244, 39.70081
647.2065, 37.49951
647.6886, 40.44110
648.1707, 52.68933
648.6528, 67.77863
649.1349, 72.21747
649.6171, 67.09680
650.0992, 60.39929
650.5813, 53.41199
651.0634, 48.39154
651.5455, 49.27423
652.0276, 55.16364
652.5098, 61.19885
652.9919, 64.57947
653.4740, 67.46387
653.9561, 71.45941
654.4382, 77.10083
654.9203, 81.49542
655.4025, 83.90857
655.8846, 85.29272
656.3667, 85.59607
656.8488, 82.84888
657.3309, 85.67249
657.8130, 96.08826
658.2952, 109.0101
658.7773, 116.9231
659.2594, 120.3292
659.7415, 124.0816
660.2236, 128.6039
660.7057, 135.5197
661.1879, 149.1177
661.6700, 167.1780
662.1521, 183.3535
662.6342, 192.5449
663.1163, 200.6163
663.5984, 211.8340
664.0806, 225.7064
664.5627, 237.5334
665.0448, 242.6073
665.5269, 248.4036
666.0090, 257.7242
666.4911, 270.6050
666.9733, 285.9111
667.4554, 306.1989
667.9375, 325.4041
668.4196, 335.3861
668.9017, 336.3240
669.3839, 350.0851
669.8660, 381.2579
670.3481, 412.6263
670.8302, 421.5632
671.3123, 415.7044
671.7944, 411.4511
672.2766, 414.4689
672.7587, 419.2247
673.2408, 423.2214
673.7229, 426.5287
674.2050, 429.3067
674.6871, 433.5573
675.1693, 435.1646
675.6514, 433.6261
676.1335, 428.7805
676.6156, 419.4645
677.0977, 405.4338
677.5798, 387.3124
678.0620, 364.5719
678.5441, 337.8143
679.0262, 311.9752
679.5083, 286.3705
679.9904, 264.5349
680.4725, 252.4519
680.9547, 245.6062
681.4368, 234.6666
681.9189, 218.1015
682.4010, 201.9790
682.8831, 192.9447
683.3652, 184.8774
683.8474, 171.8746
684.3295, 146.0182
684.8116, 127.3106
685.2937, 121.5612
685.7758, 121.9995
686.2579, 121.3853
686.7401, 120.9285
687.2222, 117.2227
687.7043, 107.5671
688.1864, 95.61530
688.6685, 91.94830
689.1506, 96.02405
689.6328, 98.42157
690.1149, 93.78741
690.5970, 85.77362
691.0791, 77.17383
691.5612, 69.00757
692.0433, 67.16449
692.5255, 83.51892
693.0076, 99.94873
693.4897, 102.4595
693.9718, 88.39734
694.4539, 81.25928
694.9360, 90.40112
695.4182, 101.5226
695.9003, 107.4196
696.3824, 107.2108
696.8645, 104.4187
697.3466, 97.96661
697.8287, 91.75629
698.3109, 90.93298
698.7930, 94.40216
699.2751, 95.98236
699.7572, 94.04346
700.2393, 92.04523
700.7214, 94.93237
701.2036, 99.95728
701.6857, 102.4836
702.1678, 97.55481
702.6499, 93.70966
703.1320, 94.35504
703.6141, 98.42816
704.0963, 103.4688
704.5784, 112.0582
705.0605, 117.2809
705.5426, 116.4316
706.0247, 111.1746
706.5068, 109.0009
706.9890, 110.1484
707.4711, 112.2768
707.9532, 115.2284
708.4353, 118.0404
708.9174, 117.2447
709.3995, 113.2347
709.8817, 109.8989
710.3638, 110.6008
710.8459, 112.7358
711.3280, 114.6660
711.8101, 116.4632
712.2922, 115.7225
712.7744, 106.2502
713.2565, 98.15790
713.7386, 98.96887
714.2207, 115.3631
714.7028, 123.0143
715.1849, 120.0024
715.6671, 111.6859
716.1492, 100.7484
716.6313, 88.13177
717.1134, 85.69659
717.5955, 97.78638
718.0776, 113.1665
718.5598, 117.6699
719.0419, 115.4130
719.5240, 114.4068
720.0061, 119.4185
720.4882, 123.9868
720.9703, 125.1234
721.4525, 123.6766
721.9346, 121.5699
722.4167, 118.0018
722.8988, 115.1691
723.3809, 113.7438
723.8630, 113.3323
724.3452, 112.2968
724.8273, 110.5488
725.3094, 108.8431
725.7915, 107.4224
726.2736, 106.3494
726.7557, 105.7742
727.2379, 105.6969
727.7200, 106.1177
728.2021, 107.7641
728.6842, 109.3903
729.1663, 110.0015
729.6484, 109.4957
730.1306, 108.4078
730.6127, 104.9197
731.0948, 102.5922
731.5769, 103.8454
732.0590, 110.2824
732.5411, 113.4501
733.0233, 112.6660
733.5054, 110.1431
733.9875, 107.4892
734.4696, 104.7652
734.9517, 102.5991
735.4338, 101.1063
735.9160, 99.80762
736.3981, 98.56519
736.8802, 97.17902
737.3623, 95.41907
737.8444, 93.30084
738.3266, 91.25769
738.8087, 91.14270
739.2908, 90.58264
739.7729, 85.87476
740.2551, 73.32764
740.7372, 63.00421
741.2193, 55.27478
741.7014, 50.94891
742.1835, 53.79279
742.6656, 63.89923
743.1478, 70.79218
743.6299, 70.41846
744.1120, 65.95520
744.5941, 60.51105
745.0762, 54.94604
745.5583, 51.77277
746.0405, 57.41034
746.5226, 62.20178
747.0047, 54.89734
747.4868, 37.39093
747.9689, 30.47369
748.4510, 48.69403
748.9332, 63.11096
749.4153, 62.81146
749.8974, 49.69690
750.3795, 45.03760
750.8616, 49.55292
751.3438, 53.92224
751.8259, 52.58105
752.3080, 46.95874
752.7901, 38.53711
753.2722, 27.75085
753.7543, 20.25885
754.2365, 21.21899
754.7186, 25.93878
755.2007, 32.10986
755.6828, 40.59521
756.1649, 44.85614
756.6470, 39.78052
757.1292, 33.08936
757.6113, 29.47491
758.0934, 29.81824
758.5755, 28.43976
759.0576, 25.23492
759.5397, 21.29962
760.0219, 17.53650
760.5040, 14.27228
760.9861, 10.50983
761.4682, 4.834412
761.9503, 3.903809
762.4324, 19.41989
762.9146, 40.01614
763.3967, 52.29349
763.8788, 48.32352
764.3609, 43.88623
764.8430, 41.40372
765.3251, 39.31320
765.8073, 35.38675
766.2894, 28.35565
766.7715, 23.93292
767.2536, 23.83176
767.7357, 25.79041
768.2178, 25.60663
768.7000, 23.97461
769.1821, 24.12076
769.6642, 28.41809
770.1463, 33.25583
770.6284, 34.77167
771.1105, 33.78143
771.5927, 32.70111
772.0748, 34.05817
772.5569, 33.45483
773.0390, 27.72672
773.5211, 19.88492
774.0032, 17.69382
774.4854, 22.26389
774.9675, 28.20468
775.4496, 34.91876
775.9317, 41.05292
776.4138, 42.73853
776.8959, 40.50552
777.3781, 37.34247
777.8602, 31.68884
778.3423, 28.11646
778.8244, 34.57861
779.3065, 47.55917
779.7886, 52.35703
780.2708, 32.64868
780.7529, 16.73557
781.2350, 15.23544
781.7171, 26.31232
782.1992, 33.35959
782.6813, 35.96283
783.1635, 36.02362
783.6456, 32.34647
784.1277, 27.16095
784.6098, 29.92139
785.0919, 39.64215
785.5740, 46.38934
786.0562, 40.24625
786.5383, 30.87549
787.0204, 25.87537
787.5025, 25.72339
787.9846, 27.50839
788.4667, 34.54306
788.9489, 39.40326
789.4310, 38.05322
789.9131, 30.00415
790.3952, 25.14468
790.8773, 23.68051
791.3594, 24.64136
791.8416, 31.56158
792.3237, 39.82733
792.8058, 33.72107
793.2879, 12.73367
793.7700, 5.194916
794.2521, 5.390503
794.7343, 1.197784
795.2164, 5.960876
795.6985, 7.365570
796.1806, 9.275970
796.6627, 13.66992
797.1448, 17.03024
797.6270, 15.50241
798.1091, 7.478363
798.5912, 9.842255
799.0733, 24.80045
799.5554, 38.90823
800.0375, 36.05402
800.5197, 23.81995
801.0018, 17.30536
801.4839, 19.29236
801.9660, 20.87256
802.4481, 17.43747
802.9302, 10.74316
803.4124, 1.080078
803.8945, 18.43417
804.3766, 23.56888
804.8587, 5.953674
805.3408, 15.00284
805.8229, 20.37518
806.3051, 10.27628
806.7872, 1.915649
807.2693, 3.513794
807.7514, 5.615234
808.2335, 2.100647
808.7156, 4.282013
809.1978, 9.739990
809.6799, 13.95435
810.1620, 15.61716
810.6441, 11.78879
811.1262, 6.480804
811.6083, 3.884430
812.0905, 6.535065
812.5726, 5.843109
813.0547, 0.3594670
813.5368, 5.978851
814.0189, 8.836823
814.5010, 8.481323
814.9832, 5.907043
815.4653, 0.7811890
815.9474, 4.094177
816.4295, 7.189240
816.9116, 8.103973
817.3937, 5.950775
817.8759, 1.993500
818.3580, 8.036743
818.8401, 9.582550
819.3222, 9.165894
819.8043, 8.767822
820.2864, 8.106110
820.7686, 9.173676
821.2507, 12.74194
821.7328, 16.25366
822.2149, 16.68631
822.6970, 14.40576
823.1791, 9.753754
823.6613, 1.920105
824.1434, 5.164276
824.6255, 8.640350
825.1076, 9.997864
825.5897, 10.83429
826.0718, 13.07007
826.5540, 11.96249
827.0361, 5.113953
827.5182, 2.334442
828.0003, 3.661743
828.4824, 1.059692
828.9645, 5.199493
829.4467, 7.903290
829.9288, 9.288818
830.4109, 7.099274
830.8930, 4.435120
831.3751, 6.713196
831.8572, 18.22668
832.3394, 28.07291
832.8215, 33.90521
833.3036, 35.28357
833.7857, 31.51047
834.2678, 19.61719
834.7499, 11.43277
835.2321, 8.082855
835.7142, 7.703278
836.1963, 9.209656
836.6784, 11.86310
837.1605, 12.45520
837.6426, 9.814178
838.1248, 7.610748
838.6069, 8.730438
839.0890, 11.83221
839.5711, 15.52313
840.0532, 20.28302
840.5353, 24.34955
841.0175, 28.87534
841.4996, 31.43710
841.9817, 27.39423
842.4638, 16.16281
842.9459, 13.89740
843.4280, 23.38058
843.9102, 35.31754
844.3923, 41.38373
844.8744, 42.45081
845.3565, 38.49072
845.8386, 27.18066
846.3207, 19.70334
846.8029, 23.15564
847.2850, 30.84915
847.7671, 37.23257
848.2492, 43.16248
848.7313, 44.35779
849.2134, 39.01993
849.6956, 33.50629
850.1777, 36.34076
850.6598, 44.42795
851.1419, 45.39557
851.6240, 36.74158
852.1061, 29.53604
852.5883, 33.12595
853.0704, 41.48495
853.5525, 49.60715
854.0346, 56.89630
854.5167, 63.29495
854.9988, 70.47131
855.4810, 74.69479
855.9631, 71.40308
856.4452, 60.42053
856.9273, 56.21066
857.4094, 59.40692
857.8915, 65.07690
858.3737, 69.94818
858.8558, 74.15564
859.3379, 77.80896
859.8200, 80.87314
860.3021, 83.56860
860.7842, 86.34229
861.2664, 88.16968
861.7485, 86.50027
862.2306, 81.40546
862.7127, 84.10724
863.1948, 95.72681
863.6769, 106.6412
864.1591, 109.3085
864.6412, 106.6333
865.1233, 104.5695
865.6054, 103.6182
866.0875, 105.7603
866.5696, 114.0632
867.0518, 123.9189
867.5339, 133.1049
868.0160, 141.4964
868.4981, 147.5552
868.9802, 150.5679
869.4623, 152.7101
869.9445, 154.7525
870.4266, 156.7912
870.9087, 160.0209
871.3908, 163.4363
871.8729, 165.8557
872.3550, 165.1379
872.8372, 165.5219
873.3193, 172.4636
873.8014, 184.4642
874.2835, 192.8287
874.7656, 190.2990
875.2477, 190.5822
875.7299, 199.1064
876.2120, 211.8732
876.6941, 212.6160
877.1762, 201.7830
877.6583, 197.3189
878.1404, 211.5246
878.6226, 230.3887
879.1047, 236.3960
879.5869, 232.3762
880.0690, 225.9859
880.5511, 214.4854
881.0332, 208.0826
881.5153, 213.8215
881.9974, 224.9279
882.4796, 227.4509
882.9617, 219.4740
883.4438, 213.3470
883.9259, 212.1531
884.4080, 213.8287
884.8901, 216.9653
885.3723, 219.9769
885.8544, 219.8263
886.3365, 213.7157
886.8186, 207.7902
887.3007, 206.5146
887.7828, 206.1226
888.2650, 200.5074
888.7471, 184.6807
889.2292, 177.8102
889.7113, 183.6100
890.1934, 194.0579
890.6755, 200.2869
891.1577, 202.7574
891.6398, 203.4087
892.1219, 202.8964
892.6040, 198.7524
893.0861, 187.0380
893.5682, 172.3950
894.0504, 158.3030
894.5325, 141.8038
895.0146, 136.6675
895.4967, 148.5098
895.9788, 161.1433
896.4609, 158.0401
896.9431, 142.6839
897.4252, 138.2327
897.9073, 146.0059
898.3894, 153.1306
898.8715, 148.1373
899.3536, 139.6146
899.8358, 134.7989
900.3179, 134.6896
900.8000, 134.6237
901.2821, 135.4758
901.7642, 134.3384
902.2463, 128.3364
902.7285, 118.8357
903.2106, 117.2452
903.6927, 123.2342
904.1748, 127.8931
904.6569, 122.7628
905.1390, 115.9304
905.6212, 118.5204
906.1033, 127.4520
906.5854, 128.9730
907.0675, 111.0093
907.5496, 94.80676
908.0317, 84.89429
908.5139, 80.38483
908.9960, 79.71216
909.4781, 82.89880
909.9602, 85.16718
910.4423, 84.78198
910.9244, 82.75378
911.4066, 78.54657
911.8887, 73.90302
912.3708, 72.00720
912.8529, 78.77673
913.3350, 82.14673
913.8171, 78.87476
914.2993, 72.07489
914.7814, 64.69165
915.2635, 56.37640
915.7456, 52.76007
916.2277, 55.35309
916.7098, 59.67902
917.1920, 62.03796
917.6741, 62.17157
918.1562, 58.85406
918.6383, 50.28552
919.1204, 44.05969
919.6025, 44.97296
920.0847, 46.99908
920.5668, 45.64954
921.0489, 39.96362
921.5310, 38.78772
922.0131, 42.80432
922.4952, 45.67377
922.9774, 41.15613
923.4595, 32.76459
923.9416, 24.54987
924.4237, 17.01764
924.9058, 12.39612
925.3879, 13.52338
925.8701, 15.89355
926.3522, 19.13477
926.8343, 22.41589
927.3164, 16.81091
927.7985, 0.8238530
928.2806, 10.33600
928.7628, 7.070618
929.2449, 2.650085
929.7270, 7.156250
930.2091, 7.808838
930.6912, 8.445435
931.1733, 13.54175
931.6555, 15.32880
932.1376, 8.326904
932.6197, 2.076416
933.1018, 6.225098
933.5839, 2.965271
934.0660, 2.968445
934.5482, 9.262939
935.0303, 15.95624
935.5124, 14.83478
935.9945, 8.941772
936.4766, 3.279907
936.9587, 1.855408
937.4409, 4.483398
937.9230, 0.9176030
938.4051, 3.053528
938.8872, 2.662109
939.3693, 3.149536
939.8514, 6.855713
940.3336, 8.095886
940.8157, 9.495728
941.2978, 14.48486
941.7799, 20.40900
942.2620, 22.69226
942.7441, 21.32770
943.2263, 21.21155
943.7084, 27.42505
944.1905, 31.68188
944.6726, 29.17224
945.1547, 21.65460
945.6368, 20.98431
946.1190, 27.57465
946.6011, 33.98590
947.0832, 36.16211
947.5653, 37.18390
948.0474, 42.86316
948.5295, 50.58862
949.0117, 54.28821
949.4938, 44.81677
949.9759, 40.26453
950.4580, 45.45044
950.9401, 55.97369
951.4222, 67.60419
951.9044, 80.58868
952.3865, 82.05389
952.8686, 67.70593
953.3507, 52.32239
953.8328, 52.69659
954.3149, 60.91736
954.7971, 66.64783
955.2792, 66.19653
955.7613, 69.89459
956.2434, 83.49457
956.7255, 96.49084
957.2076, 101.6370
957.6898, 99.25128
958.1719, 101.2373
958.6540, 107.5255
959.1361, 112.0958
959.6182, 107.3463
960.1003, 101.7408
960.5825, 105.3791
961.0646, 116.2815
961.5467, 120.9134
962.0288, 107.3105
962.5109, 102.3904
962.9930, 115.6750
963.4752, 138.7530
963.9573, 151.0389
964.4394, 153.6604
964.9215, 153.7388
965.4036, 151.8766
965.8857, 151.7587
966.3679, 159.4002
966.8500, 169.2735
967.3321, 173.8475
967.8142, 164.4123
968.2963, 164.1511
968.7784, 175.4212
969.2606, 191.3102
969.7427, 207.2812
970.2248, 221.7795
970.7069, 230.7382
971.1890, 234.0317
971.6711, 235.4232
972.1533, 234.7420
972.6354, 235.1259
973.1175, 240.0256
973.5996, 249.2767
974.0817, 254.0106
974.5638, 252.9540
975.0460, 252.2051
975.5281, 254.7273
976.0102, 258.3312
976.4923, 257.7707
976.9744, 254.5651
977.4565, 253.3329
977.9387, 260.1658
978.4208, 264.7365
978.9029, 259.8302
979.3850, 252.3238
979.8671, 252.7871
980.3492, 263.7132
980.8314, 267.5614
981.3135, 261.2709
981.7956, 252.2590
982.2777, 249.3486
982.7598, 248.8160
983.2419, 244.9285
983.7241, 236.5110
984.2062, 227.7363
984.6883, 219.0340
985.1704, 211.0450
985.6525, 203.8832
986.1346, 197.0851
986.6168, 191.5301
987.0989, 187.4651
987.5810, 185.4373
988.0631, 190.8124
988.5452, 194.4062
989.0273, 184.4785
989.5095, 165.9796
989.9916, 151.7241
990.4737, 147.1938
990.9558, 141.7712
991.4379, 133.9071
991.9200, 125.9059
992.4022, 123.2468
992.8843, 123.8778
993.3664, 118.4734
993.8485, 104.6602
994.3306, 90.51929
994.8127, 78.64478
995.2949, 70.62592
995.7770, 70.38507
996.2591, 79.93689
996.7412, 79.21606
997.2233, 65.17285
997.7054, 52.46198
998.1876, 51.10059
998.6697, 56.97986
999.1518, 63.73608
999.6339, 70.11389
1000.116, 71.28772
1000.598, 61.72900
1001.080, 50.39288
1001.562, 37.50555
1002.044, 26.05090
1002.527, 22.32678
1003.009, 26.94971
1003.491, 30.83954
1003.973, 32.25397
1004.455, 32.79199
1004.937, 34.45312
1005.419, 36.13013
1005.901, 36.14368
1006.384, 33.60455
1006.866, 32.02173
1007.348, 32.31848
1007.830, 32.79114
1008.312, 31.76538
1008.794, 29.98773
1009.276, 33.48340
1009.758, 41.41150
1010.240, 46.91028
1010.723, 46.30438
1011.205, 41.67963
1011.687, 29.56561
1012.169, 14.93347
1012.651, 11.39587
1013.133, 24.37549
1013.615, 32.34839
1014.097, 30.73816
1014.580, 26.84045
1015.062, 33.31006
1015.544, 44.11169
1016.026, 46.56903
1016.508, 36.76813
1016.990, 27.97217
1017.472, 27.56891
1017.954, 27.72589
1018.436, 23.00262
1018.919, 13.88293
1019.401, 11.47211
1019.883, 15.79010
1020.365, 19.41211
1020.847, 15.99194
1021.329, 11.55121
1021.811, 12.72601
1022.293, 17.55627
1022.776, 21.27307
1023.258, 24.09149
1023.740, 23.34326
1024.222, 17.04742
1024.704, 9.964600
1025.186, 11.05524
1025.668, 16.96490
1026.150, 14.21448
1026.632, 7.1471997E-02
1027.115, 10.74561
1027.597, 5.444702
1028.079, 2.968933
1028.561, 5.362122
1029.043, 1.934814
1029.525, 0.5452880
1030.007, 1.446167
1030.489, 2.615417
1030.972, 3.943787
1031.454, 4.105042
1031.936, 0.3912960
1032.418, 7.283813
1032.900, 11.65930
1033.382, 10.85944
1033.864, 8.831726
1034.346, 5.390015
1034.828, 1.811523
1035.311, 0.4874880
1035.793, 1.613342
1036.275, 2.265930
1036.757, 2.506470
1037.239, 1.710632
1037.721, 2.201294
1038.203, 5.903320
1038.685, 6.644653
1039.167, 4.665894
1039.650, 3.778625
1040.132, 4.848022
1040.614, 2.847107
1041.096, 5.248596
1041.578, 14.92395
1042.060, 18.22015
1042.542, 17.83759
1043.024, 19.05194
1043.507, 25.37262
1043.989, 29.32745
1044.471, 28.22278
1044.953, 26.00299
1045.435, 25.39685
1045.917, 26.36859
1046.399, 29.90387
1046.881, 35.71851
1047.364, 38.15765
1047.846, 28.17554
1048.328, 18.33905
1048.810, 19.13635
1049.292, 27.90656
1049.774, 31.26257
1050.256, 27.30713
1050.738, 24.55377
1051.220, 25.21716
1051.703, 26.31250
1052.185, 22.78778
1052.667, 17.00250
1053.149, 12.65625
1053.631, 10.27686
1054.113, 10.37183
1054.595, 13.95813
1055.077, 19.19391
1055.559, 26.42950
1056.042, 34.72876
1056.524, 36.66119
1057.006, 33.03510
1057.488, 30.46173
1057.970, 34.40771
1058.452, 38.61224
1058.934, 38.40936
1059.416, 36.00092
1059.899, 35.78424
1060.381, 38.78442
1060.863, 40.64655
1061.345, 40.97699
1061.827, 40.31531
1062.309, 37.65033
1062.791, 35.11969
1063.273, 37.43329
1063.755, 44.74817
1064.238, 48.24841
1064.720, 43.18665
1065.202, 36.53168
1065.684, 28.50372
1066.166, 21.56293
1066.648, 25.31677
1067.130, 37.20508
1067.612, 45.35193
1068.094, 44.68536
1068.577, 42.53674
1069.059, 41.12476
1069.541, 41.94110
1070.023, 47.69635
1070.505, 60.89569
1070.987, 62.02209
1071.469, 49.68646
1071.951, 38.93909
1072.434, 42.04474
1072.916, 51.02271
1073.398, 58.23016
1073.880, 63.34802
1074.362, 65.87427
1074.844, 64.46576
1075.326, 62.39319
1075.808, 59.39728
1076.291, 56.98480
1076.773, 58.43555
1077.255, 62.06787
1077.737, 62.25299
1078.219, 57.96381
1078.701, 55.37616
1079.183, 61.65930
1079.665, 66.20642
1080.147, 62.30969
1080.630, 52.09918
1081.112, 48.37915
1081.594, 50.98657
1082.076, 55.26605
1082.558, 60.87585
1083.040, 64.78857
1083.522, 62.82562
1084.004, 58.17444
1084.486, 55.21619
1084.969, 55.03284
1085.451, 54.19708
1085.933, 53.05554
1086.415, 49.43988
1086.897, 36.52008
1087.379, 22.74445
1087.861, 24.94916
1088.343, 40.34167
1088.826, 55.85663
1089.308, 69.40375
1089.790, 78.63281
1090.272, 81.95459
1090.754, 82.00024
1091.236, 84.38239
1091.718, 87.58954
1092.200, 81.30475
1092.682, 62.88318
1093.165, 51.63257
1093.647, 70.45508
1094.129, 90.38782
1094.611, 90.43787
1095.093, 74.29108
1095.575, 70.78485
1096.057, 80.56665
1096.539, 84.48907
1097.022, 71.59711
1097.504, 57.23724
1097.986, 58.54834
1098.468, 67.93915
1098.950, 75.63025
1099.432, 82.47565
1099.914, 79.31024
1100.396, 62.81976
1100.879, 47.33752
1101.361, 44.03601
1101.843, 48.51166
1102.325, 54.71155
1102.807, 61.91986
1103.289, 65.49695
1103.771, 56.79462
1104.253, 52.44690
1104.735, 57.33331
1105.218, 65.68994
1105.700, 67.79034
1106.182, 64.60480
1106.664, 63.76385
1107.146, 66.21606
1107.628, 68.73608
1108.110, 70.48016
1108.592, 70.53107
1109.074, 66.71906
1109.557, 60.87781
1110.039, 62.81525
1110.521, 72.71417
1111.003, 73.53229
1111.485, 57.57562
1111.967, 41.47839
1112.449, 41.43591
1112.931, 48.38049
1113.414, 54.12347
1113.896, 58.37640
1114.378, 57.61981
1114.860, 50.09222
1115.342, 45.59314
1115.824, 54.32751
1116.306, 65.66425
1116.788, 57.77087
1117.271, 39.76544
1117.753, 31.52167
1118.235, 52.62817
1118.717, 62.95160
1119.199, 56.13177
1119.681, 46.02722
1120.163, 46.78308
1120.645, 55.11707
1121.127, 63.22382
1121.609, 70.27271
1122.092, 72.22882
1122.574, 62.72742
1123.056, 52.64795
1123.538, 44.08325
1124.020, 38.35248
1124.502, 40.10406
1124.984, 48.23212
1125.466, 52.29266
1125.949, 50.00616
1126.431, 45.61157
1126.913, 40.40350
1127.395, 35.67056
1127.877, 31.17526
1128.359, 27.38074
1128.841, 30.34442
1129.323, 40.61234
1129.806, 48.73962
1130.288, 51.44394
1130.770, 50.53152
1131.252, 46.94055
1131.734, 41.15054
1132.216, 32.95178
1132.698, 19.80414
1133.180, 13.79709
1133.662, 16.05658
1134.145, 21.19635
1134.627, 28.14145
1135.109, 34.43268
1135.591, 34.70404
1136.073, 30.98654
1136.555, 28.38159
1137.037, 29.52942
1137.519, 31.50320
1138.001, 35.65808
1138.484, 37.38864
1138.966, 27.49249
1139.448, 12.61420
1139.930, 12.31213
1140.412, 25.60065
1140.894, 33.65811
1141.376, 24.22504
1141.858, 14.10159
1142.341, 5.838684
1142.823, 1.505249
1143.305, 8.191803
1143.787, 22.63275
1144.269, 28.15213
1144.751, 20.98337
1145.233, 16.14542
1145.715, 25.91312
1146.198, 36.71799
1146.680, 41.55573
1147.162, 41.18857
1147.644, 37.75220
1148.126, 31.59488
1148.608, 27.98480
1149.090, 29.72989
1149.572, 31.22180
1150.054, 26.48221
1150.536, 20.71887
1151.019, 19.46939
1151.501, 23.35754
1151.983, 24.36972
1152.465, 22.50507
1152.947, 17.97382
1153.429, 8.144806
1153.911, 1.189789
1154.393, 4.283752
1154.876, 3.019897
1155.358, 0.2483830
1155.840, 4.383545
1156.322, 8.127106
1156.804, 11.11252
1157.286, 12.56564
1157.768, 10.45166
1158.250, 7.433502
1158.733, 8.398865
1159.215, 11.63040
1159.697, 9.676971
1160.179, 4.826752
1160.661, 9.289551
1161.143, 2.106995
1161.625, 14.90869
1162.107, 9.120087
1162.589, 5.096283
1163.072, 10.67303
1163.554, 6.669983
1164.036, 1.145996
1164.518, 5.491730
1165.000, 11.01388
1165.482, 15.14441
1165.964, 17.47354
1166.446, 16.43616
1166.928, 13.19461
1167.411, 10.73691
1167.893, 10.02585
1168.375, 6.833008
1168.857, 5.680511
1169.339, 13.81818
1169.821, 10.86035
1170.303, 0.8542180
1170.785, 5.717072
1171.268, 9.224915
1171.750, 11.06952
1172.232, 11.75134
1172.714, 10.58212
1173.196, 5.787231
1173.678, 0.3352050
1174.160, 4.998627
1174.642, 9.556793
1175.125, 6.557892
1175.607, 2.522949
1176.089, 9.412018
1176.571, 7.702850
1177.053, 6.344513
1177.535, 11.44812
1178.017, 17.03607
1178.499, 16.55777
1178.981, 10.12564
1179.464, 9.259949
1179.946, 13.70966
1180.428, 17.39749
1180.910, 16.79126
1181.392, 14.08752
1181.874, 7.791016
1182.356, 1.462646
1182.838, 1.582520
1183.320, 8.496765
1183.803, 10.46030
1184.285, 6.394287
1184.767, 2.626312
1185.249, 4.972382
1185.731, 8.217926
1186.213, 7.097931
1186.695, 4.301666
1187.177, 9.447144
1187.660, 23.52142
1188.142, 29.80829
1188.624, 24.89392
1189.106, 17.60297
1189.588, 11.43378
1190.070, 8.977417
1190.552, 16.82172
1191.034, 32.10617
1191.516, 33.76489
1191.999, 20.10803
1192.481, 7.964752
1192.963, 0.5860600
1193.445, 0.6439210
1193.927, 11.38635
1194.409, 26.33127
1194.891, 33.22174
1195.373, 31.21194
1195.855, 29.89163
1196.338, 29.47369
1196.820, 26.36005
1197.302, 16.74423
1197.784, 8.952942
1198.266, 17.58301
1198.748, 30.59894
1199.230, 30.34897
1199.712, 11.24713
1200.195, 6.871979
1200.677, 19.44992
1201.159, 30.96579
1201.641, 30.42474
1202.123, 25.54727
1202.605, 23.77261
1203.087, 24.21750
1203.569, 25.60284
1204.052, 28.62234
1204.534, 29.65485
1205.016, 28.39175
1205.498, 27.02399
1205.980, 28.06522
1206.462, 28.99496
1206.944, 24.83826
1207.426, 18.63779
1207.908, 17.87454
1208.391, 24.60046
1208.873, 33.16763
1209.355, 44.47421
1209.837, 51.91168
1210.319, 47.12723
1210.801, 37.53638
1211.283, 30.43021
1211.765, 25.54105
1212.247, 21.77774
1212.730, 17.82867
1213.212, 20.72449
1213.694, 32.84003
1214.176, 43.71237
1214.658, 39.47781
1215.140, 31.29639
1215.622, 34.03195
1216.104, 45.67178
1216.587, 49.48297
1217.069, 41.67929
1217.551, 36.20950
1218.033, 35.06152
1218.515, 35.24826
1218.997, 35.24316
1219.479, 34.25430
1219.961, 30.05930
1220.443, 22.76526
1220.926, 21.76050
1221.408, 29.62665
1221.890, 37.93869
1222.372, 45.29810
1222.854, 49.86478
1223.336, 48.62210
1223.818, 43.99310
1224.300, 37.11444
1224.782, 28.16156
1225.265, 26.30478
1225.747, 33.02026
1226.229, 39.97940
1226.711, 44.55984
1227.193, 46.68591
1227.675, 47.34427
1228.157, 46.30679
1228.639, 41.13422
1229.122, 30.92993
1229.604, 26.05017
1230.086, 27.18188
1230.568, 29.23389
1231.050, 29.81900
1231.532, 31.04602
1232.014, 36.93893
1232.496, 43.94229
1232.979, 48.11908
1233.461, 49.32385
1233.943, 49.94943
1234.425, 50.02765
1234.907, 47.36258
1235.389, 37.53656
1235.871, 29.28134
1236.353, 35.61627
1236.835, 45.87564
1237.318, 44.23990
1237.800, 27.66125
1238.282, 21.74973
1238.764, 26.97302
1239.246, 33.85010
1239.728, 39.58420
1240.210, 41.44232
1240.692, 31.64456
1241.175, 20.10492
1241.657, 21.36884
1242.139, 40.13422
1242.621, 40.98297
1243.103, 24.07901
1243.585, 10.27704
1244.067, 15.78760
1244.549, 24.40649
1245.031, 27.95139
1245.514, 26.00943
1245.996, 16.50143
1246.478, 0.8488160
1246.960, 0.6319580
1247.442, 16.58020
1247.924, 34.41348
1248.406, 46.74927
1248.888, 52.03400
1249.370, 43.69440
1249.853, 30.33087
1250.335, 20.58267
1250.817, 14.47852
1251.299, 15.13013
1251.781, 22.01801
1252.263, 25.84689
1252.745, 13.99835
1253.227, 5.981506
1253.710, 14.66428
1254.192, 29.00079
1254.674, 36.05896
1255.156, 36.44449
1255.638, 33.24304
1256.120, 27.37027
1256.602, 24.12402
1257.084, 29.89529
1257.567, 34.22696
1258.049, 33.86880
1258.531, 30.51083
1259.013, 23.71759
1259.495, 15.88739
1259.977, 17.87430
1260.459, 29.58807
1260.941, 40.29517
1261.423, 48.64166
1261.906, 49.49326
1262.388, 39.46747
1262.870, 25.81699
1263.352, 18.29993
1263.834, 15.51331
1264.316, 15.14862
1264.798, 16.79013
1265.280, 18.40790
1265.762, 19.92633
1266.245, 20.45804
1266.727, 19.71420
1267.209, 18.20581
1267.691, 14.73074
1268.173, 11.90417
1268.655, 16.28995
1269.137, 27.67023
1269.619, 31.82449
1270.102, 24.86124
1270.584, 17.65323
1271.066, 11.94424
1271.548, 8.116211
1272.030, 6.384583
1272.512, 6.396362
1272.994, 10.20258
1273.476, 17.68359
1273.958, 20.36420
1274.441, 16.49167
1274.923, 15.72855
1275.405, 20.85681
1275.887, 27.05841
1276.369, 33.11975
1276.851, 35.68292
1277.333, 27.03043
1277.815, 10.68512
1278.297, 10.35992
1278.780, 27.03085
1279.262, 38.85251
1279.744, 40.56970
1280.226, 37.91446
1280.708, 33.37982
1281.190, 28.07794
1281.672, 21.66223
1282.154, 15.33020
1282.637, 14.50177
1283.119, 18.56717
1283.601, 22.18655
1284.083, 24.59863
1284.565, 24.21628
1285.047, 18.11191
1285.529, 10.62296
1286.011, 2.864075
1286.494, 3.448120
1286.976, 0.7419130
1287.458, 8.150635
1287.940, 13.64075
1288.422, 13.51648
1288.904, 11.96594
1289.386, 7.083099
1289.868, 6.442078
1290.350, 15.24838
1290.833, 25.86725
1291.315, 19.00238
1291.797, 3.737488
1292.279, 1.329071
1292.761, 5.461304
1293.243, 12.91794
1293.725, 14.66669
1294.207, 14.96912
1294.689, 16.29822
1295.172, 16.59766
1295.654, 11.50583
1296.136, 10.20889
1296.618, 8.021423
1297.100, 5.614563
1297.582, 2.804016
1298.064, 0.0000000E+00
##END=



