##NAMES=Axinite-(Mg)
##RRUFFID=R070133
##IDEAL CHEMISTRY=Ca_4_Mg_2_Al_4_[B_2_Si_8_O_30_](OH)_2_
##LOCALITY=Merelani, Tanzania
##OWNER=RRUFF
##SOURCE=Michael Gray
##DESCRIPTION=Pale brown cut gem stone
##STATUS=The identification of this mineral is confirmed by single-crystal X-ray diffraction and chemical analysis.
##URL=rruff.info/R070133
##MEASURED CHEMISTRY=Ca_4.00_(Mg_1.86_Al_0.08_Mn_0.06_)_Σ=2_Al_4.00_[B_2_(Si_7.92_Al_0.08_)_Σ=8_O_30_](OH)_2_; B and OH not measured but assumed by stoichiometry
142.9499, 0.0000000E+00
143.4320, 2.585083
143.9142, 19.21521
144.3963, 41.89209
144.8784, 53.76123
145.3605, 70.31836
145.8426, 84.71423
146.3247, 99.13733
146.8069, 138.6367
147.2890, 217.3059
147.7711, 308.3513
148.2532, 394.5146
148.7353, 472.0720
149.2174, 548.3242
149.6996, 628.9241
150.1817, 717.4536
150.6638, 779.7926
151.1459, 811.5306
151.6280, 818.6755
152.1101, 806.8760
152.5923, 765.4590
153.0744, 715.2120
153.5565, 656.4688
154.0386, 583.0143
154.5207, 523.4658
155.0028, 482.9031
155.4850, 458.4166
155.9671, 445.2815
156.4492, 451.8279
156.9313, 462.4347
157.4134, 469.8196
157.8955, 469.8033
158.3777, 474.3921
158.8598, 483.1442
159.3419, 497.6797
159.8240, 523.0739
160.3061, 569.8158
160.7882, 623.0753
161.2704, 673.8073
161.7525, 732.2196
162.2346, 774.2987
162.7167, 791.2769
163.1988, 784.2191
163.6809, 755.7543
164.1631, 696.1533
164.6452, 620.3982
165.1273, 543.5331
165.6094, 459.0011
166.0915, 384.6627
166.5736, 334.4380
167.0558, 308.7372
167.5379, 290.1471
168.0200, 270.5853
168.5021, 250.6919
168.9842, 231.3418
169.4663, 211.4045
169.9485, 192.9467
170.4306, 178.9139
170.9127, 170.3781
171.3948, 161.7762
171.8769, 147.1451
172.3591, 128.8228
172.8412, 129.5415
173.3233, 133.8250
173.8054, 134.5705
174.2875, 141.0923
174.7696, 135.0906
175.2518, 128.5569
175.7339, 134.8339
176.2160, 146.2640
176.6981, 151.8855
177.1802, 137.8970
177.6623, 113.4011
178.1445, 87.26129
178.6266, 69.96265
179.1087, 58.13483
179.5908, 46.74988
180.0729, 36.39075
180.5550, 28.04388
181.0372, 23.13776
181.5193, 20.10083
182.0014, 15.65912
182.4835, 6.294006
182.9656, 3.151917
183.4477, 1.726563
183.9299, 10.99896
184.4120, 27.41461
184.8941, 39.73151
185.3762, 49.07068
185.8583, 59.41223
186.3404, 75.85425
186.8226, 96.19519
187.3047, 111.6570
187.7868, 116.3226
188.2689, 117.8454
188.7510, 127.9323
189.2331, 143.7462
189.7153, 161.9406
190.1974, 185.4540
190.6795, 208.0120
191.1616, 213.0982
191.6437, 195.6146
192.1258, 168.0209
192.6080, 163.8998
193.0901, 184.3774
193.5722, 212.1663
194.0543, 234.8989
194.5364, 251.2176
195.0185, 273.4834
195.5007, 306.7831
195.9828, 342.8251
196.4649, 361.0720
196.9470, 361.4539
197.4291, 342.9652
197.9112, 295.3041
198.3934, 215.8676
198.8755, 148.4569
199.3576, 98.09460
199.8397, 63.24625
200.3218, 42.01401
200.8039, 39.03586
201.2861, 34.96677
201.7682, 7.166809
202.2503, 50.70151
202.7324, 84.88638
203.2145, 77.36035
203.6967, 36.14343
204.1788, 19.56915
204.6609, 35.93460
205.1430, 58.41037
205.6251, 58.54199
206.1072, 30.04437
206.5894, 7.625641
207.0715, 1.971893
207.5536, 12.52548
208.0357, 14.57605
208.5178, 6.914001
208.9999, 7.405518
209.4821, 24.75345
209.9642, 43.94687
210.4463, 70.29752
210.9284, 108.7068
211.4105, 160.5009
211.8926, 203.3302
212.3748, 238.8604
212.8569, 263.5482
213.3390, 269.7079
213.8211, 248.7611
214.3032, 230.6217
214.7853, 228.6661
215.2675, 248.6696
215.7496, 254.3127
216.2317, 241.9463
216.7138, 217.8018
217.1959, 191.4169
217.6780, 157.7169
218.1602, 132.0762
218.6423, 119.7337
219.1244, 119.6732
219.6065, 138.0582
220.0886, 183.7585
220.5707, 244.9816
221.0529, 289.7469
221.5350, 314.8466
222.0171, 330.9743
222.4992, 342.6990
222.9813, 348.3421
223.4634, 354.3399
223.9456, 366.5945
224.4277, 378.7087
224.9098, 364.8592
225.3919, 311.7010
225.8740, 255.5837
226.3561, 214.1958
226.8383, 187.3176
227.3204, 173.3291
227.8025, 179.5109
228.2846, 197.4397
228.7667, 194.1495
229.2488, 161.7103
229.7310, 120.5249
230.2131, 81.03284
230.6952, 36.45000
231.1773, 10.37488
231.6594, 11.94664
232.1415, 36.42974
232.6237, 48.18109
233.1058, 45.89719
233.5879, 32.65414
234.0700, 7.598778
234.5521, 43.83332
235.0343, 48.75301
235.5164, 38.67982
235.9985, 53.43728
236.4806, 40.04009
236.9627, 45.81675
237.4448, 31.40759
237.9270, 16.73449
238.4091, 3.046116
238.8912, 0.4890140
239.3733, 10.49110
239.8554, 18.20577
240.3375, 10.43576
240.8197, 37.02968
241.3018, 58.61061
241.7839, 73.24130
242.2660, 81.83772
242.7481, 81.40511
243.2302, 69.16896
243.7124, 44.53522
244.1945, 21.76890
244.6766, 10.49298
245.1587, 35.60790
245.6408, 53.35104
246.1229, 58.54360
246.6051, 66.58612
247.0872, 84.24145
247.5693, 113.6920
248.0514, 124.3295
248.5335, 102.5943
249.0156, 74.11937
249.4978, 72.62085
249.9799, 120.4321
250.4620, 150.7741
250.9441, 141.0004
251.4262, 85.27438
251.9083, 50.17044
252.3905, 49.82095
252.8726, 49.68681
253.3547, 57.72906
253.8368, 72.57139
254.3189, 76.23738
254.8010, 59.88992
255.2832, 99.09318
255.7653, 131.9143
256.2474, 151.6613
256.7295, 159.7916
257.2116, 153.3099
257.6938, 118.4500
258.1759, 99.50228
258.6580, 113.0237
259.1401, 163.9582
259.6222, 209.5171
260.1043, 243.3831
260.5865, 272.3925
261.0686, 306.0012
261.5507, 346.5626
262.0328, 391.3417
262.5149, 437.8108
262.9970, 485.4671
263.4792, 540.0402
263.9613, 608.1509
264.4434, 680.4796
264.9255, 739.9380
265.4076, 777.2198
265.8897, 824.3349
266.3719, 895.9433
266.8540, 994.8395
267.3361, 1088.577
267.8182, 1174.419
268.3003, 1256.742
268.7824, 1349.726
269.2646, 1464.053
269.7467, 1551.834
270.2288, 1597.833
270.7109, 1600.222
271.1930, 1574.360
271.6751, 1512.904
272.1573, 1433.512
272.6394, 1359.148
273.1215, 1287.802
273.6036, 1230.801
274.0857, 1200.961
274.5678, 1200.815
275.0500, 1171.605
275.5321, 1104.836
276.0142, 1022.599
276.4963, 965.3012
276.9784, 939.7164
277.4605, 888.5720
277.9427, 773.6312
278.4248, 600.7850
278.9069, 473.8845
279.3890, 396.0192
279.8711, 345.0170
280.3532, 292.8532
280.8354, 238.9547
281.3175, 192.7730
281.7996, 161.9496
282.2817, 144.7833
282.7638, 118.2405
283.2459, 113.5215
283.7281, 152.3647
284.2102, 168.7335
284.6923, 162.5933
285.1744, 137.8936
285.6565, 119.6412
286.1386, 204.4948
286.6208, 233.9133
287.1029, 199.0181
287.5850, 141.8781
288.0671, 111.9491
288.5492, 107.5052
289.0313, 110.6829
289.5135, 117.7345
289.9956, 128.6759
290.4777, 140.5759
290.9598, 153.2194
291.4419, 166.8775
291.9240, 183.1390
292.4062, 198.9824
292.8883, 211.2503
293.3704, 209.6325
293.8525, 203.8903
294.3346, 233.1518
294.8167, 299.3455
295.2989, 363.4376
295.7810, 365.7610
296.2631, 325.8669
296.7452, 313.3607
297.2273, 373.3371
297.7094, 470.8756
298.1916, 548.3456
298.6737, 603.5921
299.1558, 652.3657
299.6379, 712.2515
300.1200, 776.4298
300.6021, 831.2820
301.0843, 878.4742
301.5664, 908.6934
302.0485, 906.5895
302.5306, 872.7447
303.0127, 822.6796
303.4948, 762.0828
303.9770, 693.7725
304.4591, 621.3223
304.9412, 545.6729
305.4233, 466.3550
305.9054, 379.3045
306.3875, 287.8429
306.8697, 206.5763
307.3518, 135.7397
307.8339, 79.10065
308.3160, 46.20401
308.7981, 55.51236
309.2802, 80.07894
309.7624, 104.7287
310.2445, 127.8692
310.7266, 139.2778
311.2087, 114.5354
311.6909, 80.81135
312.1730, 66.52113
312.6551, 94.21886
313.1372, 128.3864
313.6193, 150.8162
314.1014, 162.8233
314.5836, 170.1203
315.0657, 165.3499
315.5478, 162.2498
316.0299, 172.2128
316.5120, 207.9323
316.9941, 244.5093
317.4763, 269.0391
317.9584, 285.8468
318.4405, 310.3737
318.9226, 350.5735
319.4047, 396.5004
319.8868, 443.6451
320.3690, 506.0258
320.8511, 548.0513
321.3332, 549.7065
321.8153, 522.7759
322.2974, 499.5197
322.7795, 499.3297
323.2617, 494.2940
323.7438, 470.4464
324.2259, 407.7749
324.7080, 356.7643
325.1901, 329.6711
325.6722, 318.4861
326.1544, 304.8535
326.6365, 293.0325
327.1186, 274.4362
327.6007, 244.3645
328.0828, 195.0412
328.5649, 152.5405
329.0471, 117.5081
329.5292, 89.32003
330.0113, 67.12592
330.4934, 54.67384
330.9755, 42.94737
331.4576, 28.55759
331.9398, 9.795152
332.4219, 22.06090
332.9040, 31.80854
333.3861, 32.89595
333.8682, 11.75526
334.3503, 70.52089
334.8325, 107.7020
335.3146, 82.10129
335.7967, 22.81516
336.2788, 54.84880
336.7609, 8.694372
337.2430, 78.10557
337.7252, 137.5750
338.2073, 180.3830
338.6894, 208.8589
339.1715, 219.3951
339.6536, 215.4411
340.1357, 219.8187
340.6179, 232.2910
341.1000, 250.7822
341.5821, 283.0845
342.0642, 330.1844
342.5463, 353.9269
343.0284, 334.9075
343.5106, 297.7120
343.9927, 314.0122
344.4748, 385.4978
344.9569, 465.2667
345.4390, 508.9921
345.9211, 524.8503
346.4033, 566.5447
346.8854, 651.0920
347.3675, 751.2585
347.8496, 817.8478
348.3317, 853.0490
348.8138, 879.7558
349.2960, 916.5698
349.7781, 954.1264
350.2602, 972.8741
350.7423, 967.6951
351.2244, 950.7537
351.7065, 933.8221
352.1887, 916.2308
352.6708, 895.6650
353.1529, 869.8126
353.6350, 840.7461
354.1171, 811.6773
354.5992, 783.3313
355.0814, 751.2068
355.5635, 704.3384
356.0456, 651.8644
356.5277, 609.8343
357.0098, 601.6872
357.4919, 594.8110
357.9741, 561.0814
358.4562, 498.6619
358.9383, 441.0009
359.4204, 412.4715
359.9025, 396.0860
360.3846, 372.8976
360.8668, 334.6129
361.3489, 290.1841
361.8310, 241.3204
362.3131, 188.4340
362.7952, 136.3355
363.2773, 74.97739
363.7595, 21.90725
364.2416, 10.56675
364.7237, 8.329914
365.2058, 1.586559
365.6879, 24.92158
366.1700, 55.38130
366.6522, 66.61083
367.1343, 34.81114
367.6164, 0.9912280
368.0985, 15.64502
368.5806, 18.71946
369.0627, 17.84444
369.5449, 16.34059
370.0270, 16.07873
370.5091, 18.15204
370.9912, 15.49891
371.4733, 9.651987
371.9554, 4.664630
372.4376, 0.3771630
372.9197, 0.1234400
373.4018, 9.543854
373.8839, 20.88521
374.3661, 19.31716
374.8482, 9.572203
375.3303, 4.480625
375.8124, 19.83344
376.2945, 10.31359
376.7766, 23.58985
377.2588, 11.30974
377.7409, 8.790381
378.2230, 19.09568
378.7051, 19.56797
379.1872, 16.50542
379.6693, 10.33525
380.1515, 2.359343
380.6336, 2.118336
381.1157, 10.37974
381.5978, 8.198711
382.0799, 37.73430
382.5620, 110.7339
383.0442, 142.7582
383.5263, 110.4781
384.0084, 55.62894
384.4905, 37.65807
384.9726, 51.90045
385.4547, 72.47330
385.9369, 89.66383
386.4190, 102.4339
386.9011, 106.2630
387.3832, 97.95702
387.8653, 94.07738
388.3474, 111.8477
388.8296, 144.7188
389.3117, 179.0830
389.7938, 210.7220
390.2759, 238.7206
390.7580, 259.5146
391.2401, 272.6421
391.7223, 293.9583
392.2044, 346.5413
392.6865, 404.3303
393.1686, 443.0010
393.6507, 440.3612
394.1328, 425.3805
394.6150, 410.8836
395.0971, 396.4888
395.5792, 375.8471
396.0613, 339.2993
396.5434, 301.9528
397.0255, 272.3389
397.5077, 250.1313
397.9898, 237.2720
398.4719, 242.9597
398.9540, 259.0284
399.4361, 261.8633
399.9182, 238.0725
400.4004, 215.6921
400.8825, 202.8326
401.3646, 196.8767
401.8467, 215.6764
402.3288, 273.6630
402.8109, 341.3356
403.2931, 368.6075
403.7752, 340.1167
404.2573, 316.2381
404.7394, 314.7706
405.2215, 333.1801
405.7036, 350.2056
406.1858, 363.8484
406.6679, 381.0074
407.1500, 417.0892
407.6321, 473.1758
408.1142, 502.6360
408.5963, 485.8317
409.0785, 441.3283
409.5606, 414.5717
410.0427, 406.7947
410.5248, 405.1815
411.0069, 396.6619
411.4890, 386.7293
411.9712, 391.3529
412.4533, 415.4615
412.9354, 446.1127
413.4175, 465.4872
413.8996, 478.2693
414.3817, 495.8869
414.8639, 526.0929
415.3460, 562.1130
415.8281, 597.3171
416.3102, 631.9728
416.7923, 667.8997
417.2744, 696.7478
417.7566, 725.3539
418.2387, 759.5483
418.7208, 830.8642
419.2029, 881.8482
419.6850, 863.4157
420.1671, 788.4981
420.6493, 754.0222
421.1314, 867.8382
421.6135, 979.2617
422.0956, 995.3838
422.5777, 822.8023
423.0598, 673.0006
423.5420, 574.7399
424.0241, 514.9404
424.5062, 459.1067
424.9883, 378.3766
425.4704, 332.4225
425.9525, 350.3021
426.4347, 456.3644
426.9168, 523.6221
427.3989, 545.1226
427.8810, 535.5234
428.3631, 503.9044
428.8452, 435.6404
429.3274, 394.4091
429.8095, 401.6644
430.2916, 448.2817
430.7737, 483.3893
431.2558, 506.0361
431.7379, 521.7934
432.2201, 526.9121
432.7022, 523.2098
433.1843, 545.2803
433.6664, 607.3250
434.1486, 678.7356
434.6307, 701.5810
435.1128, 680.4860
435.5949, 648.1563
436.0770, 616.8433
436.5591, 588.9859
437.0413, 569.4338
437.5234, 559.2076
438.0055, 550.0948
438.4876, 539.3170
438.9697, 522.8530
439.4518, 495.8505
439.9340, 447.3480
440.4161, 396.7842
440.8982, 349.7977
441.3803, 308.0723
441.8624, 283.1274
442.3445, 292.9319
442.8267, 314.6201
443.3088, 331.5559
443.7909, 336.0357
444.2730, 343.4231
444.7551, 364.8408
445.2372, 391.0215
445.7194, 404.0647
446.2015, 389.9529
446.6836, 374.4029
447.1657, 363.2646
447.6478, 355.8899
448.1299, 357.5540
448.6121, 379.2331
449.0942, 399.9295
449.5763, 397.4635
450.0584, 365.4361
450.5405, 327.1326
451.0226, 282.8964
451.5048, 235.7438
451.9869, 199.2448
452.4690, 175.4407
452.9511, 153.7022
453.4332, 121.3515
453.9153, 80.44717
454.3975, 65.39357
454.8796, 84.44450
455.3617, 113.0102
455.8438, 118.4362
456.3259, 103.2325
456.8080, 81.46734
457.2902, 53.79495
457.7723, 25.48685
458.2544, 0.9453770
458.7365, 19.42836
459.2186, 27.25545
459.7007, 2.485394
460.1829, 42.73832
460.6650, 57.28132
461.1471, 23.71195
461.6292, 17.74317
462.1113, 36.60594
462.5934, 14.01326
463.0756, 0.1271130
463.5577, 3.399979
464.0398, 8.466091
464.5219, 3.931320
465.0040, 18.28261
465.4861, 21.93885
465.9683, 19.35909
466.4504, 14.42890
466.9325, 16.26327
467.4146, 1.622345
467.8967, 6.276455
468.3788, 0.9383770
468.8610, 21.61771
469.3431, 46.21762
469.8252, 85.37622
470.3073, 112.5093
470.7894, 99.59438
471.2715, 30.33848
471.7537, 13.81639
472.2358, 77.25934
472.7179, 162.2070
473.2000, 152.3800
473.6821, 49.05002
474.1642, 20.55070
474.6464, 20.20651
475.1285, 125.1344
475.6106, 161.2272
476.0927, 128.8050
476.5748, 84.89783
477.0569, 76.14905
477.5391, 89.44080
478.0212, 102.1259
478.5033, 105.2299
478.9854, 107.4215
479.4675, 116.1353
479.9496, 129.9339
480.4318, 145.0339
480.9139, 160.3926
481.3960, 175.9940
481.8781, 193.6280
482.3602, 213.0900
482.8423, 231.9120
483.3245, 243.6515
483.8066, 257.0221
484.2887, 279.1167
484.7708, 323.7151
485.2529, 357.7411
485.7350, 366.0876
486.2172, 360.2255
486.6993, 390.7990
487.1814, 489.2404
487.6635, 576.0818
488.1456, 610.5020
488.6277, 577.7785
489.1099, 568.5068
489.5920, 588.6057
490.0741, 621.7289
490.5562, 660.4007
491.0383, 706.4310
491.5204, 708.4691
492.0026, 639.0068
492.4847, 525.6053
492.9668, 432.8391
493.4489, 360.5404
493.9310, 301.8676
494.4131, 246.8521
494.8953, 203.5733
495.3774, 194.6958
495.8595, 231.7530
496.3416, 265.4637
496.8238, 245.3003
497.3059, 196.2883
497.7880, 161.2181
498.2701, 170.6425
498.7522, 187.5458
499.2343, 186.7442
499.7165, 170.4392
500.1986, 172.1851
500.6807, 226.3747
501.1628, 283.9590
501.6449, 316.2502
502.1270, 296.7589
502.6092, 286.1507
503.0913, 292.3474
503.5734, 306.7981
504.0555, 313.5146
504.5376, 302.9559
505.0197, 302.7842
505.5019, 327.3647
505.9840, 373.3203
506.4661, 386.5807
506.9482, 360.5249
507.4303, 325.9184
507.9124, 306.8668
508.3946, 302.2019
508.8767, 298.2326
509.3588, 294.2634
509.8409, 288.5325
510.3230, 267.7882
510.8051, 239.7466
511.2873, 234.9316
511.7694, 289.2692
512.2515, 363.1442
512.7336, 420.5076
513.2157, 459.5607
513.6978, 465.8099
514.1799, 400.9695
514.6620, 313.9438
515.1442, 250.0939
515.6263, 226.0335
516.1084, 214.4345
516.5905, 216.8165
517.0726, 224.4126
517.5547, 220.4534
518.0369, 193.9256
518.5190, 160.0076
519.0011, 115.6466
519.4832, 57.79286
519.9653, 24.91257
520.4474, 26.94804
520.9296, 44.16758
521.4117, 66.20003
521.8938, 95.48061
522.3759, 120.1219
522.8580, 139.3790
523.3401, 151.0255
523.8223, 151.2190
524.3044, 140.3948
524.7865, 126.3502
525.2686, 115.0544
525.7507, 99.79694
526.2328, 58.17509
526.7150, 8.608345
527.1971, 12.55853
527.6793, 25.47282
528.1614, 37.67883
528.6435, 10.84271
529.1256, 5.383205
529.6077, 76.34686
530.0898, 118.6812
530.5720, 129.2136
531.0541, 123.2078
531.5362, 89.47623
532.0183, 53.00793
532.5004, 25.38545
532.9825, 5.711102
533.4647, 6.374504
533.9468, 5.770008
534.4289, 2.236820
534.9110, 2.495926
535.3931, 20.73691
535.8752, 8.131313
536.3574, 50.04427
536.8395, 125.3769
537.3216, 179.7045
537.8037, 215.4763
538.2858, 203.5751
538.7679, 111.5261
539.2501, 28.09229
539.7322, 20.51080
540.2143, 23.65958
540.6964, 3.595043
541.1785, 11.96447
541.6606, 29.21777
542.1428, 11.69615
542.6249, 42.95334
543.1070, 93.57800
543.5891, 115.6172
544.0712, 119.9633
544.5533, 123.8274
545.0355, 129.9049
545.5176, 140.6430
545.9997, 161.9422
546.4818, 191.4142
546.9639, 211.5176
547.4460, 220.6956
547.9282, 219.1756
548.4103, 200.8232
548.8924, 152.7402
549.3745, 129.3429
549.8566, 144.5827
550.3387, 169.1759
550.8209, 170.3296
551.3030, 140.7510
551.7851, 119.5883
552.2672, 115.9841
552.7493, 124.1787
553.2314, 128.0744
553.7136, 127.8879
554.1957, 131.4396
554.6778, 158.0186
555.1599, 189.9604
555.6420, 178.5069
556.1241, 120.3605
556.6063, 61.85438
557.0884, 43.34804
557.5705, 45.97422
558.0526, 43.07280
558.5347, 9.801958
559.0168, 2.051207
559.4990, 66.92937
559.9811, 173.9058
560.4632, 226.8252
560.9453, 139.5842
561.4274, 55.96403
561.9095, 28.07010
562.3917, 58.62508
562.8738, 85.74226
563.3559, 116.4568
563.8380, 133.1066
564.3201, 114.3596
564.8022, 43.84460
565.2844, 18.42313
565.7665, 54.62243
566.2486, 116.9484
566.7307, 156.2076
567.2128, 172.4801
567.6949, 171.9321
568.1771, 150.3820
568.6592, 119.5332
569.1413, 100.0487
569.6234, 92.54555
570.1055, 93.09301
570.5876, 110.4101
571.0698, 127.8788
571.5519, 123.2893
572.0340, 89.44572
572.5161, 64.88284
572.9982, 71.47235
573.4803, 94.57020
573.9625, 119.1671
574.4446, 144.7172
574.9267, 167.2316
575.4088, 191.7921
575.8909, 213.6867
576.3730, 211.0926
576.8552, 159.2462
577.3373, 131.1447
577.8194, 167.0434
578.3015, 263.2643
578.7836, 296.6849
579.2657, 254.4445
579.7479, 201.9603
580.2300, 203.9442
580.7121, 246.7011
581.1942, 260.1820
581.6763, 227.0509
582.1584, 188.3512
582.6406, 207.1218
583.1227, 255.4099
583.6048, 272.3755
584.0869, 174.5426
584.5690, 86.47499
585.0511, 108.5639
585.5333, 218.3682
586.0154, 298.2894
586.4975, 284.0773
586.9796, 256.6025
587.4617, 256.2978
587.9438, 299.6080
588.4260, 317.4725
588.9081, 291.4556
589.3902, 256.1161
589.8723, 244.6923
590.3544, 264.5649
590.8365, 279.2068
591.3187, 280.0513
591.8008, 279.0706
592.2829, 315.8733
592.7650, 387.0127
593.2471, 419.2104
593.7292, 342.5421
594.2114, 224.0385
594.6935, 208.1907
595.1756, 284.0341
595.6577, 342.8127
596.1398, 295.7629
596.6219, 203.0856
597.1041, 114.2239
597.5862, 32.14176
598.0683, 20.20043
598.5504, 11.50451
599.0325, 23.26316
599.5146, 45.05339
599.9968, 34.12156
600.4789, 32.47487
600.9610, 48.33783
601.4431, 75.17887
601.9252, 90.96281
602.4073, 92.65536
602.8895, 88.62701
603.3716, 82.53394
603.8537, 73.58626
604.3358, 49.99274
604.8179, 11.31301
605.3000, 23.76350
605.7822, 9.951861
606.2643, 8.383492
606.7464, 15.28416
607.2285, 20.60865
607.7106, 3.021084
608.1927, 52.91783
608.6749, 109.7283
609.1570, 142.7377
609.6391, 125.4479
610.1212, 100.3297
610.6033, 85.62511
611.0854, 76.81867
611.5676, 55.10173
612.0497, 22.03940
612.5318, 19.14402
613.0139, 5.737356
613.4960, 60.28471
613.9781, 109.2576
614.4603, 84.37266
614.9424, 54.00499
615.4245, 89.84199
615.9066, 185.4502
616.3887, 208.5697
616.8708, 131.1189
617.3530, 32.97402
617.8351, 20.45577
618.3172, 66.12859
618.7993, 102.5081
619.2814, 97.93031
619.7635, 83.37756
620.2457, 88.37141
620.7278, 103.9529
621.2099, 104.5223
621.6920, 50.23598
622.1741, 6.226717
622.6563, 9.765991
623.1384, 69.27176
623.6205, 106.6093
624.1026, 120.1730
624.5847, 111.4787
625.0668, 69.39007
625.5490, 9.934937
626.0311, 8.712379
626.5132, 53.99144
626.9953, 181.3838
627.4774, 180.0717
627.9595, 68.33560
628.4417, 2.834436
628.9238, 47.79910
629.4059, 124.7552
629.8880, 125.4841
630.3701, 69.77003
630.8522, 14.36021
631.3344, 4.494346
631.8165, 17.56148
632.2986, 7.709667
632.7807, 4.239082
633.2628, 39.78561
633.7449, 70.64364
634.2271, 89.85793
634.7092, 91.42269
635.1913, 65.34431
635.6734, 53.24882
636.1555, 61.40422
636.6376, 74.93353
637.1198, 75.45002
637.6019, 60.12554
638.0840, 57.22964
638.5661, 75.14508
639.0482, 100.9344
639.5303, 107.7225
640.0125, 100.6006
640.4946, 99.73132
640.9767, 131.9781
641.4588, 162.5263
641.9409, 141.6241
642.4230, 82.02415
642.9052, 42.74323
643.3873, 75.19939
643.8694, 115.6388
644.3515, 123.4519
644.8336, 82.78557
645.3157, 74.43055
645.7979, 130.9493
646.2800, 192.7677
646.7621, 212.9950
647.2442, 177.4789
647.7263, 156.3600
648.2084, 158.3883
648.6906, 167.6732
649.1727, 158.2363
649.6548, 132.9326
650.1370, 108.6642
650.6191, 85.27438
651.1012, 72.45563
651.5833, 96.29438
652.0654, 143.5460
652.5475, 173.2611
653.0297, 150.0922
653.5118, 115.4768
653.9939, 90.36796
654.4760, 75.90241
654.9581, 71.24030
655.4402, 86.54178
655.9224, 101.9448
656.4045, 112.5630
656.8866, 121.9782
657.3687, 111.8341
657.8508, 75.55209
658.3329, 30.94864
658.8151, 7.964515
659.2972, 10.88751
659.7793, 28.62898
660.2614, 28.09589
660.7435, 15.01091
661.2256, 11.55566
661.7078, 15.72697
662.1899, 41.43427
662.6720, 46.76545
663.1541, 45.38360
663.6362, 51.37466
664.1183, 61.72820
664.6005, 65.49892
665.0826, 47.97355
665.5647, 36.47682
666.0468, 42.79385
666.5289, 66.34451
667.0110, 87.50384
667.4932, 107.8461
667.9753, 122.9219
668.4574, 124.5479
668.9395, 111.7983
669.4216, 120.3685
669.9037, 152.1157
670.3859, 186.8801
670.8680, 204.4046
671.3501, 209.7540
671.8322, 209.1146
672.3143, 199.0607
672.7964, 195.6353
673.2786, 224.7798
673.7607, 267.2986
674.2428, 290.2198
674.7249, 266.3725
675.2070, 240.1068
675.6891, 227.1690
676.1713, 222.1056
676.6534, 202.9105
677.1355, 149.3891
677.6176, 119.3593
678.0997, 144.3721
678.5818, 213.2946
679.0640, 224.9745
679.5461, 173.4116
680.0282, 117.7860
680.5103, 111.1246
680.9924, 129.0292
681.4745, 106.1325
681.9567, 37.12206
682.4388, 19.82540
682.9209, 7.659861
683.4030, 19.78878
683.8851, 18.53957
684.3672, 16.56734
684.8494, 13.89450
685.3315, 7.043070
685.8136, 7.6485001E-02
686.2957, 4.888861
686.7778, 10.78769
687.2599, 7.010349
687.7421, 14.19479
688.2242, 8.392450
688.7063, 5.862303
689.1884, 15.95510
689.6705, 21.56743
690.1526, 90.77913
690.6348, 160.2370
691.1169, 154.6059
691.5990, 87.95959
692.0811, 25.21401
692.5632, 3.760824
693.0453, 4.220533
693.5275, 18.15189
694.0096, 44.72719
694.4917, 72.65347
694.9738, 109.8253
695.4559, 138.0161
695.9380, 144.1438
696.4202, 116.0054
696.9023, 119.6398
697.3844, 168.5518
697.8665, 226.7750
698.3486, 260.3765
698.8307, 271.6169
699.3129, 270.1274
699.7950, 256.5083
700.2771, 248.5564
700.7592, 278.7445
701.2413, 328.6626
701.7234, 360.1150
702.2056, 323.0887
702.6877, 313.6609
703.1698, 426.7090
703.6519, 600.6705
704.1340, 703.1859
704.6161, 632.6970
705.0983, 578.5667
705.5804, 574.4200
706.0625, 614.6672
706.5446, 672.1835
707.0267, 747.3318
707.5089, 835.7805
707.9910, 956.8298
708.4731, 1088.601
708.9552, 1127.599
709.4373, 1080.721
709.9194, 1041.615
710.4016, 1069.961
710.8837, 1144.829
711.3658, 1263.401
711.8479, 1432.007
712.3300, 1564.894
712.8121, 1614.026
713.2943, 1627.268
713.7764, 1638.652
714.2585, 1655.429
714.7406, 1660.160
715.2227, 1643.564
715.7048, 1627.715
716.1870, 1654.181
716.6691, 1725.403
717.1512, 1733.187
717.6333, 1652.519
718.1154, 1524.922
718.5975, 1391.951
719.0797, 1258.157
719.5618, 1134.448
720.0439, 1013.211
720.5260, 914.6530
721.0081, 884.0235
721.4902, 885.4790
721.9724, 833.3610
722.4545, 606.1033
722.9366, 438.3709
723.4187, 412.9818
723.9008, 496.7253
724.3829, 509.6678
724.8651, 432.9762
725.3472, 353.0282
725.8293, 312.4037
726.3114, 300.4726
726.7935, 273.9761
727.2756, 234.0267
727.7578, 201.0677
728.2399, 189.0341
728.7220, 191.3617
729.2041, 209.8921
729.6862, 246.9886
730.1683, 262.6627
730.6505, 223.5866
731.1326, 169.4554
731.6147, 126.8512
732.0968, 95.12544
732.5789, 80.16897
733.0610, 87.71204
733.5432, 103.6376
734.0253, 113.1942
734.5074, 115.7210
734.9895, 116.0945
735.4716, 117.0182
735.9537, 116.3400
736.4359, 113.1767
736.9180, 106.4388
737.4001, 90.85660
737.8822, 48.78168
738.3643, 23.56566
738.8464, 62.44680
739.3286, 130.0501
739.8107, 161.0488
740.2928, 104.5378
740.7749, 58.70311
741.2570, 43.55598
741.7391, 48.49891
742.2213, 41.46049
742.7034, 19.95774
743.1855, 11.26488
743.6676, 38.07843
744.1497, 75.30351
744.6318, 56.92310
745.1140, 6.297318
745.5961, 6.320024
746.0782, 20.90766
746.5603, 22.93220
747.0424, 24.09576
747.5245, 38.19425
748.0067, 69.42604
748.4888, 32.48065
748.9709, 21.08187
749.4530, 8.313179
749.9351, 71.70829
750.4172, 103.5036
750.8994, 98.10806
751.3815, 83.43719
751.8636, 82.07884
752.3457, 89.32233
752.8278, 89.93307
753.3099, 82.71973
753.7921, 62.94799
754.2742, 6.785831
754.7563, 19.21832
755.2384, 10.03748
755.7205, 1.645119
756.2026, 36.30176
756.6848, 77.15832
757.1669, 183.9702
757.6490, 210.8996
758.1311, 119.0599
758.6132, 48.71679
759.0953, 3.237637
759.5775, 16.08863
760.0596, 11.42101
760.5417, 75.64605
761.0238, 102.9108
761.5059, 69.10593
761.9880, 24.33685
762.4702, 16.20509
762.9523, 33.75369
763.4344, 59.02948
763.9165, 89.52855
764.3986, 123.2940
764.8807, 166.2359
765.3629, 211.6981
765.8450, 249.1259
766.3271, 282.7924
766.8092, 297.4364
767.2913, 286.7803
767.7734, 261.1821
768.2556, 226.3124
768.7377, 180.8694
769.2198, 167.3023
769.7019, 230.0832
770.1840, 310.3568
770.6661, 347.1349
771.1483, 344.4490
771.6304, 313.4978
772.1125, 204.9146
772.5946, 121.0506
773.0767, 121.3981
773.5588, 193.8167
774.0410, 237.1343
774.5231, 237.8038
775.0052, 238.3842
775.4874, 263.0669
775.9695, 301.8634
776.4516, 305.7819
776.9337, 275.3932
777.4158, 227.6614
777.8979, 145.8561
778.3801, 69.14546
778.8622, 50.55272
779.3443, 90.52185
779.8264, 142.7033
780.3085, 194.8897
780.7906, 243.5142
781.2728, 297.4359
781.7549, 365.0081
782.2370, 365.0977
782.7191, 267.3070
783.2012, 156.5695
783.6833, 91.96890
784.1655, 69.93868
784.6476, 56.89101
785.1297, 52.31084
785.6118, 62.71110
786.0939, 120.7792
786.5760, 184.9958
787.0582, 191.3020
787.5403, 120.8465
788.0224, 68.76986
788.5045, 92.05640
788.9866, 130.4835
789.4688, 138.1917
789.9509, 105.0366
790.4330, 68.04935
790.9151, 21.06205
791.3972, 16.09721
791.8793, 19.25949
792.3615, 6.729803
792.8436, 44.06667
793.3257, 92.23153
793.8078, 132.7793
794.2899, 139.9518
794.7720, 135.1321
795.2542, 153.6054
795.7363, 239.8324
796.2184, 268.8015
796.7005, 140.6066
797.1826, 14.25642
797.6647, 3.085693
798.1469, 14.68701
798.6290, 99.81436
799.1111, 186.0881
799.5932, 258.4376
800.0753, 297.6981
800.5574, 306.3339
801.0396, 290.6987
801.5217, 241.3569
802.0038, 200.3393
802.4859, 222.4426
802.9680, 265.1569
803.4501, 270.0580
803.9323, 174.6656
804.4144, 110.4748
804.8965, 103.0703
805.3786, 120.4267
805.8607, 117.3717
806.3428, 90.30622
806.8250, 81.75920
807.3071, 101.3070
807.7892, 137.1047
808.2713, 193.4224
808.7534, 254.1386
809.2355, 274.2885
809.7177, 205.7196
810.1998, 141.4632
810.6819, 129.7460
811.1640, 159.8542
811.6461, 215.7677
812.1282, 371.7097
812.6104, 431.4921
813.0925, 328.5279
813.5746, 158.6924
814.0567, 125.8232
814.5388, 230.9941
815.0209, 312.9608
815.5031, 317.0606
815.9852, 298.8100
816.4673, 341.2242
816.9494, 416.2540
817.4315, 460.9819
817.9136, 443.2282
818.3958, 401.8048
818.8779, 320.5415
819.3600, 228.9970
819.8421, 199.6750
820.3242, 275.0523
820.8063, 307.7224
821.2885, 252.7480
821.7706, 153.7164
822.2527, 104.4739
822.7348, 98.27415
823.2169, 100.7228
823.6990, 111.5503
824.1812, 106.7604
824.6633, 35.93912
825.1454, 7.257265
825.6275, 46.68537
826.1096, 6.022381
826.5917, 14.63685
827.0739, 82.95615
827.5560, 184.4240
828.0381, 196.5909
828.5202, 100.2028
829.0023, 44.96690
829.4844, 89.90273
829.9666, 171.9280
830.4487, 169.4864
830.9308, 109.2827
831.4129, 65.00559
831.8950, 88.07196
832.3771, 115.6108
832.8593, 111.8524
833.3414, 87.51952
833.8235, 68.61880
834.3056, 54.60175
834.7877, 49.35390
835.2698, 61.48852
835.7520, 76.79858
836.2341, 47.69023
836.7162, 19.69189
837.1983, 27.37591
837.6804, 37.03645
838.1625, 126.3390
838.6447, 99.10994
839.1268, 2.501541
839.6089, 6.018353
840.0910, 32.84096
840.5731, 9.757711
841.0552, 19.06904
841.5374, 30.87749
842.0195, 12.35335
842.5016, 75.79826
842.9837, 146.3635
843.4658, 176.5649
843.9479, 188.0277
844.4301, 225.8571
844.9122, 276.7759
845.3943, 299.7880
845.8764, 266.1785
846.3585, 217.9280
846.8406, 157.2864
847.3228, 102.3786
847.8049, 92.79842
848.2870, 185.6475
848.7691, 226.9571
849.2512, 167.2988
849.7333, 76.94289
850.2155, 114.7980
850.6976, 265.1059
851.1797, 339.1403
851.6618, 257.1428
852.1439, 136.3561
852.6260, 102.9439
853.1082, 119.9689
853.5903, 126.4546
854.0724, 82.90862
854.5545, 48.34669
855.0366, 39.03696
855.5187, 42.09500
856.0009, 39.77433
856.4830, 22.14093
856.9651, 53.26501
857.4472, 156.0606
857.9293, 266.9263
858.4114, 297.8696
858.8936, 267.6408
859.3757, 215.4822
859.8578, 136.4091
860.3399, 73.73412
860.8220, 72.48289
861.3041, 89.63174
861.7863, 67.41891
862.2684, 36.16295
862.7505, 10.31878
863.2326, 32.89515
863.7147, 30.29361
864.1968, 86.21648
864.6790, 118.7463
865.1611, 124.8071
865.6432, 95.98492
866.1253, 79.54523
866.6074, 145.2381
867.0895, 229.4230
867.5717, 266.7561
868.0538, 233.7374
868.5359, 172.1910
869.0180, 46.69563
869.5001, 15.84984
869.9822, 10.74773
870.4644, 45.31890
870.9465, 113.9475
871.4286, 138.4038
871.9107, 124.4333
872.3928, 33.48990
872.8749, 12.73768
873.3571, 51.30742
873.8392, 5.531940
874.3213, 20.77915
874.8034, 65.23281
875.2855, 106.2292
875.7676, 159.8495
876.2498, 227.3088
876.7319, 274.1729
877.2140, 302.5666
877.6961, 300.9121
878.1782, 226.3732
878.6603, 125.7704
879.1425, 125.7989
879.6246, 215.6929
880.1067, 284.7026
880.5888, 234.3672
881.0709, 180.0224
881.5530, 206.0824
882.0352, 297.5785
882.5173, 298.7764
882.9994, 155.6187
883.4815, 49.06374
883.9636, 99.54655
884.4457, 253.3129
884.9279, 298.2308
885.4100, 246.7724
885.8921, 198.2738
886.3742, 209.2899
886.8563, 246.9062
887.3384, 313.6621
887.8206, 398.7957
888.3027, 424.4322
888.7848, 310.9068
889.2669, 232.1891
889.7490, 250.5950
890.2311, 328.5697
890.7133, 331.6527
891.1954, 270.4559
891.6775, 243.5303
892.1596, 294.5854
892.6417, 381.6702
893.1238, 508.1986
893.6060, 628.2803
894.0881, 649.8135
894.5702, 375.4286
895.0523, 221.8460
895.5344, 314.4373
896.0165, 518.9650
896.4987, 613.2488
896.9808, 592.3154
897.4630, 537.0779
897.9451, 455.0993
898.4272, 386.0273
898.9093, 374.3609
899.3914, 403.1778
899.8735, 448.2809
900.3557, 511.1502
900.8378, 574.5734
901.3199, 657.2222
901.8020, 726.1675
902.2841, 744.4866
902.7662, 700.7742
903.2484, 678.7405
903.7305, 684.5970
904.2126, 700.9681
904.6947, 710.9012
905.1768, 715.0759
905.6589, 721.7576
906.1411, 734.6185
906.6232, 719.1039
907.1053, 632.4062
907.5874, 533.3157
908.0695, 449.0296
908.5516, 374.1957
909.0338, 397.2052
909.5159, 542.9326
909.9980, 662.4098
910.4801, 602.7923
910.9622, 456.7918
911.4443, 449.2515
911.9265, 562.1248
912.4086, 646.1615
912.8907, 624.6403
913.3728, 553.6187
913.8549, 418.5181
914.3370, 243.8545
914.8192, 192.6124
915.3013, 312.2761
915.7834, 396.3084
916.2655, 353.3870
916.7476, 242.8715
917.2297, 181.8869
917.7119, 163.5659
918.1940, 165.6351
918.6761, 190.2351
919.1582, 220.5378
919.6403, 272.3637
920.1224, 313.8292
920.6046, 284.4954
921.0867, 141.9161
921.5688, 46.26685
922.0509, 20.43000
922.5330, 37.08515
923.0151, 75.14632
923.4973, 121.0573
923.9794, 137.9445
924.4615, 111.4566
924.9436, 72.64040
925.4257, 28.37088
925.9078, 12.84407
926.3900, 39.44467
926.8721, 0.2826040
927.3542, 21.58819
927.8363, 43.11430
928.3184, 141.4938
928.8005, 105.7717
929.2827, 18.13005
929.7648, 18.98203
930.2469, 40.37843
930.7290, 27.52579
931.2111, 42.24540
931.6932, 32.23217
932.1754, 13.94212
932.6575, 3.314411
933.1396, 32.55503
933.6217, 40.75117
934.1038, 156.7061
934.5859, 285.3566
935.0681, 388.8901
935.5502, 297.7989
936.0323, 67.35648
936.5144, 31.05437
936.9965, 162.6461
937.4786, 359.7922
937.9608, 198.9551
938.4429, 50.02364
938.9250, 152.5456
939.4071, 20.37271
939.8892, 231.0909
940.3713, 301.0752
940.8535, 284.2502
941.3356, 243.5876
941.8177, 192.0116
942.2998, 166.4800
942.7819, 185.0191
943.2640, 203.0119
943.7462, 219.3568
944.2283, 208.3665
944.7104, 125.9782
945.1925, 18.60072
945.6746, 50.15316
946.1567, 45.37342
946.6389, 100.0361
947.1210, 154.1103
947.6031, 137.3650
948.0852, 76.22203
948.5673, 22.61547
949.0494, 46.34058
949.5316, 48.44060
950.0137, 184.5898
950.4958, 256.8414
950.9779, 271.1720
951.4600, 294.1832
951.9421, 337.0938
952.4243, 334.4648
952.9064, 230.6731
953.3885, 97.38251
953.8706, 92.45224
954.3527, 178.3356
954.8348, 251.1111
955.3170, 244.6325
955.7991, 237.6413
956.2812, 256.8426
956.7633, 293.4338
957.2454, 341.5433
957.7275, 417.1974
958.2097, 417.1260
958.6918, 310.6106
959.1739, 198.3620
959.6560, 221.8334
960.1381, 319.1577
960.6202, 379.9597
961.1024, 377.4272
961.5845, 375.4037
962.0666, 394.8972
962.5487, 422.1107
963.0308, 445.7710
963.5129, 463.7372
963.9951, 523.6113
964.4772, 633.2366
964.9593, 706.2306
965.4414, 655.3666
965.9235, 559.5042
966.4056, 509.3932
966.8878, 503.7446
967.3699, 528.7148
967.8520, 621.5302
968.3341, 695.3317
968.8162, 738.7597
969.2983, 747.0408
969.7805, 694.8784
970.2626, 585.7017
970.7447, 509.6126
971.2268, 497.2290
971.7089, 509.2448
972.1910, 525.7852
972.6732, 543.2101
973.1553, 556.7791
973.6374, 523.4727
974.1195, 551.3784
974.6016, 681.2229
975.0837, 817.3264
975.5659, 873.8768
976.0480, 858.0535
976.5301, 809.1066
977.0122, 731.1298
977.4943, 718.7639
977.9764, 951.1416
978.4586, 1184.012
978.9407, 1198.165
979.4228, 996.9328
979.9049, 875.0301
980.3870, 862.9570
980.8691, 876.0851
981.3513, 877.2801
981.8334, 887.7025
982.3155, 1000.681
982.7976, 1171.394
983.2797, 1240.390
983.7618, 1082.906
984.2440, 912.2083
984.7261, 808.9921
985.2082, 757.7557
985.6903, 741.8531
986.1724, 763.2957
986.6545, 805.9661
987.1367, 873.9798
987.6188, 925.8735
988.1009, 901.9751
988.5830, 844.1855
989.0651, 824.7353
989.5472, 851.9515
990.0294, 868.2058
990.5115, 858.2704
990.9936, 820.4359
991.4757, 746.0756
991.9578, 643.4676
992.4399, 597.6356
992.9221, 617.0165
993.4042, 612.2751
993.8863, 461.6295
994.3684, 314.6243
994.8505, 420.2569
995.3326, 665.9771
995.8148, 821.9086
996.2969, 751.7506
996.7790, 672.4308
997.2611, 614.5347
997.7432, 564.8516
998.2253, 502.3423
998.7075, 445.4004
999.1896, 494.6456
999.6717, 664.3136
1000.154, 796.1783
1000.636, 720.9120
1001.118, 613.1865
1001.600, 616.3846
1002.082, 730.6780
1002.564, 774.7120
1003.047, 730.5261
1003.529, 681.9374
1004.011, 678.9404
1004.493, 696.6054
1004.975, 649.6552
1005.457, 572.6679
1005.939, 570.7216
1006.421, 798.1025
1006.903, 973.9238
1007.386, 973.3043
1007.868, 900.8273
1008.350, 893.9659
1008.832, 967.6421
1009.314, 953.4470
1009.796, 827.7843
1010.278, 675.1476
1010.760, 562.4584
1011.242, 474.8185
1011.725, 392.4464
1012.207, 312.3891
1012.689, 274.0372
1013.171, 298.8203
1013.653, 339.4728
1014.135, 391.2289
1014.617, 440.5575
1015.099, 415.9664
1015.582, 337.5179
1016.064, 314.8293
1016.546, 479.6038
1017.028, 599.0604
1017.510, 464.3631
1017.992, 218.6443
1018.474, 85.98238
1018.956, 106.5726
1019.438, 145.4459
1019.921, 203.2119
1020.403, 253.6752
1020.885, 263.8669
1021.367, 247.4096
1021.849, 220.4024
1022.331, 185.6005
1022.813, 164.2457
1023.295, 162.1742
1023.778, 181.9742
1024.260, 241.6411
1024.742, 320.0443
1025.224, 296.5351
1025.706, 178.6296
1026.188, 102.6242
1026.670, 145.3083
1027.152, 198.2520
1027.635, 123.9164
1028.117, 6.113792
1028.599, 28.13229
1029.081, 143.6788
1029.563, 192.3901
1030.045, 58.73597
1030.527, 65.99442
1031.009, 36.39817
1031.491, 277.9645
1031.974, 377.7043
1032.456, 337.3132
1032.938, 274.6501
1033.420, 253.5201
1033.902, 223.6406
1034.384, 146.0961
1034.866, 42.97500
1035.348, 19.33977
1035.830, 41.56206
1036.313, 35.50831
1036.795, 2.746445
1037.277, 42.97900
1037.759, 13.80670
1038.241, 21.84823
1038.723, 33.99409
1039.205, 279.0410
1039.687, 388.8783
1040.170, 303.2329
1040.652, 167.1279
1041.134, 52.59455
1041.616, 31.75242
1042.098, 24.02509
1042.580, 60.63737
1043.062, 129.4647
1043.544, 112.0044
1044.026, 86.94378
1044.509, 71.66568
1044.991, 79.34841
1045.473, 159.1327
1045.955, 335.0007
1046.437, 395.4803
1046.919, 288.5128
1047.401, 151.4626
1047.883, 143.8459
1048.365, 192.3257
1048.848, 223.2630
1049.330, 242.2325
1049.812, 154.5231
1050.294, 34.10361
1050.776, 255.7630
1051.258, 196.9466
1051.740, 43.34551
1052.222, 4.441277
1052.705, 28.69324
1053.187, 50.64122
1053.669, 11.18744
1054.151, 78.04810
1054.633, 140.8234
1055.115, 172.1856
1055.597, 114.0640
1056.079, 47.12558
1056.562, 55.52132
1057.044, 228.7083
1057.526, 458.9386
1058.008, 229.7451
1058.490, 9.174015
1058.972, 136.9499
1059.454, 25.64470
1059.936, 10.47236
1060.418, 172.4726
1060.901, 275.5508
1061.383, 227.8890
1061.865, 131.0061
1062.347, 245.5219
1062.829, 485.3430
1063.311, 567.5941
1063.793, 367.5175
1064.275, 168.5684
1064.757, 71.89017
1065.240, 69.18587
1065.722, 184.5860
1066.204, 422.6570
1066.686, 470.3362
1067.168, 323.5310
1067.650, 205.2963
1068.132, 313.4992
1068.614, 465.0928
1069.097, 498.8114
1069.579, 440.9595
1070.061, 351.8751
1070.543, 169.7281
1071.025, 126.3544
1071.507, 292.1602
1071.989, 485.4269
1072.471, 444.7870
1072.953, 279.4750
1073.436, 266.5455
1073.918, 434.5298
1074.400, 553.6998
1074.882, 452.2425
1075.364, 342.3999
1075.846, 316.9162
1076.328, 350.5964
1076.810, 326.6667
1077.292, 253.5020
1077.775, 236.1104
1078.257, 329.2894
1078.739, 438.9176
1079.221, 520.2536
1079.703, 559.8748
1080.185, 538.0504
1080.667, 430.4596
1081.149, 398.8454
1081.632, 456.7871
1082.114, 494.6859
1082.596, 376.7871
1083.078, 230.7466
1083.560, 305.6037
1084.042, 527.9052
1084.524, 656.3932
1085.006, 504.3100
1085.489, 406.7181
1085.971, 427.2737
1086.453, 488.4135
1086.935, 495.7798
1087.417, 457.2547
1087.899, 397.8068
1088.381, 313.1153
1088.863, 279.5579
1089.345, 387.7810
1089.828, 500.1438
1090.310, 552.1304
1090.792, 545.7722
1091.274, 447.9520
1091.756, 251.3991
1092.238, 173.6310
1092.720, 338.0645
1093.202, 523.5541
1093.685, 493.3004
1094.167, 366.8760
1094.649, 295.6947
1095.131, 321.3404
1095.613, 314.3855
1096.095, 264.6017
1096.577, 211.7279
1097.059, 165.8217
1097.542, 137.4765
1098.024, 154.8487
1098.506, 207.6258
1098.988, 256.1516
1099.470, 305.3016
1099.952, 319.3551
1100.434, 280.5173
1100.916, 225.2252
1101.398, 199.0881
1101.880, 201.2776
1102.363, 227.9501
1102.845, 280.3868
1103.327, 307.6033
1103.809, 283.5528
1104.291, 222.7818
1104.773, 82.24364
1105.255, 7.780708
1105.737, 39.75307
1106.220, 182.6691
1106.702, 336.0583
1107.184, 328.7425
1107.666, 278.9093
1108.148, 306.0591
1108.630, 330.1444
1109.112, 280.4157
1109.594, 132.6960
1110.077, 61.30811
1110.559, 72.70061
1111.041, 92.99317
1111.523, 84.07128
1112.005, 71.82034
1112.487, 127.2874
1112.969, 215.5663
1113.451, 261.9368
1113.933, 168.9617
1114.416, 138.5983
1114.898, 213.3920
1115.380, 307.5117
1115.862, 347.9478
1116.344, 329.6997
1116.826, 231.4270
1117.308, 85.34279
1117.790, 15.01989
1118.272, 12.01334
1118.755, 21.11475
1119.237, 78.32240
1119.719, 138.5932
1120.201, 158.0365
1120.683, 140.8399
1121.165, 164.1282
1121.647, 249.0583
1122.129, 289.0806
1122.612, 128.7148
1123.094, 32.20003
1123.576, 7.532135
1124.058, 31.81867
1124.540, 78.07588
1125.022, 62.67696
1125.504, 40.41879
1125.986, 16.41664
1126.469, 25.24253
1126.951, 154.9435
1127.433, 318.7737
1127.915, 386.5848
1128.397, 312.9389
1128.879, 254.0430
1129.361, 212.7528
1129.843, 182.7593
1130.325, 168.6249
1130.807, 157.4434
1131.290, 74.12106
1131.772, 20.49837
1132.254, 13.92057
1132.736, 457.7296
1133.218, 668.5698
1133.700, 533.6755
1134.182, 286.4908
1134.664, 130.6583
1135.147, 48.51310
1135.629, 16.49164
1136.111, 7.504107
1136.593, 0.6027260
1137.075, 25.73769
1137.557, 86.31014
1138.039, 37.52320
1138.521, 26.99800
1139.004, 8.763723
1139.486, 123.7778
1139.968, 216.5539
1140.450, 244.8929
1140.932, 256.1385
1141.414, 256.2908
1141.896, 273.8969
1142.378, 332.6132
1142.860, 419.2836
1143.343, 483.5956
1143.825, 528.1432
1144.307, 471.9021
1144.789, 245.2558
1145.271, 60.42012
1145.753, 171.7434
1146.235, 384.2465
1146.717, 509.4719
1147.199, 551.8146
1147.682, 441.0114
1148.164, 148.0829
1148.646, 13.83013
1149.128, 7.968798
1149.610, 137.4735
1150.092, 203.8259
1150.574, 218.1460
1151.056, 223.3454
1151.539, 239.5866
1152.021, 205.6959
1152.503, 101.3917
1152.985, 13.74272
1153.467, 15.18682
1153.949, 72.87074
1154.431, 170.9135
1154.913, 280.4606
1155.396, 318.3035
1155.878, 169.3016
1156.360, 73.40833
1156.842, 51.12339
1157.324, 85.73692
1157.806, 198.7624
1158.288, 343.9587
1158.770, 412.2163
1159.252, 401.0976
1159.734, 373.9151
1160.217, 336.9810
1160.699, 314.1234
1161.181, 323.9045
1161.663, 332.7714
1162.145, 255.1855
1162.627, 125.0066
1163.109, 57.48007
1163.591, 82.25959
1164.074, 120.2133
1164.556, 102.5146
1165.038, 103.4151
1165.520, 163.3212
1166.002, 260.3435
1166.484, 326.8430
1166.966, 361.4609
1167.448, 369.5074
1167.931, 342.4560
1168.413, 323.2562
1168.895, 369.4265
1169.377, 377.4411
1169.859, 261.6776
1170.341, 43.82620
1170.823, 2.076859
1171.305, 118.6656
1171.787, 186.7674
1172.270, 77.35737
1172.752, 41.77407
1173.234, 39.68409
1173.716, 2.233398
1174.198, 38.54226
1174.680, 81.07100
1175.162, 77.85062
1175.644, 33.77438
1176.126, 104.3510
1176.609, 164.5933
1177.091, 196.6486
1177.573, 227.7849
1178.055, 233.8353
1178.537, 160.7083
1179.019, 36.80383
1179.501, 8.858402
1179.983, 42.60163
1180.466, 53.22252
1180.948, 128.8990
1181.430, 171.8495
1181.912, 137.5377
1182.394, 62.02655
1182.876, 70.12865
1183.358, 201.7019
1183.840, 230.8941
1184.323, 99.69935
1184.805, 30.69446
1185.287, 35.15141
1185.769, 171.9906
1186.251, 220.6960
1186.733, 180.0492
1187.215, 235.4547
1187.697, 438.9892
1188.179, 529.7622
1188.661, 434.4767
1189.144, 268.1953
1189.626, 87.96495
1190.108, 35.06013
1190.590, 41.90157
1191.072, 345.2597
1191.554, 489.6312
1192.036, 427.3018
1192.518, 368.0175
1193.001, 382.2566
1193.483, 415.7067
1193.965, 362.5728
1194.447, 295.6803
1194.929, 340.5944
1195.411, 566.8466
1195.893, 623.8437
1196.375, 437.4606
1196.858, 275.6823
1197.340, 277.2281
1197.822, 344.2856
1198.304, 290.2934
1198.786, 183.0717
1199.268, 155.9915
1199.750, 282.0048
1200.232, 390.0966
1200.714, 488.8606
1201.197, 529.9684
1201.679, 473.4867
1202.161, 349.2518
1202.643, 125.7294
1203.125, 0.2240490
1203.607, 62.07439
1204.089, 171.2476
1204.571, 352.1400
1205.053, 341.2043
1205.536, 274.7089
1206.018, 159.6111
1206.500, 49.70956
1206.982, 60.76988
1207.464, 183.8611
1207.946, 285.6657
1208.428, 313.6157
1208.911, 300.1697
1209.393, 215.7356
1209.875, 159.0280
1210.357, 332.9064
1210.839, 588.6650
1211.321, 672.4012
1211.803, 586.9274
1212.285, 445.4208
1212.767, 247.2200
1213.250, 116.2746
1213.732, 64.66365
1214.214, 66.82160
1214.696, 111.1058
1215.178, 180.0599
1215.660, 228.0248
1216.142, 254.2786
1216.624, 266.3182
1217.106, 242.9963
1217.589, 261.5101
1218.071, 330.0425
1218.553, 430.2728
1219.035, 548.6658
1219.517, 741.2819
1219.999, 786.7122
1220.481, 662.9014
1220.963, 531.1389
1221.446, 380.2473
1221.928, 317.9341
1222.410, 393.4861
1222.892, 532.1933
1223.374, 679.2845
1223.856, 774.4909
1224.338, 703.4498
1224.820, 453.0651
1225.302, 210.1384
1225.785, 74.29902
1226.267, 16.45372
1226.749, 28.12738
1227.231, 339.9705
1227.713, 448.0612
1228.195, 448.2347
1228.677, 514.5124
1229.159, 696.8862
1229.641, 733.6100
1230.124, 446.9460
1230.606, 125.0618
1231.088, 91.31007
1231.570, 135.4681
1232.052, 221.7678
1232.534, 311.9149
1233.016, 286.8344
1233.498, 88.13138
1233.981, 0.0000000E+00
##END=



