##NAMES=Bario-olgite
##RRUFFID=R060614
##IDEAL CHEMISTRY=Na(Na,Sr,Ce)_2_Ba(PO_4_)_2_
##LOCALITY=Palitra pegmatite, Kedykverpakhk Mountain, Lovozero massif, Kola Peninsula, Russia
##OWNER=RRUFF
##SOURCE=Michael Scott
##DESCRIPTION=Grayish-green grains associated with brown manaksite R060693, and purple ussingite
##STATUS=The identification of this mineral has been confirmed by single-crystal X-ray diffraction.
##URL=rruff.info/R060614
121.6029, 0.0000000E+00
122.0850, 0.1518550
122.5671, 3.765137
123.0493, 11.90234
123.5314, 17.83008
124.0135, 19.32227
124.4956, 20.50586
124.9777, 27.20801
125.4598, 38.28320
125.9420, 46.25977
126.4241, 43.49609
126.9062, 34.47266
127.3883, 27.52441
127.8704, 25.04395
128.3525, 25.04102
128.8347, 26.59570
129.3168, 27.69531
129.7989, 25.26758
130.2810, 28.33984
130.7631, 35.33691
131.2452, 40.68164
131.7274, 43.62402
132.2095, 43.97754
132.6916, 40.24219
133.1737, 32.07324
133.6558, 23.14941
134.1379, 17.90625
134.6201, 16.57617
135.1022, 13.83887
135.5843, 6.384766
136.0664, 4.519531
136.5485, 7.079102
137.0306, 0.7988280
137.5128, 11.57324
137.9949, 17.85938
138.4770, 18.42188
138.9591, 18.93359
139.4412, 21.98926
139.9233, 27.44434
140.4055, 34.75879
140.8876, 44.83301
141.3697, 53.83789
141.8518, 57.85449
142.3339, 54.92188
142.8160, 50.50586
143.2982, 46.56641
143.7803, 42.92188
144.2624, 41.87500
144.7445, 45.55664
145.2266, 51.11230
145.7087, 51.11719
146.1909, 41.54980
146.6730, 31.68848
147.1551, 25.55176
147.6372, 25.30859
148.1193, 24.65820
148.6014, 23.64746
149.0836, 22.48730
149.5657, 22.35254
150.0478, 24.59766
150.5299, 26.47754
151.0120, 28.32227
151.4941, 25.86816
151.9763, 26.21875
152.4584, 32.80566
152.9405, 44.66309
153.4226, 49.86816
153.9047, 39.99316
154.3868, 28.54004
154.8690, 22.50391
155.3511, 31.04004
155.8332, 36.08301
156.3153, 32.89355
156.7974, 22.38965
157.2795, 13.56836
157.7617, 9.157227
158.2438, 6.847656
158.7259, 5.188477
159.2080, 2.041992
159.6901, 1.289063
160.1722, 6.683594
160.6544, 18.02051
161.1365, 25.71777
161.6186, 21.67090
162.1007, 14.06836
162.5828, 10.65527
163.0649, 17.15820
163.5471, 25.65918
164.0292, 33.19922
164.5113, 39.81250
164.9934, 45.12012
165.4755, 46.18848
165.9576, 43.90820
166.4398, 41.99121
166.9219, 40.24902
167.4040, 38.14844
167.8861, 36.04688
168.3682, 33.71289
168.8503, 31.21680
169.3325, 28.40332
169.8146, 25.83496
170.2967, 24.30078
170.7788, 25.97852
171.2609, 27.97363
171.7430, 26.76953
172.2252, 21.74902
172.7073, 17.78418
173.1894, 20.05762
173.6715, 26.22656
174.1536, 31.63184
174.6357, 34.35254
175.1179, 35.47656
175.6000, 36.42773
176.0821, 37.81152
176.5642, 37.83008
177.0463, 32.85840
177.5284, 21.80664
178.0106, 12.51074
178.4927, 10.57324
178.9748, 11.84375
179.4569, 10.26172
179.9390, 3.194336
180.4211, 4.769531
180.9033, 8.501953
181.3854, 8.338867
181.8675, 6.428711
182.3496, 2.552734
182.8317, 2.114258
183.3138, 4.982422
183.7960, 5.008789
184.2781, 4.961914
184.7602, 9.731445
185.2423, 18.76172
185.7244, 26.40918
186.2065, 27.58789
186.6887, 24.21387
187.1708, 24.19922
187.6529, 28.89453
188.1350, 35.95508
188.6171, 41.78027
189.0992, 46.48633
189.5814, 49.53711
190.0635, 49.24121
190.5456, 46.46289
191.0277, 46.70605
191.5098, 51.99121
191.9919, 58.59180
192.4741, 57.21973
192.9562, 47.47461
193.4383, 37.56641
193.9204, 33.20020
194.4025, 34.23730
194.8846, 35.02246
195.3668, 33.97656
195.8489, 32.30566
196.3310, 33.53809
196.8131, 38.00684
197.2952, 42.39746
197.7773, 45.39941
198.2595, 46.98340
198.7416, 44.63770
199.2237, 36.28711
199.7058, 25.17480
200.1879, 20.84277
200.6700, 24.50977
201.1522, 30.19043
201.6343, 34.53320
202.1164, 37.67188
202.5985, 38.95703
203.0806, 38.11035
203.5627, 35.41016
204.0449, 30.91211
204.5270, 23.80176
205.0091, 16.99805
205.4912, 13.09766
205.9733, 12.80078
206.4554, 11.07715
206.9376, 6.712891
207.4197, 0.5625000
207.9018, 3.755859
208.3839, 6.031250
208.8660, 6.662109
209.3481, 5.452148
209.8303, 1.472656
210.3124, 0.5361330
210.7945, 1.270508
211.2766, 5.063477
211.7587, 1.737305
212.2408, 12.72070
212.7230, 26.08105
213.2051, 28.83789
213.6872, 16.27930
214.1693, 8.811523
214.6514, 9.447266
215.1335, 16.59766
215.6157, 22.77051
216.0978, 27.92285
216.5799, 31.89648
217.0620, 34.80859
217.5441, 36.92676
218.0262, 36.91504
218.5084, 33.63477
218.9905, 28.05176
219.4726, 25.01465
219.9547, 25.96680
220.4368, 27.47461
220.9189, 27.22266
221.4011, 24.53223
221.8832, 22.88672
222.3653, 23.88867
222.8474, 26.29297
223.3295, 24.37109
223.8116, 14.74902
224.2938, 6.046875
224.7759, 3.970703
225.2580, 11.77734
225.7401, 17.84570
226.2222, 21.51855
226.7043, 22.74512
227.1865, 21.57520
227.6686, 15.15332
228.1507, 10.05762
228.6328, 10.95312
229.1149, 22.82324
229.5970, 28.72656
230.0792, 25.93066
230.5613, 16.48438
231.0434, 7.162109
231.5255, 4.110352
232.0076, 11.96191
232.4897, 12.43555
232.9719, 1.3672000E-02
233.4540, 7.533203
233.9361, 6.964844
234.4182, 1.375977
234.9003, 2.025391
235.3824, 13.21289
235.8646, 24.45410
236.3467, 29.83008
236.8288, 24.12402
237.3109, 24.29102
237.7930, 33.34961
238.2751, 47.52246
238.7573, 55.75195
239.2394, 54.71094
239.7215, 52.74121
240.2036, 53.80273
240.6857, 59.42480
241.1678, 63.89551
241.6500, 66.70215
242.1321, 68.25293
242.6142, 70.05469
243.0963, 72.18066
243.5784, 74.20508
244.0605, 75.98242
244.5427, 78.17773
245.0248, 79.33301
245.5069, 80.05957
245.9890, 79.18457
246.4711, 73.86133
246.9532, 61.46777
247.4354, 49.82617
247.9175, 42.05664
248.3996, 39.40234
248.8817, 37.08789
249.3638, 34.58105
249.8459, 32.96875
250.3281, 34.82812
250.8102, 43.81250
251.2923, 50.27051
251.7744, 50.58887
252.2565, 43.02832
252.7386, 36.41016
253.2208, 29.90332
253.7029, 25.00195
254.1850, 24.75098
254.6671, 31.81348
255.1492, 37.97070
255.6313, 39.49805
256.1135, 34.75586
256.5956, 35.00293
257.0777, 41.44336
257.5598, 50.94336
258.0419, 59.97363
258.5240, 69.42188
259.0062, 75.54785
259.4883, 77.08301
259.9704, 73.56152
260.4525, 67.11230
260.9346, 54.76270
261.4167, 43.02148
261.8989, 41.19727
262.3810, 54.83008
262.8631, 64.13965
263.3452, 61.19824
263.8273, 46.93945
264.3094, 40.38281
264.7916, 45.29004
265.2737, 52.53906
265.7558, 52.45312
266.2379, 41.90332
266.7200, 35.38184
267.2021, 37.39551
267.6843, 46.91016
268.1664, 52.55078
268.6485, 53.09668
269.1306, 51.08203
269.6127, 47.30176
270.0948, 39.75293
270.5770, 39.18652
271.0591, 49.44531
271.5412, 67.38672
272.0233, 79.27148
272.5054, 83.25195
272.9875, 84.75781
273.4697, 87.79199
273.9518, 93.08691
274.4339, 95.60352
274.9160, 93.21680
275.3981, 87.89355
275.8802, 85.44336
276.3624, 86.49512
276.8445, 87.64258
277.3266, 87.23340
277.8087, 85.44629
278.2908, 80.44336
278.7729, 70.41504
279.2551, 59.30469
279.7372, 58.16211
280.2193, 69.00000
280.7014, 77.43457
281.1835, 73.17188
281.6656, 56.47754
282.1478, 46.69727
282.6299, 45.85352
283.1120, 49.94531
283.5941, 52.71289
284.0762, 54.17676
284.5583, 54.75293
285.0405, 54.63379
285.5226, 53.80957
286.0047, 52.42090
286.4868, 50.28906
286.9689, 48.36230
287.4510, 47.33203
287.9332, 47.16504
288.4153, 48.84180
288.8974, 54.18945
289.3795, 61.22266
289.8616, 61.76855
290.3438, 55.63672
290.8259, 48.83301
291.3080, 46.62891
291.7901, 48.11719
292.2722, 49.46973
292.7543, 49.82031
293.2365, 49.29297
293.7186, 46.50195
294.2007, 41.06348
294.6828, 35.44824
295.1649, 31.84082
295.6470, 29.84180
296.1292, 28.47461
296.6113, 27.38379
297.0934, 26.63867
297.5755, 28.05176
298.0576, 31.32812
298.5397, 32.00098
299.0219, 23.89844
299.5040, 11.84863
299.9861, 5.191406
300.4682, 9.621094
300.9503, 16.23340
301.4324, 13.27246
301.9146, 2.785156
302.3967, 6.428711
302.8788, 8.884766
303.3609, 6.698242
303.8430, 2.616211
304.3251, 3.426758
304.8073, 9.458008
305.2894, 12.79980
305.7715, 14.59375
306.2536, 18.25977
306.7357, 28.38281
307.2178, 39.21387
307.7000, 43.73535
308.1821, 40.81152
308.6642, 36.19727
309.1463, 33.66992
309.6284, 31.98145
310.1105, 29.49512
310.5927, 21.46680
311.0748, 15.10547
311.5569, 17.75293
312.0390, 29.47559
312.5211, 40.07520
313.0032, 42.26465
313.4854, 40.73730
313.9675, 40.25781
314.4496, 46.55957
314.9317, 51.44141
315.4138, 51.31934
315.8959, 46.65723
316.3781, 40.53320
316.8602, 32.13965
317.3423, 25.17285
317.8244, 23.55566
318.3065, 32.61719
318.7886, 36.60547
319.2708, 24.66699
319.7529, 4.074219
320.2350, 7.457031
320.7171, 2.263672
321.1992, 16.65918
321.6813, 27.86816
322.1635, 34.73926
322.6456, 38.40820
323.1277, 36.41504
323.6098, 31.55371
324.0919, 28.67480
324.5740, 28.24707
325.0562, 29.75977
325.5383, 33.13672
326.0204, 38.50684
326.5025, 45.43750
326.9846, 58.27734
327.4667, 70.95410
327.9489, 77.47461
328.4310, 75.33105
328.9131, 70.35449
329.3952, 63.73926
329.8773, 55.65332
330.3594, 44.40820
330.8416, 23.88184
331.3237, 5.431641
331.8058, 2.549805
332.2879, 6.462891
332.7700, 14.77441
333.2521, 20.36523
333.7343, 24.05371
334.2164, 30.79004
334.6985, 43.20898
335.1806, 54.24023
335.6627, 59.47168
336.1448, 56.02344
336.6270, 53.35547
337.1091, 51.86035
337.5912, 51.37305
338.0733, 51.86035
338.5554, 53.43164
339.0375, 55.10059
339.5197, 56.59082
340.0018, 57.79688
340.4839, 59.25293
340.9660, 60.87402
341.4481, 62.15820
341.9302, 61.45996
342.4124, 58.69043
342.8945, 57.09668
343.3766, 59.27539
343.8587, 63.30566
344.3408, 59.40430
344.8229, 46.18164
345.3051, 33.78125
345.7872, 34.38477
346.2693, 45.54297
346.7514, 51.11230
347.2335, 46.21875
347.7156, 35.91309
348.1978, 29.80566
348.6799, 27.62695
349.1620, 24.77344
349.6441, 16.19434
350.1262, 4.965820
350.6083, 1.543945
351.0905, 1.773438
351.5726, 1.077148
352.0547, 3.998047
352.5368, 7.051758
353.0189, 10.46582
353.5010, 14.68555
353.9832, 19.05664
354.4653, 24.22754
354.9474, 30.56055
355.4295, 32.22559
355.9116, 16.22852
356.3937, 5.648438
356.8759, 15.77051
357.3580, 4.006836
357.8401, 27.97070
358.3222, 38.18066
358.8043, 36.65332
359.2864, 33.67090
359.7686, 33.59961
360.2507, 34.82227
360.7328, 36.22754
361.2149, 38.08691
361.6970, 40.23438
362.1791, 43.43555
362.6613, 46.44141
363.1434, 46.68945
363.6255, 37.03418
364.1076, 29.18262
364.5897, 30.69238
365.0718, 46.35742
365.5540, 55.63184
366.0361, 48.87402
366.5182, 35.81641
367.0003, 28.21582
367.4824, 37.84863
367.9645, 42.59863
368.4467, 35.13672
368.9288, 14.65527
369.4109, 0.5234380
369.8930, 4.341797
370.3751, 4.541992
370.8572, 2.518555
371.3394, 5.681641
371.8215, 9.179688
372.3036, 4.621094
372.7857, 5.119141
373.2678, 8.897461
373.7499, 2.467773
374.2321, 2.161133
374.7142, 3.548828
375.1963, 25.41309
375.6784, 31.23047
376.1605, 15.23535
376.6426, 9.160156
377.1248, 18.81445
377.6069, 11.32422
378.0890, 4.371094
378.5711, 5.462891
379.0532, 13.10449
379.5353, 18.97461
380.0175, 23.47266
380.4996, 25.56641
380.9817, 21.80078
381.4638, 13.28516
381.9459, 11.08691
382.4280, 19.64746
382.9102, 32.36426
383.3923, 34.22559
383.8744, 26.39160
384.3565, 19.66699
384.8386, 21.05664
385.3207, 28.33105
385.8029, 37.66406
386.2850, 49.67969
386.7671, 59.32617
387.2492, 60.96680
387.7313, 56.49609
388.2134, 49.75879
388.6956, 40.82910
389.1777, 31.47754
389.6598, 23.44922
390.1419, 17.35742
390.6240, 11.73145
391.1061, 6.139648
391.5883, 0.9716800
392.0704, 3.315430
392.5525, 7.052734
393.0346, 8.853516
393.5167, 6.769531
393.9988, 1.818359
394.4810, 3.335938
394.9631, 6.523438
395.4452, 10.66992
395.9273, 17.22852
396.4094, 26.66211
396.8915, 37.51562
397.3737, 49.42188
397.8558, 62.41016
398.3379, 76.46094
398.8200, 91.51758
399.3021, 107.1680
399.7842, 123.0723
400.2664, 139.0703
400.7485, 156.1035
401.2306, 175.7852
401.7127, 194.0234
402.1948, 207.5996
402.6769, 212.8828
403.1591, 221.0215
403.6412, 234.1523
404.1233, 249.7070
404.6054, 261.2051
405.0875, 265.9512
405.5696, 273.7480
406.0518, 291.9668
406.5339, 321.4512
407.0160, 336.8555
407.4981, 335.2148
407.9802, 327.9707
408.4623, 327.2207
408.9445, 333.4238
409.4266, 342.7637
409.9087, 354.9395
410.3908, 369.2070
410.8729, 381.8477
411.3550, 393.4082
411.8372, 409.5059
412.3193, 440.2988
412.8014, 478.5703
413.2835, 505.4766
413.7656, 516.2148
414.2477, 525.0137
414.7299, 548.7051
415.2120, 584.2031
415.6941, 617.7402
416.1762, 644.7227
416.6583, 666.1445
417.1404, 680.0156
417.6226, 686.7871
418.1047, 695.7324
418.5868, 715.8926
419.0689, 738.9258
419.5510, 757.5625
420.0331, 768.6504
420.5153, 775.9980
420.9974, 777.4844
421.4795, 775.9219
421.9616, 777.5566
422.4437, 794.8750
422.9258, 807.5879
423.4080, 803.7383
423.8901, 775.5410
424.3722, 759.2910
424.8543, 770.5820
425.3364, 789.7031
425.8185, 797.2207
426.3007, 788.2715
426.7828, 775.0234
427.2649, 756.7402
427.7470, 734.5645
428.2291, 719.0156
428.7112, 715.3262
429.1934, 709.0098
429.6755, 689.2402
430.1576, 651.2344
430.6397, 623.2500
431.1218, 608.2676
431.6039, 600.5762
432.0861, 591.5605
432.5682, 580.7969
433.0503, 565.2207
433.5324, 543.3047
434.0145, 519.0254
434.4966, 502.9609
434.9788, 494.5566
435.4609, 485.5176
435.9430, 467.5371
436.4251, 443.6875
436.9072, 422.2266
437.3893, 404.8770
437.8715, 389.9531
438.3536, 374.8125
438.8357, 360.3320
439.3178, 348.9707
439.7999, 342.3828
440.2820, 339.1875
440.7642, 340.9160
441.2463, 347.5586
441.7284, 346.7012
442.2105, 323.1836
442.6926, 292.5801
443.1747, 270.0039
443.6569, 268.0273
444.1390, 264.1055
444.6211, 248.3242
445.1032, 224.7695
445.5853, 205.2227
446.0674, 199.0840
446.5496, 191.4141
447.0317, 175.1992
447.5138, 145.5586
447.9959, 124.5215
448.4780, 118.2754
448.9601, 117.3047
449.4423, 112.5312
449.9244, 102.4551
450.4065, 92.91016
450.8886, 84.73828
451.3707, 78.07031
451.8528, 71.96680
452.3350, 65.84961
452.8171, 60.94336
453.2992, 58.06836
453.7813, 57.03125
454.2634, 56.52344
454.7455, 55.79297
455.2277, 56.87500
455.7098, 65.87109
456.1919, 80.75195
456.6740, 90.21680
457.1561, 87.47461
457.6382, 78.83594
458.1204, 75.20703
458.6025, 76.08594
459.0846, 75.70117
459.5667, 69.53711
460.0488, 60.18750
460.5309, 52.31641
461.0131, 46.38867
461.4952, 45.66602
461.9773, 56.34375
462.4594, 72.65430
462.9415, 86.52344
463.4236, 97.92188
463.9058, 102.6426
464.3879, 94.21094
464.8700, 74.44922
465.3521, 61.99219
465.8342, 67.37109
466.3163, 76.75000
466.7985, 82.42578
467.2806, 80.30664
467.7627, 80.45117
468.2448, 85.09766
468.7269, 90.95898
469.2090, 93.69531
469.6912, 92.86133
470.1733, 89.74219
470.6554, 83.35938
471.1375, 74.51172
471.6196, 72.16992
472.1017, 78.62109
472.5839, 81.18555
473.0660, 71.36914
473.5481, 49.16406
474.0302, 35.12500
474.5123, 32.90039
474.9944, 34.49609
475.4766, 28.53516
475.9587, 16.48828
476.4408, 6.437500
476.9229, 2.041016
477.4050, 1.908203
477.8871, 6.562500
478.3693, 14.74609
478.8514, 18.55469
479.3335, 8.197266
479.8156, 5.019531
480.2977, 6.330078
480.7798, 9.441406
481.2620, 25.06641
481.7441, 27.50391
482.2262, 23.50781
482.7083, 23.62109
483.1904, 31.08398
483.6725, 43.01953
484.1547, 63.27930
484.6368, 89.92969
485.1189, 104.0391
485.6010, 87.40234
486.0831, 69.44531
486.5652, 65.09180
487.0474, 81.59766
487.5295, 96.70117
488.0116, 112.1699
488.4937, 124.3398
488.9758, 127.0020
489.4579, 116.3496
489.9401, 108.6074
490.4222, 109.2227
490.9043, 115.5352
491.3864, 116.8203
491.8685, 113.1172
492.3506, 105.1035
492.8328, 91.31641
493.3149, 73.29102
493.7970, 57.26953
494.2791, 43.56641
494.7612, 33.32031
495.2433, 29.31445
495.7255, 30.24609
496.2076, 33.06250
496.6897, 40.74023
497.1718, 46.27148
497.6539, 40.07812
498.1360, 24.81445
498.6182, 10.91211
499.1003, 2.638672
499.5824, 1.412109
500.0645, 1.921875
500.5466, 2.087891
501.0287, 5.599609
501.5109, 5.976563
501.9930, 5.466797
502.4751, 5.990234
502.9572, 9.945313
503.4393, 11.89844
503.9214, 8.417969
504.4036, 1.968750
504.8857, 3.107422
505.3678, 19.56445
505.8499, 30.55273
506.3320, 24.82227
506.8141, 0.6484380
507.2963, 12.10156
507.7784, 11.12695
508.2605, 4.046875
508.7426, 2.814453
509.2247, 9.400391
509.7068, 15.39062
510.1890, 20.20508
510.6711, 24.99609
511.1532, 30.56836
511.6353, 37.14258
512.1174, 45.53125
512.5995, 62.60352
513.0817, 78.38086
513.5638, 78.12695
514.0459, 62.25586
514.5280, 45.92969
515.0101, 41.69922
515.4922, 40.18555
515.9744, 30.89648
516.4565, 3.093750
516.9386, 14.75391
517.4207, 5.357422
517.9028, 18.55273
518.3849, 35.94727
518.8671, 42.90430
519.3492, 43.47461
519.8313, 34.59766
520.3134, 17.35547
520.7955, 12.08203
521.2776, 26.51562
521.7598, 40.98633
522.2419, 42.68164
522.7240, 28.14844
523.2061, 18.27734
523.6882, 13.41602
524.1703, 13.33789
524.6525, 20.71875
525.1346, 34.99023
525.6167, 43.84961
526.0988, 41.79688
526.5809, 35.07227
527.0630, 38.40625
527.5452, 49.05664
528.0273, 51.26562
528.5094, 22.17578
528.9915, 13.05469
529.4736, 21.52539
529.9557, 0.1113280
530.4379, 20.28906
530.9200, 16.01172
531.4021, 2.726563
531.8842, 4.207031
532.3663, 0.3085940
532.8484, 8.894531
533.3306, 27.67969
533.8127, 48.29688
534.2948, 51.82812
534.7769, 15.26562
535.2590, 12.87891
535.7411, 17.70117
536.2233, 7.0312999E-02
536.7054, 7.121094
537.1875, 0.3281250
537.6696, 10.04883
538.1517, 13.83594
538.6339, 11.08203
539.1160, 4.826172
539.5981, 6.228516
540.0802, 16.68359
540.5623, 18.98828
541.0444, 14.41797
541.5266, 10.60352
542.0087, 9.482422
542.4908, 10.66992
542.9729, 13.29297
543.4550, 16.88672
543.9371, 21.45508
544.4193, 24.76953
544.9014, 30.78516
545.3835, 45.52148
545.8656, 69.97656
546.3477, 88.81836
546.8298, 89.92383
547.3120, 86.42188
547.7941, 89.01562
548.2762, 107.1914
548.7583, 120.7754
549.2404, 128.8652
549.7225, 131.1133
550.2047, 125.8320
550.6868, 106.8633
551.1689, 92.28516
551.6510, 87.73047
552.1331, 91.70312
552.6152, 93.86523
553.0974, 94.59961
553.5795, 93.37891
554.0616, 87.83398
554.5437, 79.79883
555.0258, 79.48828
555.5079, 88.66797
555.9901, 99.89844
556.4722, 104.7363
556.9543, 106.5332
557.4364, 112.3223
557.9185, 126.6992
558.4006, 141.6914
558.8828, 148.3379
559.3649, 150.3398
559.8470, 157.3613
560.3291, 176.7695
560.8112, 197.6602
561.2933, 215.8613
561.7755, 230.7051
562.2576, 242.5547
562.7397, 248.7344
563.2218, 253.0508
563.7039, 257.1621
564.1860, 260.2930
564.6682, 266.1426
565.1503, 277.7793
565.6324, 288.8711
566.1145, 287.2559
566.5966, 271.1250
567.0787, 264.6270
567.5609, 275.4121
568.0430, 296.9238
568.5251, 318.0625
569.0072, 338.5293
569.4893, 350.0293
569.9714, 342.1074
570.4536, 325.7207
570.9357, 315.3145
571.4178, 310.9434
571.8999, 311.1660
572.3820, 318.2793
572.8641, 327.3652
573.3463, 333.7012
573.8284, 336.6660
574.3105, 337.3164
574.7926, 334.8105
575.2747, 329.8301
575.7568, 321.7168
576.2390, 309.3633
576.7211, 294.4531
577.2032, 274.0312
577.6853, 251.4277
578.1674, 239.5801
578.6495, 243.5234
579.1317, 243.8574
579.6138, 229.5547
580.0959, 203.4023
580.5780, 189.2539
581.0601, 188.1055
581.5422, 191.7969
582.0244, 200.3027
582.5065, 208.7734
582.9886, 198.3652
583.4707, 161.7969
583.9528, 129.1465
584.4349, 134.2793
584.9171, 160.8457
585.3992, 183.6133
585.8813, 197.6113
586.3634, 199.7871
586.8455, 179.7617
587.3276, 146.4766
587.8098, 124.4922
588.2919, 125.3008
588.7740, 127.6445
589.2561, 123.1680
589.7382, 111.1875
590.2203, 110.7344
590.7025, 127.3867
591.1846, 144.3125
591.6667, 151.2637
592.1488, 148.1309
592.6309, 137.1016
593.1130, 116.0547
593.5952, 92.92383
594.0773, 77.22852
594.5594, 67.70117
595.0415, 61.79492
595.5236, 59.90625
596.0057, 59.76367
596.4879, 58.07227
596.9700, 56.47266
597.4521, 57.76172
597.9342, 70.56836
598.4163, 79.26172
598.8984, 69.84375
599.3806, 45.31445
599.8627, 32.57422
600.3448, 50.71875
600.8269, 71.56445
601.3090, 80.28711
601.7911, 70.87891
602.2733, 67.10352
602.7554, 72.26367
603.2375, 80.16406
603.7196, 86.07617
604.2017, 88.50781
604.6838, 82.63672
605.1660, 66.07227
605.6481, 50.10352
606.1302, 56.43164
606.6123, 80.63086
607.0944, 101.5684
607.5765, 108.9395
608.0587, 111.9785
608.5408, 124.0723
609.0229, 141.7051
609.5050, 154.0703
609.9871, 147.0996
610.4692, 139.1211
610.9514, 143.7949
611.4335, 163.0996
611.9156, 174.2109
612.3977, 165.4688
612.8798, 152.4531
613.3619, 143.9980
613.8441, 143.4512
614.3262, 139.8242
614.8083, 131.9355
615.2904, 123.2617
615.7725, 120.1875
616.2546, 123.7480
616.7368, 117.8613
617.2189, 96.65039
617.7010, 70.26172
618.1831, 58.03320
618.6652, 57.04102
619.1473, 55.68750
619.6295, 45.87500
620.1116, 36.77930
620.5937, 34.68750
621.0758, 36.41406
621.5579, 36.38477
622.0400, 29.12500
622.5222, 23.21289
623.0043, 24.20312
623.4864, 34.18359
623.9685, 41.81250
624.4506, 47.50586
624.9327, 49.11914
625.4149, 44.15625
625.8970, 28.08594
626.3791, 18.14453
626.8612, 15.78906
627.3433, 18.21094
627.8254, 22.11328
628.3076, 27.59961
628.7897, 34.34180
629.2718, 44.76562
629.7539, 52.41797
630.2360, 41.68359
630.7181, 18.36523
631.2003, 0.3613280
631.6824, 3.173828
632.1645, 2.335938
632.6466, 18.42969
633.1287, 42.67969
633.6108, 57.53906
634.0930, 50.17188
634.5751, 38.24414
635.0572, 29.58984
635.5393, 24.92188
636.0214, 22.16992
636.5035, 22.29688
636.9857, 22.99805
637.4678, 22.52539
637.9499, 20.78711
638.4320, 16.83594
638.9141, 9.998047
639.3962, 1.458984
639.8784, 10.82422
640.3605, 24.58984
640.8426, 27.67773
641.3247, 12.23047
641.8068, 5.968750
642.2889, 7.640625
642.7711, 0.7421880
643.2532, 3.744141
643.7353, 12.58203
644.2174, 29.13477
644.6995, 35.93750
645.1816, 34.00781
645.6638, 31.62891
646.1459, 28.79297
646.6280, 26.93750
647.1101, 26.43750
647.5922, 26.78516
648.0743, 30.85156
648.5565, 40.13672
649.0386, 47.78320
649.5207, 43.89844
650.0028, 30.43359
650.4849, 28.89844
650.9670, 41.60742
651.4492, 56.10547
651.9313, 56.41797
652.4134, 49.18750
652.8955, 48.08594
653.3776, 63.05664
653.8597, 71.84961
654.3419, 52.71289
654.8240, 20.80078
655.3061, 0.9667970
655.7882, 4.001953
656.2703, 8.904297
656.7524, 9.119141
657.2346, 5.644531
657.7167, 0.5566410
658.1988, 13.54102
658.6809, 17.81445
659.1630, 2.791016
659.6451, 25.56055
660.1273, 26.98828
660.6094, 5.2733999E-02
661.0915, 22.73438
661.5736, 14.51953
662.0557, 11.24414
662.5378, 28.91602
663.0200, 36.83203
663.5021, 41.77148
663.9842, 47.31250
664.4663, 52.88867
664.9484, 57.32422
665.4305, 60.05664
665.9127, 63.43359
666.3948, 67.04688
666.8769, 72.67969
667.3590, 83.43945
667.8411, 108.6621
668.3232, 119.0762
668.8054, 109.6289
669.2875, 87.51367
669.7696, 59.88672
670.2517, 26.29492
670.7338, 6.603516
671.2159, 9.648438
671.6981, 24.98828
672.1802, 40.28320
672.6623, 53.12891
673.1444, 56.98242
673.6265, 38.40625
674.1086, 17.25391
674.5908, 9.214844
675.0729, 12.62891
675.5550, 15.40234
676.0371, 21.20703
676.5192, 19.41406
677.0013, 0.2812500
677.4835, 39.51562
677.9656, 55.53320
678.4477, 39.67383
678.9298, 14.17969
679.4119, 6.421875
679.8940, 22.55078
680.3762, 37.66211
680.8583, 53.25977
681.3404, 62.07617
681.8225, 52.06055
682.3046, 30.51953
682.7867, 13.19336
683.2689, 3.037109
683.7510, 2.369141
684.2331, 7.583984
684.7152, 8.220703
685.1973, 0.6933590
685.6794, 39.74023
686.1616, 66.47266
686.6437, 63.93555
687.1258, 47.33008
687.6079, 43.21484
688.0900, 56.03906
688.5721, 68.42188
689.0543, 76.23828
689.5364, 79.62109
690.0185, 76.07422
690.5006, 65.90234
690.9827, 60.49219
691.4648, 74.29297
691.9470, 91.64062
692.4291, 85.64844
692.9112, 60.12109
693.3933, 36.52734
693.8754, 28.58203
694.3575, 25.63672
694.8397, 18.78516
695.3218, 6.730469
695.8039, 6.878906
696.2860, 43.68750
696.7681, 72.82812
697.2502, 67.16406
697.7324, 13.87500
698.2145, 8.515625
698.6966, 8.640625
699.1787, 36.66016
699.6608, 48.80859
700.1429, 45.49609
700.6251, 31.41016
701.1072, 4.292969
701.5893, 15.66797
702.0714, 5.128906
702.5535, 22.16406
703.0356, 47.20312
703.5178, 65.76562
703.9999, 77.28906
704.4820, 74.26172
704.9641, 65.55859
705.4462, 66.23828
705.9283, 87.30469
706.4105, 100.7930
706.8926, 98.75000
707.3747, 90.06250
707.8568, 100.4531
708.3389, 132.6250
708.8210, 152.4297
709.3032, 142.5195
709.7853, 119.0977
710.2674, 115.6758
710.7495, 128.4648
711.2316, 140.0430
711.7137, 138.6484
712.1959, 134.0234
712.6780, 132.2656
713.1601, 133.0430
713.6422, 135.3438
714.1243, 138.3945
714.6064, 143.1445
715.0886, 151.2344
715.5707, 162.9883
716.0528, 167.4062
716.5349, 163.0703
717.0170, 159.3633
717.4991, 162.9102
717.9813, 171.7109
718.4634, 176.5391
718.9455, 176.0352
719.4276, 174.3203
719.9097, 171.3555
720.3918, 169.1562
720.8740, 171.9414
721.3561, 181.3281
721.8382, 190.6172
722.3203, 199.9141
722.8024, 205.7852
723.2845, 205.0000
723.7667, 187.7422
724.2488, 180.5742
724.7309, 185.4375
725.2130, 198.2070
725.6951, 218.2031
726.1772, 246.5312
726.6594, 261.2539
727.1415, 256.0391
727.6236, 242.8086
728.1057, 239.7500
728.5878, 241.9102
729.0699, 235.4414
729.5521, 208.6016
730.0342, 183.9258
730.5163, 177.4531
730.9984, 183.6367
731.4805, 192.5234
731.9626, 212.5820
732.4448, 221.7578
732.9269, 211.2031
733.4090, 188.8828
733.8911, 176.4102
734.3732, 175.7734
734.8553, 175.7500
735.3375, 169.5586
735.8196, 161.6133
736.3017, 161.4180
736.7838, 169.3477
737.2659, 183.0508
737.7480, 207.3008
738.2302, 231.4844
738.7123, 247.3516
739.1944, 254.9141
739.6765, 255.6445
740.1586, 242.0430
740.6407, 228.7539
741.1229, 223.7148
741.6050, 226.5820
742.0871, 223.7266
742.5692, 212.1953
743.0513, 203.2969
743.5334, 201.6680
744.0156, 207.4883
744.4977, 225.3477
744.9798, 255.5039
745.4619, 279.6055
745.9440, 275.4648
746.4261, 260.4219
746.9083, 257.8828
747.3904, 270.0039
747.8725, 279.6836
748.3546, 269.7305
748.8367, 260.1719
749.3188, 265.4492
749.8010, 289.3125
750.2831, 315.0000
750.7652, 351.6484
751.2473, 375.1016
751.7294, 358.1016
752.2115, 301.2969
752.6937, 268.5273
753.1758, 266.5820
753.6579, 269.8672
754.1400, 251.4219
754.6221, 221.3047
755.1042, 194.5312
755.5864, 173.1172
756.0685, 160.9102
756.5506, 169.3594
757.0327, 184.3828
757.5148, 190.7891
757.9969, 180.5859
758.4791, 172.8398
758.9612, 168.9219
759.4433, 165.3125
759.9254, 154.8594
760.4075, 136.3594
760.8896, 132.0195
761.3718, 147.3164
761.8539, 169.4531
762.3360, 187.3008
762.8181, 198.5039
763.3002, 197.1211
763.7823, 175.4648
764.2645, 152.5273
764.7466, 135.2031
765.2287, 124.4570
765.7108, 122.5195
766.1929, 144.7031
766.6750, 154.6562
767.1572, 144.4375
767.6393, 124.5977
768.1214, 115.6367
768.6035, 118.4844
769.0856, 119.2344
769.5677, 112.8828
770.0499, 105.5664
770.5320, 107.2930
771.0141, 115.3047
771.4962, 124.4648
771.9783, 136.3125
772.4604, 144.6211
772.9426, 142.1250
773.4247, 133.5039
773.9068, 129.7109
774.3889, 139.5078
774.8710, 143.4102
775.3531, 137.2422
775.8353, 123.7266
776.3174, 109.5664
776.7995, 94.87891
777.2816, 81.46094
777.7637, 68.51562
778.2458, 59.77344
778.7280, 65.69531
779.2101, 81.51172
779.6922, 92.61328
780.1743, 88.57031
780.6564, 81.37109
781.1385, 73.43750
781.6207, 67.85938
782.1028, 73.22266
782.5849, 97.94922
783.0670, 120.2109
783.5491, 133.7461
784.0313, 140.0859
784.5134, 148.7461
784.9955, 159.8164
785.4776, 161.4609
785.9597, 142.4375
786.4418, 114.7422
786.9240, 94.19531
787.4061, 80.77734
787.8882, 74.96094
788.3703, 83.27734
788.8524, 92.75000
789.3345, 99.47266
789.8167, 102.7305
790.2988, 95.63281
790.7809, 69.16406
791.2630, 51.21484
791.7451, 56.69531
792.2272, 77.66406
792.7094, 78.08984
793.1915, 58.70312
793.6736, 40.37500
794.1557, 37.46094
794.6378, 40.58203
795.1199, 38.67578
795.6021, 31.81641
796.0842, 22.49609
796.5663, 3.406250
797.0484, 10.58203
797.5305, 11.03906
798.0126, 0.3359380
798.4948, 11.35547
798.9769, 21.55469
799.4590, 32.80469
799.9411, 48.05469
800.4232, 64.63672
800.9053, 65.57812
801.3875, 52.76172
801.8696, 43.22656
802.3517, 55.31250
802.8338, 70.31641
803.3159, 61.76953
803.7980, 35.50000
804.2802, 27.35547
804.7623, 68.81250
805.2444, 108.6406
805.7265, 122.3594
806.2086, 114.3945
806.6907, 132.5391
807.1729, 185.4102
807.6550, 225.1055
808.1371, 225.3398
808.6192, 197.6992
809.1013, 166.7695
809.5834, 135.7891
810.0656, 117.3711
810.5477, 137.9688
811.0298, 159.5820
811.5119, 149.2656
811.9940, 112.6875
812.4761, 96.98047
812.9583, 134.1875
813.4404, 162.6875
813.9225, 161.0391
814.4046, 135.1914
814.8867, 119.9180
815.3688, 115.2656
815.8510, 118.3984
816.3331, 133.4766
816.8152, 151.6562
817.2973, 153.1172
817.7794, 142.4375
818.2615, 138.8125
818.7437, 156.3789
819.2258, 177.2422
819.7079, 194.4648
820.1900, 207.6250
820.6721, 218.1484
821.1542, 229.4688
821.6364, 230.2383
822.1185, 216.2266
822.6006, 189.5352
823.0827, 152.0000
823.5648, 106.7812
824.0469, 75.57031
824.5291, 81.45703
825.0112, 97.39453
825.4933, 103.0977
825.9754, 98.22656
826.4575, 81.98438
826.9396, 37.59375
827.4218, 4.277344
827.9039, 7.558594
828.3860, 1.328125
828.8681, 16.04688
829.3502, 48.54297
829.8323, 67.12109
830.3145, 55.92188
830.7966, 30.15625
831.2787, 24.45312
831.7608, 33.64844
832.2429, 40.94141
832.7250, 33.36328
833.2072, 27.37109
833.6893, 39.14062
834.1714, 59.19531
834.6535, 60.78125
835.1356, 29.07812
835.6177, 4.539063
836.0999, 4.175781
836.5820, 2.687500
837.0641, 7.085938
837.5462, 15.64844
838.0283, 7.210938
838.5104, 33.82812
838.9926, 77.99609
839.4747, 87.35938
839.9568, 77.37109
840.4389, 75.69141
840.9210, 101.8398
841.4031, 123.8242
841.8853, 128.3789
842.3674, 126.9453
842.8495, 137.3008
843.3316, 163.1484
843.8137, 179.9805
844.2958, 183.0469
844.7780, 177.3906
845.2601, 169.0039
845.7422, 157.7852
846.2243, 142.8438
846.7064, 120.4922
847.1885, 103.3086
847.6707, 103.9922
848.1528, 111.6406
848.6349, 113.8242
849.1170, 110.2578
849.5991, 99.70312
850.0812, 79.30469
850.5634, 58.21484
851.0455, 49.62891
851.5276, 51.81250
852.0097, 46.71484
852.4918, 31.26953
852.9739, 17.18750
853.4561, 14.65234
853.9382, 19.64062
854.4203, 28.25781
854.9024, 40.66016
855.3845, 52.64844
855.8666, 64.46094
856.3488, 74.19922
856.8309, 77.42578
857.3130, 71.57812
857.7951, 75.84375
858.2772, 89.94922
858.7593, 108.7344
859.2415, 134.2031
859.7236, 158.1133
860.2057, 165.8008
860.6878, 155.9023
861.1699, 143.8477
861.6520, 137.9922
862.1342, 132.2500
862.6163, 124.2695
863.0984, 114.4727
863.5805, 99.58984
864.0626, 77.85938
864.5447, 59.23047
865.0269, 56.10156
865.5090, 60.77344
865.9911, 35.31250
866.4732, 14.32031
866.9553, 49.21094
867.4374, 34.47656
867.9196, 5.652344
868.4017, 11.17969
868.8838, 17.36328
869.3659, 33.50781
869.8480, 72.10156
870.3301, 99.16016
870.8123, 99.75000
871.2944, 83.34766
871.7765, 89.87109
872.2586, 115.3828
872.7407, 126.9531
873.2228, 97.65234
873.7050, 60.66016
874.1871, 53.53125
874.6692, 64.77734
875.1513, 69.76953
875.6334, 54.51953
876.1155, 41.16797
876.5977, 35.46094
877.0798, 34.16016
877.5619, 31.90625
878.0440, 29.16797
878.5261, 22.69922
879.0082, 11.10547
879.4904, 1.109375
879.9725, 6.093750
880.4546, 7.796875
880.9367, 13.79688
881.4188, 29.70312
881.9009, 42.90625
882.3831, 50.19531
882.8652, 51.92188
883.3473, 47.73438
883.8294, 32.85547
884.3115, 29.69922
884.7936, 40.83594
885.2758, 55.07031
885.7579, 62.94531
886.2400, 64.17578
886.7221, 60.28906
887.2042, 51.59766
887.6863, 35.46094
888.1685, 4.777344
888.6506, 41.74219
889.1327, 50.01953
889.6148, 22.59375
890.0969, 14.56641
890.5790, 29.36328
891.0612, 52.67578
891.5433, 80.26953
892.0254, 108.1445
892.5075, 117.4062
892.9896, 110.3438
893.4717, 107.7539
893.9539, 134.4922
894.4360, 159.9492
894.9181, 160.6758
895.4002, 139.8984
895.8823, 122.8789
896.3644, 115.5195
896.8466, 107.3008
897.3287, 97.54688
897.8108, 85.71875
898.2929, 62.62109
898.7750, 33.11328
899.2571, 27.00000
899.7393, 73.78516
900.2214, 121.1406
900.7035, 113.5391
901.1856, 78.35547
901.6677, 61.03906
902.1498, 97.56250
902.6320, 113.1094
903.1141, 90.36719
903.5962, 58.91016
904.0783, 65.97656
904.5604, 107.3125
905.0425, 122.4727
905.5247, 99.54688
906.0068, 69.73047
906.4889, 61.39844
906.9710, 63.71094
907.4531, 65.87891
907.9352, 68.12891
908.4174, 65.84375
908.8995, 59.11719
909.3816, 48.39844
909.8637, 30.08984
910.3458, 4.472656
910.8279, 3.203125
911.3101, 7.113281
911.7922, 22.16016
912.2743, 37.53906
912.7564, 48.10938
913.2385, 42.45703
913.7206, 23.44922
914.2028, 14.47266
914.6849, 37.46094
915.1670, 53.91016
915.6491, 50.29688
916.1312, 32.55078
916.6133, 22.50781
917.0955, 20.82031
917.5776, 22.05859
918.0597, 27.54297
918.5418, 31.44531
919.0239, 19.64062
919.5060, 2.171875
919.9882, 2.273438
920.4703, 22.48828
920.9524, 47.33594
921.4345, 64.44922
921.9166, 79.82812
922.3987, 102.7734
922.8809, 133.8555
923.3630, 153.0312
923.8451, 156.3359
924.3272, 154.4219
924.8093, 156.7930
925.2914, 165.5898
925.7736, 182.7695
926.2557, 210.4609
926.7378, 230.5391
927.2199, 231.8945
927.7020, 230.3281
928.1841, 234.5312
928.6663, 244.7383
929.1484, 246.0938
929.6305, 238.1094
930.1126, 242.3711
930.5947, 286.2812
931.0768, 341.9531
931.5590, 364.8125
932.0411, 365.1484
932.5232, 384.1211
933.0053, 466.5430
933.4874, 531.7500
933.9695, 550.1680
934.4517, 543.4648
934.9338, 566.5430
935.4159, 619.6016
935.8980, 683.2148
936.3801, 753.9570
936.8622, 824.9062
937.3444, 877.9609
937.8265, 926.9648
938.3086, 994.0703
938.7907, 1093.262
939.2728, 1190.867
939.7549, 1272.031
940.2371, 1357.469
940.7192, 1467.625
941.2013, 1602.484
941.6834, 1749.516
942.1655, 1907.375
942.6476, 2059.336
943.1298, 2172.922
943.6119, 2282.809
944.0940, 2435.078
944.5761, 2632.133
945.0582, 2818.055
945.5403, 2982.656
946.0225, 3131.297
946.5046, 3251.070
946.9867, 3355.684
947.4688, 3512.656
947.9509, 3717.086
948.4330, 3927.496
948.9152, 4135.820
949.3973, 4329.207
949.8794, 4483.066
950.3615, 4615.848
950.8436, 4761.090
951.3257, 4947.945
951.8079, 5115.703
952.2900, 5264.305
952.7721, 5388.918
953.2542, 5478.508
953.7363, 5536.566
954.2184, 5591.961
954.7006, 5649.809
955.1827, 5687.199
955.6648, 5694.508
956.1469, 5668.656
956.6290, 5604.926
957.1111, 5500.664
957.5933, 5371.734
958.0754, 5213.480
958.5575, 5044.262
959.0396, 4882.371
959.5217, 4714.348
960.0038, 4478.617
960.4860, 4185.777
960.9681, 3890.117
961.4502, 3620.043
961.9323, 3358.297
962.4144, 3088.598
962.8965, 2822.363
963.3787, 2592.281
963.8608, 2413.855
964.3429, 2225.457
964.8250, 2015.625
965.3071, 1799.590
965.7892, 1582.523
966.2714, 1380.039
966.7535, 1240.805
967.2356, 1183.574
967.7177, 1117.148
968.1998, 968.5820
968.6819, 811.7148
969.1641, 702.3555
969.6462, 643.3008
970.1283, 581.2188
970.6104, 514.0859
971.0925, 452.4141
971.5746, 401.2930
972.0568, 359.5977
972.5389, 327.8242
973.0210, 303.7617
973.5031, 280.6328
973.9852, 251.2109
974.4673, 227.7070
974.9495, 216.3867
975.4316, 211.7539
975.9137, 202.4766
976.3958, 188.0000
976.8779, 188.8594
977.3600, 212.6680
977.8422, 236.4844
978.3243, 234.2891
978.8064, 219.3633
979.2885, 206.8359
979.7706, 199.2266
980.2527, 195.9609
980.7349, 199.7070
981.2170, 203.6016
981.6991, 202.8125
982.1812, 197.7969
982.6633, 189.8711
983.1454, 179.6562
983.6276, 179.9844
984.1097, 205.7930
984.5918, 237.1523
985.0739, 264.0508
985.5560, 283.5664
986.0381, 286.9492
986.5203, 266.4414
987.0024, 245.5312
987.4845, 224.1055
987.9666, 210.2305
988.4487, 225.8711
988.9308, 258.6992
989.4130, 269.9492
989.8951, 250.9141
990.3772, 231.7617
990.8593, 237.1797
991.3414, 243.9336
991.8235, 230.9062
992.3057, 196.4922
992.7878, 185.3164
993.2699, 202.1797
993.7520, 212.6797
994.2341, 187.9492
994.7162, 152.8008
995.1984, 154.0195
995.6805, 180.3516
996.1626, 200.4766
996.6447, 194.7031
997.1268, 191.8398
997.6089, 198.1367
998.0911, 210.7188
998.5732, 228.1797
999.0553, 250.4805
999.5374, 263.2500
1000.020, 264.8828
1000.502, 260.1836
1000.984, 241.9531
1001.466, 220.8906
1001.948, 209.1367
1002.430, 208.3906
1002.912, 216.1289
1003.394, 232.7031
1003.876, 247.3594
1004.359, 259.7031
1004.841, 267.3633
1005.323, 253.8594
1005.805, 224.3242
1006.287, 204.0430
1006.769, 215.5078
1007.251, 225.2227
1007.733, 200.3320
1008.216, 171.5547
1008.698, 183.9648
1009.180, 257.9883
1009.662, 295.3672
1010.144, 286.9766
1010.626, 263.1875
1011.108, 241.4453
1011.590, 225.5820
1012.072, 217.8047
1012.555, 218.4688
1013.037, 231.4766
1013.519, 277.4531
1014.001, 312.3672
1014.483, 320.6367
1014.965, 309.4453
1015.447, 302.0195
1015.929, 297.2461
1016.411, 282.0898
1016.894, 246.0938
1017.376, 213.0039
1017.858, 210.1875
1018.340, 219.8984
1018.822, 218.9375
1019.304, 198.2734
1019.786, 184.8906
1020.268, 182.5820
1020.751, 179.3867
1021.233, 162.4766
1021.715, 139.0000
1022.197, 129.3867
1022.679, 132.1250
1023.161, 132.7617
1023.643, 115.0508
1024.125, 103.8984
1024.607, 111.3633
1025.090, 130.5703
1025.572, 149.4102
1026.054, 167.9062
1026.536, 183.9180
1027.018, 197.6484
1027.500, 206.3477
1027.982, 210.1250
1028.464, 205.3867
1028.947, 183.8008
1029.429, 138.1992
1029.911, 111.9023
1030.393, 121.2656
1030.875, 125.8828
1031.357, 100.2266
1031.839, 57.45703
1032.321, 35.66406
1032.803, 35.57422
1033.286, 58.65234
1033.768, 144.6797
1034.250, 209.3828
1034.732, 195.5859
1035.214, 147.6992
1035.696, 129.7148
1036.178, 146.4258
1036.660, 166.7188
1037.143, 190.5898
1037.625, 201.4375
1038.107, 163.5820
1038.589, 116.4375
1039.071, 116.1523
1039.553, 163.0273
1040.035, 197.4648
1040.517, 203.7305
1041.000, 199.0312
1041.482, 183.2383
1041.964, 164.4180
1042.446, 163.2891
1042.928, 176.3789
1043.410, 187.9805
1043.892, 195.0586
1044.374, 197.1836
1044.856, 203.4141
1045.339, 197.2461
1045.821, 156.7227
1046.303, 71.99609
1046.785, 34.55469
1047.267, 47.85156
1047.749, 78.12500
1048.231, 116.7188
1048.713, 148.7969
1049.195, 149.2891
1049.677, 126.5781
1050.160, 104.7383
1050.642, 73.30078
1051.124, 70.85938
1051.606, 115.7578
1052.088, 168.9062
1052.570, 171.3203
1053.052, 135.7578
1053.534, 109.1484
1054.017, 96.89844
1054.499, 92.75000
1054.981, 104.7461
1055.463, 112.9180
1055.945, 105.5078
1056.427, 83.89062
1056.909, 46.25391
1057.391, 9.589844
1057.874, 48.01172
1058.356, 49.42188
1058.838, 42.32031
1059.320, 70.69531
1059.802, 108.9844
1060.284, 118.4336
1060.766, 69.91406
1061.248, 41.98047
1061.730, 47.48047
1062.213, 53.47266
1062.695, 33.15625
1063.177, 4.925781
1063.659, 35.04688
1064.141, 56.11328
1064.623, 63.91797
1065.105, 32.57031
1065.587, 13.19922
1066.070, 45.08203
1066.552, 89.78125
1067.034, 79.10547
1067.516, 9.562500
1067.998, 10.82031
1068.480, 34.46484
1068.962, 86.16016
1069.444, 94.58203
1069.927, 81.96484
1070.409, 67.26562
1070.891, 52.28906
1071.373, 35.13672
1071.855, 16.33984
1072.337, 2.281250
1072.819, 22.37500
1073.301, 35.96094
1073.783, 21.71094
1074.266, 7.917969
1074.748, 26.11719
1075.230, 20.37109
1075.712, 15.16406
1076.194, 18.19531
1076.676, 23.80078
1077.158, 29.07031
1077.640, 33.76953
1078.122, 39.90625
1078.604, 46.58594
1079.087, 47.05859
1079.569, 26.28516
1080.051, 9.667969
1080.533, 16.15625
1081.015, 35.04297
1081.497, 46.57812
1081.979, 47.35547
1082.461, 53.54688
1082.944, 67.21484
1083.426, 78.85938
1083.908, 75.09766
1084.390, 66.61328
1084.872, 69.64062
1085.354, 83.50781
1085.836, 84.77344
1086.318, 58.91406
1086.801, 44.70703
1087.283, 55.31250
1087.765, 76.69141
1088.247, 84.56250
1088.729, 82.22266
1089.211, 75.61719
1089.693, 64.04688
1090.175, 58.95703
1090.657, 71.97266
1091.140, 85.70703
1091.622, 90.94141
1092.104, 88.12500
1092.586, 80.45703
1093.068, 68.63672
1093.550, 61.15234
1094.032, 64.19531
1094.514, 69.74609
1094.997, 76.27344
1095.479, 79.62500
1095.961, 74.02344
1096.443, 55.90234
1096.925, 40.46484
1097.407, 27.00781
1097.889, 21.92188
1098.371, 30.00000
1098.854, 49.00000
1099.336, 84.86719
1099.818, 130.4844
1100.300, 158.6914
1100.782, 163.6016
1101.264, 146.6250
1101.746, 98.10547
1102.228, 46.84766
1102.710, 37.09766
1103.193, 54.07422
1103.675, 56.96875
1104.157, 41.29297
1104.639, 44.05078
1105.121, 122.5586
1105.603, 174.3750
1106.085, 149.3867
1106.567, 77.69922
1107.049, 52.42578
1107.531, 68.52344
1108.014, 86.81250
1108.496, 97.58594
1108.978, 105.3672
1109.460, 94.80859
1109.942, 95.98828
1110.424, 149.4297
1110.906, 259.5312
1111.388, 282.4102
1111.871, 211.4023
1112.353, 147.9258
1112.835, 154.7383
1113.317, 179.0820
1113.799, 153.8008
1114.281, 109.7695
1114.763, 100.6445
1115.245, 169.7070
1115.728, 194.7070
1116.210, 168.4531
1116.692, 134.6523
1117.174, 123.4570
1117.656, 128.2812
1118.138, 147.3398
1118.620, 178.5547
1119.102, 200.4570
1119.584, 190.6289
1120.067, 185.2773
1120.549, 192.0156
1121.031, 204.2305
1121.513, 217.5234
1121.995, 224.9844
1122.477, 194.6016
1122.959, 124.5117
1123.441, 72.28125
1123.924, 91.94922
1124.406, 110.1953
1124.888, 89.35547
1125.370, 47.80859
1125.852, 41.12500
1126.334, 68.89844
1126.816, 88.67969
1127.298, 92.94922
1127.781, 82.37500
1128.263, 44.50000
1128.745, 3.093750
1129.227, 20.73438
1129.709, 27.64062
1130.191, 39.38281
1130.673, 56.74219
1131.155, 70.41406
1131.637, 76.91016
1132.120, 73.12500
1132.602, 54.44531
1133.084, 27.71094
1133.566, 2.511719
1134.048, 18.88281
1134.530, 45.28516
1135.012, 80.00391
1135.494, 104.2148
1135.976, 95.67188
1136.458, 76.44531
1136.941, 86.88672
1137.423, 114.6797
1137.905, 130.1328
1138.387, 111.4336
1138.869, 104.1523
1139.351, 110.7188
1139.833, 126.0508
1140.315, 147.5273
1140.798, 172.7383
1141.280, 202.2734
1141.762, 232.6758
1142.244, 242.5469
1142.726, 201.6875
1143.208, 166.9023
1143.690, 150.2422
1144.172, 146.3008
1144.655, 153.2383
1145.137, 166.6836
1145.619, 169.8594
1146.101, 160.9492
1146.583, 149.1562
1147.065, 132.7695
1147.547, 125.1250
1148.029, 140.8320
1148.511, 166.1680
1148.994, 151.2344
1149.476, 102.7695
1149.958, 80.59375
1150.440, 100.6406
1150.922, 137.6367
1151.404, 188.5586
1151.886, 235.2188
1152.368, 259.6016
1152.851, 264.1953
1153.333, 279.9844
1153.815, 306.1445
1154.297, 329.6445
1154.779, 346.3477
1155.261, 354.3008
1155.743, 342.3477
1156.225, 325.1289
1156.708, 321.6016
1157.190, 335.5273
1157.672, 336.5781
1158.154, 324.2930
1158.636, 307.1602
1159.118, 293.2695
1159.600, 274.9844
1160.082, 229.2070
1160.564, 178.6914
1161.047, 165.8008
1161.529, 224.3594
1162.011, 254.9453
1162.493, 254.8281
1162.975, 240.9727
1163.457, 220.2227
1163.939, 197.7930
1164.421, 174.7852
1164.903, 155.5703
1165.385, 154.3594
1165.868, 186.8711
1166.350, 211.6133
1166.832, 225.1055
1167.314, 226.9609
1167.796, 208.3789
1168.278, 180.9727
1168.760, 160.3789
1169.242, 149.5195
1169.725, 158.1758
1170.207, 217.8789
1170.689, 256.4023
1171.171, 259.0625
1171.653, 245.2070
1172.135, 234.4023
1172.617, 230.3438
1173.099, 250.5234
1173.582, 295.5898
1174.064, 318.0664
1174.546, 266.1445
1175.028, 235.1289
1175.510, 258.4219
1175.992, 303.3398
1176.474, 296.5469
1176.956, 256.7500
1177.438, 244.2500
1177.921, 275.3398
1178.403, 286.9023
1178.885, 215.3594
1179.367, 164.8359
1179.849, 183.8477
1180.331, 248.7266
1180.813, 294.9961
1181.295, 322.3906
1181.778, 324.3750
1182.260, 290.0859
1182.742, 264.6016
1183.224, 270.3242
1183.706, 290.4922
1184.188, 321.8867
1184.670, 358.9219
1185.152, 361.8320
1185.635, 337.3125
1186.117, 322.5977
1186.599, 332.7969
1187.081, 351.0234
1187.563, 393.6484
1188.045, 418.8906
1188.527, 381.5391
1189.009, 290.7969
1189.491, 273.4531
1189.974, 321.2656
1190.456, 370.6094
1190.938, 399.7969
1191.420, 409.3281
1191.902, 384.0781
1192.384, 349.0703
1192.866, 329.0391
1193.348, 324.2500
1193.830, 321.1250
1194.313, 319.5625
1194.795, 320.5312
1195.277, 329.1641
1195.759, 334.9453
1196.241, 323.3203
1196.723, 310.6016
1197.205, 326.9219
1197.687, 374.5703
1198.169, 361.6094
1198.652, 286.8438
1199.134, 222.8438
1199.616, 237.3828
1200.098, 258.8203
1200.580, 237.3984
1201.062, 198.9922
1201.544, 190.7734
1202.026, 214.1094
1202.509, 214.9062
1202.991, 187.9531
1203.473, 175.4531
1203.955, 222.9922
1204.437, 279.4219
1204.919, 317.9062
1205.401, 338.1016
1205.883, 336.4766
1206.365, 311.9609
1206.848, 289.3125
1207.330, 271.0312
1207.812, 260.2422
1208.294, 262.6797
1208.776, 268.0156
1209.258, 268.7891
1209.740, 268.8906
1210.222, 275.9531
1210.705, 290.2812
1211.187, 294.7109
1211.669, 285.8984
1212.151, 276.1406
1212.633, 279.8828
1213.115, 283.3359
1213.597, 276.4922
1214.079, 261.3516
1214.562, 238.1641
1215.044, 207.9219
1215.526, 194.7578
1216.008, 207.0859
1216.490, 222.7578
1216.972, 218.1016
1217.454, 214.5391
1217.936, 230.7891
1218.418, 261.0000
1218.901, 276.5938
1219.383, 277.8672
1219.865, 282.7812
1220.347, 298.8984
1220.829, 307.4297
1221.311, 286.6641
1221.793, 258.9531
1222.275, 241.7188
1222.757, 233.8281
1223.240, 229.0938
1223.722, 226.6094
1224.204, 202.8984
1224.686, 139.6953
1225.168, 88.31250
1225.650, 102.8594
1226.132, 127.4141
1226.614, 117.8906
1227.096, 78.82812
1227.579, 38.69531
1228.061, 0.3046880
1228.543, 9.328125
1229.025, 33.26562
1229.507, 73.45312
1229.989, 71.67188
1230.471, 59.53125
1230.953, 60.88281
1231.436, 73.61719
1231.918, 85.03906
1232.400, 94.32812
1232.882, 97.39062
1233.364, 88.83594
1233.846, 81.20312
1234.328, 84.83594
1234.810, 88.45312
1235.292, 80.15625
1235.775, 63.92969
1236.257, 83.03906
1236.739, 127.6562
1237.221, 143.1406
1237.703, 74.29688
1238.185, 24.09375
1238.667, 43.88281
1239.149, 84.77344
1239.632, 118.6094
1240.114, 144.0703
1240.596, 158.2969
1241.078, 162.3906
1241.560, 163.0625
1242.042, 158.5859
1242.524, 157.0312
1243.006, 161.3438
1243.489, 167.0547
1243.971, 173.6406
1244.453, 178.5234
1244.935, 159.1172
1245.417, 126.1953
1245.899, 116.2188
1246.381, 177.8984
1246.863, 213.7344
1247.345, 202.1484
1247.828, 178.3750
1248.310, 171.3359
1248.792, 175.5547
1249.274, 171.5312
1249.756, 165.4375
1250.238, 178.0703
1250.720, 255.6016
1251.202, 288.9453
1251.684, 257.9219
1252.167, 211.5391
1252.649, 186.1641
1253.131, 177.4531
1253.613, 184.6250
1254.095, 200.9219
1254.577, 206.3047
1255.059, 181.1484
1255.541, 170.5078
1256.023, 177.6406
1256.506, 193.9922
1256.988, 225.1953
1257.470, 252.9375
1257.952, 245.4531
1258.434, 213.2109
1258.916, 187.6094
1259.398, 176.6719
1259.880, 159.7109
1260.363, 132.5078
1260.845, 122.1016
1261.327, 186.4922
1261.809, 249.7344
1262.291, 211.2266
1262.773, 111.4609
1263.255, 67.64844
1263.737, 102.4766
1264.219, 93.50781
1264.702, 28.91406
1265.184, 29.32031
1265.666, 18.16406
1266.148, 3.656250
1266.630, 24.08594
1267.112, 68.03906
1267.594, 52.00781
1268.076, 30.71094
1268.559, 74.89062
1269.041, 73.92188
1269.523, 60.75000
1270.005, 50.68750
1270.487, 43.31250
1270.969, 42.22656
1271.451, 40.60156
1271.933, 20.06250
1272.416, 15.55469
1272.898, 2.773438
1273.380, 57.29688
1273.862, 108.9375
1274.344, 118.5234
1274.826, 113.6562
1275.308, 98.57812
1275.790, 82.31250
1276.272, 75.78125
1276.755, 77.89062
1277.237, 90.82031
1277.719, 111.1953
1278.201, 117.7891
1278.683, 79.32812
1279.165, 57.84375
1279.647, 66.94531
1280.129, 91.45312
1280.611, 129.6719
1281.094, 165.1953
1281.576, 154.0391
1282.058, 104.4766
1282.540, 66.29688
1283.022, 52.56250
1283.504, 51.14062
1283.986, 60.17969
1284.468, 73.49219
1284.950, 70.30469
1285.433, 74.45312
1285.915, 76.71094
1286.397, 78.84375
1286.879, 89.50000
1287.361, 116.2812
1287.843, 114.8984
1288.325, 76.38281
1288.807, 45.07812
1289.290, 70.83594
1289.772, 110.1719
1290.254, 132.5469
1290.736, 136.3125
1291.218, 120.3203
1291.700, 81.28125
1292.182, 63.57031
1292.664, 69.54688
1293.146, 89.04688
1293.629, 134.1172
1294.111, 169.7891
1294.593, 171.0703
1295.075, 152.4453
1295.557, 123.5703
1296.039, 87.44531
1296.521, 72.33594
1297.003, 75.96875
1297.486, 75.94531
1297.968, 64.99219
1298.450, 56.60938
1298.932, 62.24219
1299.414, 65.42188
1299.896, 37.63281
1300.378, 2.234375
1300.860, 4.929688
1301.343, 29.24219
1301.825, 0.0000000E+00
##END=



