##NAMES=Berzelianite
##RRUFFID=R110159
##IDEAL CHEMISTRY=Cu_2-x_Se (x &#8776; 0.12)
##LOCALITY=Facebaja, Romania
##OWNER=RRUFF
##SOURCE=Mark N Feinglos
##DESCRIPTION=Black metallic euhedral grains, associated with pale-yellow sulfur crystals.
##STATUS=The identification of this mineral has been confirmed only by single crystal X-ray diffraction.
##URL=rruff.info/R110159
159.5820, 0.0000000E+00
160.0641, 0.1915970
160.5462, 4.8600002E-03
161.0283, 0.8189090
161.5104, 1.800270
161.9926, 2.189247
162.4747, 1.870270
162.9568, 1.359756
163.4389, 1.473915
163.9210, 1.543236
164.4031, 1.746559
164.8853, 2.425217
165.3674, 3.114418
165.8495, 2.922913
166.3316, 1.408691
166.8137, 0.1073000
167.2958, 0.2157520
167.7780, 0.7688670
168.2601, 1.809914
168.7422, 2.418236
169.2243, 2.685265
169.7064, 2.986794
170.1885, 3.466484
170.6707, 3.834404
171.1528, 3.935120
171.6349, 3.786270
172.1170, 3.475296
172.5991, 2.971169
173.0812, 2.254364
173.5634, 1.758934
174.0455, 1.594864
174.5276, 1.607872
175.0097, 1.864677
175.4918, 2.295959
175.9739, 2.679749
176.4561, 2.718391
176.9382, 2.228699
177.4203, 2.019089
177.9024, 2.239677
178.3845, 2.585716
178.8666, 2.987961
179.3488, 3.391075
179.8309, 3.692955
180.3130, 3.729088
180.7951, 3.287453
181.2772, 3.060867
181.7593, 3.101227
182.2415, 3.292778
182.7236, 3.643898
183.2057, 4.125839
183.6878, 4.556480
184.1699, 4.627350
184.6520, 3.985764
185.1342, 3.689453
185.6163, 4.070625
186.0984, 4.672554
186.5805, 5.014801
187.0626, 4.960594
187.5447, 4.704933
188.0269, 4.524048
188.5090, 4.420120
188.9911, 4.385925
189.4732, 4.548592
189.9553, 4.756287
190.4374, 4.694931
190.9196, 4.225212
191.4017, 3.674133
191.8838, 3.521973
192.3659, 3.802681
192.8480, 4.105774
193.3301, 4.328705
193.8123, 4.443977
194.2944, 4.285446
194.7765, 3.559540
195.2586, 2.834549
195.7407, 2.746048
196.2228, 3.282951
196.7050, 3.870522
197.1871, 4.067345
197.6692, 3.895134
198.1513, 3.780724
198.6334, 3.840912
199.1155, 3.990822
199.5977, 4.214691
200.0798, 4.513870
200.5619, 4.760155
201.0440, 4.805710
201.5261, 4.619370
202.0082, 4.403770
202.4904, 3.950981
202.9725, 3.627975
203.4546, 3.758804
203.9367, 4.311012
204.4188, 4.952835
204.9009, 5.244011
205.3831, 4.912979
205.8652, 4.520676
206.3473, 3.827133
206.8294, 3.329765
207.3115, 3.511169
207.7936, 4.171883
208.2758, 4.962723
208.7579, 5.213257
209.2400, 4.489975
209.7221, 3.846237
210.2042, 3.240562
210.6863, 2.772095
211.1685, 2.542213
211.6506, 2.627380
212.1327, 2.786819
212.6148, 2.987839
213.0969, 3.452171
213.5790, 3.525009
214.0612, 2.893044
214.5433, 2.133781
215.0254, 1.772499
215.5075, 1.952751
215.9896, 2.472107
216.4717, 2.963646
216.9539, 3.468193
217.4360, 3.648567
217.9181, 3.194565
218.4002, 2.515465
218.8823, 1.924156
219.3644, 1.493019
219.8466, 1.328835
220.3287, 1.719719
220.8108, 2.837250
221.2929, 3.512131
221.7750, 3.192413
222.2571, 2.500778
222.7393, 2.276428
223.2214, 2.747925
223.7035, 3.392357
224.1856, 3.492821
224.6677, 3.078354
225.1498, 2.668480
225.6320, 2.442299
226.1141, 2.303635
226.5962, 2.108208
227.0783, 1.815796
227.5604, 1.516251
228.0425, 1.265450
228.5247, 1.080566
229.0068, 1.030701
229.4889, 1.182434
229.9710, 1.413109
230.4531, 1.451870
230.9352, 1.170033
231.4174, 0.9182890
231.8995, 1.015701
232.3816, 1.360241
232.8637, 1.683094
233.3458, 1.881889
233.8279, 1.962700
234.3101, 1.903294
234.7922, 1.563374
235.2743, 1.327183
235.7564, 1.534454
236.2385, 1.990688
236.7206, 2.289417
237.2028, 2.067814
237.6849, 1.499580
238.1670, 1.363037
238.6491, 2.008701
239.1312, 2.566906
239.6133, 2.670811
240.0955, 2.462513
240.5776, 2.167236
241.0597, 1.879452
241.5418, 1.620850
242.0239, 1.519020
242.5060, 1.711411
242.9882, 1.876587
243.4703, 1.790558
243.9524, 1.643318
244.4345, 1.773884
244.9166, 2.452583
245.3987, 3.474926
245.8809, 3.820580
246.3630, 2.816616
246.8451, 1.964966
247.3272, 1.732361
247.8093, 1.784550
248.2914, 1.633965
248.7736, 0.9922520
249.2557, 4.5249999E-02
249.7378, 0.4336660
250.2199, 1.4935000E-02
250.7020, 0.3745120
251.1841, 0.6489560
251.6663, 0.8190730
252.1484, 0.9206090
252.6305, 0.9726640
253.1126, 0.9451330
253.5947, 0.7273670
254.0768, 0.1123770
254.5590, 0.6077800
255.0411, 0.4312860
255.5232, 1.1478000E-02
256.0053, 0.2529680
256.4874, 9.6573003E-02
256.9695, 0.2844160
257.4517, 0.4713860
257.9338, 0.3095630
258.4159, 0.1159740
258.8980, 0.1314350
259.3801, 0.3978350
259.8622, 0.6647340
260.3444, 0.9238550
260.8265, 1.147423
261.3086, 1.289761
261.7907, 1.429497
262.2728, 1.334282
262.7549, 0.6281170
263.2371, 0.1368790
263.7192, 0.2951280
264.2013, 0.3106120
264.6834, 1.127689
265.1655, 1.305237
265.6476, 0.4276050
266.1298, 9.6450999E-02
266.6119, 3.1643000E-02
267.0940, 0.3830910
267.5761, 0.4667930
268.0582, 0.2110520
268.5403, 4.3720002E-03
269.0225, 0.3354000
269.5046, 1.442215
269.9867, 2.101624
270.4688, 2.110203
270.9509, 1.770718
271.4330, 1.173759
271.9152, 0.3670880
272.3973, 0.2796520
272.8794, 0.3478620
273.3615, 0.2219240
273.8436, 0.6272390
274.3257, 0.7521440
274.8079, 0.7820400
275.2900, 0.8641890
275.7721, 1.002453
276.2542, 1.104237
276.7363, 1.091988
277.2184, 0.9755060
277.7006, 0.8846170
278.1827, 0.8451580
278.6648, 0.8195530
279.1469, 0.7947540
279.6290, 0.7630880
280.1111, 0.6635060
280.5933, 0.3710060
281.0754, 3.1918000E-02
281.5575, 8.2050003E-02
282.0396, 0.8212780
282.5217, 1.561050
283.0038, 1.898270
283.4860, 1.880856
283.9681, 1.745007
284.4502, 1.593384
284.9323, 1.376404
285.4144, 0.9444050
285.8965, 8.4311999E-02
286.3787, 0.4830510
286.8608, 0.1550900
287.3429, 0.8435170
287.8250, 1.711426
288.3071, 2.212185
288.7892, 2.418644
289.2714, 2.444218
289.7535, 2.286877
290.2356, 2.057262
290.7177, 1.695850
291.1998, 1.311680
291.6819, 1.167217
292.1641, 1.372410
292.6462, 1.705780
293.1283, 2.026024
293.6104, 2.330250
294.0925, 2.421242
294.5746, 1.996403
295.0568, 1.338982
295.5389, 1.061459
296.0210, 1.326199
296.5031, 1.707447
296.9852, 1.869957
297.4673, 1.859726
297.9495, 1.765293
298.4316, 1.545830
298.9137, 1.285458
299.3958, 1.116634
299.8779, 1.055840
300.3600, 1.026325
300.8422, 1.021683
301.3243, 1.005733
301.8064, 0.8950810
302.2885, 0.5282630
302.7706, 0.2006450
303.2527, 0.3694310
303.7349, 1.079063
304.2170, 1.597073
304.6991, 1.417850
305.1812, 0.9225160
305.6633, 0.6079060
306.1454, 0.5354920
306.6276, 0.6386570
307.1097, 0.9318810
307.5918, 1.389103
308.0739, 1.791641
308.5560, 2.069511
309.0381, 2.185226
309.5203, 2.059486
310.0024, 1.657085
310.4845, 1.344540
310.9666, 1.460800
311.4487, 1.912434
311.9308, 2.210251
312.4130, 2.217220
312.8951, 2.111210
313.3772, 2.071407
313.8593, 2.069016
314.3414, 1.983742
314.8235, 1.681641
315.3057, 1.254635
315.7878, 0.9348140
316.2699, 0.7651370
316.7520, 0.6532400
317.2341, 0.5487860
317.7162, 0.4417190
318.1984, 0.3060230
318.6805, 2.0519000E-02
319.1626, 0.2483520
319.6447, 0.1770780
320.1268, 0.3026310
320.6089, 0.7623670
321.0911, 0.9163130
321.5732, 0.9060130
322.0553, 0.9470020
322.5374, 1.114216
323.0195, 1.214005
323.5016, 0.9148980
323.9838, 0.1977620
324.4659, 0.2325250
324.9480, 3.7937000E-02
325.4301, 0.6302680
325.9122, 1.120605
326.3943, 1.507679
326.8765, 1.709461
327.3586, 1.537338
327.8407, 1.056137
328.3228, 0.6845630
328.8049, 0.5254630
329.2870, 0.4975740
329.7692, 0.5305250
330.2513, 0.5952070
330.7334, 0.6425060
331.2155, 0.6667140
331.6976, 0.6606180
332.1797, 0.6444590
332.6619, 0.6079250
333.1440, 0.5940820
333.6261, 0.6920700
334.1082, 0.8458330
334.5903, 0.9101750
335.0724, 0.7463230
335.5546, 0.5163420
336.0367, 0.4676670
336.5188, 0.6239660
337.0009, 0.7245370
337.4830, 0.5714490
337.9651, 0.2769360
338.4473, 4.2849999E-02
338.9294, 0.1409950
339.4115, 0.2164730
339.8936, 5.1300000E-02
340.3757, 0.3035510
340.8578, 0.5264510
341.3400, 0.4330900
341.8221, 0.2135050
342.3042, 0.1577450
342.7863, 0.2793010
343.2684, 0.4604450
343.7505, 0.6570210
344.2327, 0.8371930
344.7148, 1.045616
345.1969, 1.312336
345.6790, 1.524414
346.1611, 1.601730
346.6432, 1.556862
347.1254, 1.304668
347.6075, 0.5690310
348.0896, 0.2639880
348.5717, 0.7056010
349.0538, 0.7111740
349.5359, 0.4929350
350.0181, 9.0534002E-02
350.5002, 0.4215930
350.9823, 0.7210010
351.4644, 0.5905000
351.9465, 0.4111980
352.4286, 0.4844320
352.9108, 0.7505460
353.3929, 0.9168890
353.8750, 0.8103490
354.3571, 0.5508500
354.8392, 0.4396020
355.3214, 0.5191150
355.8035, 0.6198580
356.2856, 0.6971400
356.7677, 0.7517170
357.2498, 0.7945140
357.7319, 0.8337360
358.2141, 0.8333170
358.6962, 0.7071080
359.1783, 0.4140090
359.6604, 0.2576260
360.1425, 0.3408740
360.6246, 0.5293430
361.1068, 0.7525900
361.5889, 0.9912680
362.0710, 1.146816
362.5531, 1.098049
363.0352, 0.8526690
363.5173, 0.8080370
363.9995, 1.147011
364.4816, 1.487740
364.9637, 1.701149
365.4458, 1.775665
365.9279, 1.678986
366.4100, 1.375145
366.8922, 0.9317440
367.3743, 0.5740970
367.8564, 0.3541180
368.3385, 0.1359710
368.8206, 0.2054330
369.3027, 0.5045240
369.7849, 0.5213740
370.2670, 0.2009930
370.7491, 0.2455480
371.2312, 0.5304490
371.7133, 0.5950620
372.1954, 0.6523820
372.6776, 0.6970140
373.1597, 0.7376290
373.6418, 0.8180850
374.1239, 0.9118160
374.6060, 0.9089130
375.0881, 0.6948390
375.5703, 0.2829740
376.0524, 0.1090890
376.5345, 0.3944090
377.0166, 0.6431960
377.4987, 0.7022320
377.9808, 0.6968610
378.4630, 0.8322790
378.9451, 1.207802
379.4272, 1.677143
379.9093, 1.886234
380.3914, 1.656586
380.8735, 1.450256
381.3557, 1.237698
381.8378, 1.079758
382.3199, 1.041477
382.8020, 1.137993
383.2841, 1.268494
383.7662, 1.336437
384.2484, 1.338856
384.7305, 1.284161
385.2126, 1.050861
385.6947, 0.8762860
386.1768, 0.8685110
386.6589, 0.9758110
387.1411, 1.103146
387.6232, 1.212990
388.1053, 1.271690
388.5874, 1.112392
389.0695, 0.4841120
389.5516, 0.1226880
390.0338, 0.2835310
390.5159, 0.6954610
390.9980, 1.235111
391.4801, 1.859390
391.9622, 2.274330
392.4443, 1.963173
392.9265, 0.8161580
393.4086, 1.8154001E-02
393.8907, 7.8854002E-02
394.3728, 3.7510000E-02
394.8549, 0.1193770
395.3370, 0.1684230
395.8192, 0.2500530
396.3013, 0.3780860
396.7834, 0.5680660
397.2655, 0.9373440
397.7476, 1.613449
398.2297, 2.160942
398.7119, 2.298393
399.1940, 2.185825
399.6761, 1.955959
400.1582, 1.543427
400.6403, 1.242691
401.1224, 1.513134
401.6046, 2.308647
402.0867, 2.794025
402.5688, 2.611370
403.0509, 2.121143
403.5330, 1.699211
404.0151, 1.338173
404.4973, 1.179348
404.9794, 1.457592
405.4615, 1.929897
405.9436, 2.149937
406.4257, 2.036751
406.9078, 1.827282
407.3900, 1.677513
407.8721, 1.590771
408.3542, 1.536736
408.8363, 1.449699
409.3184, 1.450844
409.8005, 1.750862
410.2827, 2.234638
410.7648, 2.463676
411.2469, 2.191788
411.7290, 1.663429
412.2111, 1.449867
412.6932, 1.675716
413.1754, 1.848598
413.6575, 1.841599
414.1396, 1.764507
414.6217, 1.724586
415.1038, 1.741989
415.5859, 1.788696
416.0681, 1.840752
416.5502, 1.899570
417.0323, 1.944798
417.5144, 1.951054
417.9965, 1.972038
418.4786, 2.026127
418.9608, 2.111282
419.4429, 2.225029
419.9250, 2.367203
420.4071, 2.527466
420.8892, 2.679958
421.3713, 2.858688
421.8535, 2.971695
422.3356, 3.107792
422.8177, 3.122299
423.2998, 2.755375
423.7819, 2.064964
424.2640, 1.499390
424.7462, 1.605267
425.2283, 2.456493
425.7104, 2.873116
426.1925, 2.304577
426.6746, 1.879234
427.1567, 2.028679
427.6389, 2.507984
428.1210, 2.935371
428.6031, 3.126171
429.0852, 3.131729
429.5673, 3.007339
430.0494, 2.670185
430.5316, 2.500244
431.0137, 2.749527
431.4958, 3.090694
431.9779, 3.433533
432.4600, 3.729771
432.9421, 3.743359
433.4243, 2.952301
433.9064, 1.656013
434.3885, 1.247669
434.8706, 2.091141
435.3527, 3.123363
435.8348, 3.787125
436.3170, 4.159889
436.7991, 4.307632
437.2812, 4.100498
437.7633, 3.876133
438.2454, 4.009132
438.7275, 4.443901
439.2097, 4.793617
439.6918, 4.921185
440.1739, 4.911243
440.6560, 4.891281
441.1381, 4.871975
441.6202, 4.770065
442.1024, 4.480980
442.5845, 4.142075
443.0666, 3.906052
443.5487, 3.786415
444.0308, 3.723095
444.5129, 3.654392
444.9951, 3.601116
445.4772, 3.752525
445.9593, 4.407806
446.4414, 4.846249
446.9235, 4.723026
447.4056, 4.296768
447.8878, 3.917076
448.3699, 3.717922
448.8520, 3.702179
449.3341, 3.843353
449.8162, 4.178185
450.2983, 4.509659
450.7805, 4.883553
451.2626, 5.213203
451.7447, 5.479469
452.2268, 5.670307
452.7089, 5.726276
453.1910, 5.552647
453.6732, 5.251057
454.1553, 5.376495
454.6374, 6.443588
455.1195, 7.047943
455.6016, 6.732327
456.0837, 6.080948
456.5659, 5.476749
457.0480, 5.027592
457.5301, 4.820148
458.0122, 5.083672
458.4943, 5.779346
458.9764, 6.106075
459.4586, 5.789291
459.9407, 5.478813
460.4228, 5.593613
460.9049, 5.932156
461.3870, 6.124496
461.8691, 5.990341
462.3513, 5.791348
462.8334, 5.807281
463.3155, 5.988071
463.7976, 6.017097
464.2797, 5.748096
464.7618, 5.373226
465.2440, 5.098074
465.7261, 4.922321
466.2082, 4.920261
466.6903, 5.242958
467.1724, 5.655951
467.6545, 5.909348
468.1367, 5.971443
468.6188, 5.818218
469.1009, 5.345058
469.5830, 4.677774
470.0651, 4.439632
470.5472, 5.040453
471.0294, 5.523010
471.5115, 5.567154
471.9936, 5.345409
472.4757, 4.989502
472.9578, 4.568241
473.4399, 4.320868
473.9221, 4.610159
474.4042, 5.635878
474.8863, 6.020630
475.3684, 5.088257
475.8505, 4.331911
476.3326, 4.440510
476.8148, 5.046471
477.2969, 5.493622
477.7790, 5.461369
478.2611, 5.153751
478.7432, 4.997761
479.2253, 5.050028
479.7075, 5.096651
480.1896, 5.282040
480.6717, 5.315071
481.1538, 4.867584
481.6359, 4.065546
482.1180, 3.438313
482.6002, 3.447035
483.0823, 3.857918
483.5644, 3.974398
484.0465, 3.702349
484.5286, 3.481503
485.0107, 3.604488
485.4929, 3.830309
485.9750, 3.844482
486.4571, 3.570486
486.9392, 3.324001
487.4213, 3.423019
487.9034, 3.669050
488.3856, 3.543287
488.8677, 2.917820
489.3498, 2.308153
489.8319, 2.236950
490.3140, 2.644165
490.7961, 2.673737
491.2783, 1.784094
491.7604, 1.092474
492.2425, 1.311203
492.7246, 2.046381
493.2067, 2.561716
493.6888, 2.597889
494.1710, 2.378157
494.6531, 2.237837
495.1352, 2.212305
495.6173, 2.156792
496.0994, 2.058533
496.5815, 1.947510
497.0637, 1.832159
497.5458, 1.716370
498.0279, 1.605879
498.5100, 1.504368
498.9921, 1.406445
499.4742, 1.282316
499.9564, 1.086060
500.4385, 0.9832760
500.9206, 1.229853
501.4027, 1.391083
501.8848, 1.052019
502.3669, 0.3054900
502.8491, 0.2798060
503.3312, 0.1919590
503.8133, 0.3119680
504.2954, 0.5341380
504.7775, 0.4380470
505.2596, 0.2273830
505.7418, 0.1769750
506.2239, 0.5412960
506.7060, 0.4755520
507.1881, 0.1645110
507.6702, 0.7114730
508.1523, 0.7933290
508.6345, 0.5814720
509.1166, 0.2937450
509.5987, 3.7273001E-02
510.0808, 0.2653080
510.5629, 0.2316040
511.0450, 4.8560999E-02
511.5272, 0.3280510
512.0093, 0.6740890
512.4914, 0.9437790
512.9735, 1.157759
513.4556, 1.247673
513.9377, 1.041340
514.4199, 0.5257240
514.9020, 1.4309000E-02
515.3841, 0.1971000
515.8662, 4.2319998E-02
516.3483, 0.1948050
516.8304, 0.1365590
517.3126, 0.1244300
517.7947, 0.3752170
518.2768, 0.6702160
518.7589, 0.6224140
519.2410, 6.1427999E-02
519.7231, 0.5956460
520.2053, 0.6933190
520.6874, 0.1832920
521.1695, 0.2305660
521.6516, 0.4999160
522.1337, 0.5877670
522.6158, 0.3903430
523.0980, 2.3100000E-04
523.5801, 0.3089520
524.0622, 0.4507350
524.5443, 0.4577580
525.0264, 0.3150690
525.5085, 4.6137001E-02
525.9907, 0.2280390
526.4728, 0.5027940
526.9549, 0.6775890
527.4370, 0.5387650
527.9191, 4.8310002E-03
528.4012, 0.3013820
528.8834, 0.1865350
529.3655, 6.0230002E-02
529.8476, 0.2936610
530.3297, 0.4914050
530.8118, 0.6563510
531.2939, 0.7959880
531.7761, 0.8691520
532.2582, 0.7489780
532.7403, 0.2137740
533.2224, 0.1075150
533.7045, 9.3755998E-02
534.1866, 1.2661000E-02
534.6688, 9.6147999E-02
535.1509, 0.1453550
535.6330, 0.1786100
536.1151, 0.1942770
536.5972, 0.2024690
537.0793, 0.2372040
537.5615, 0.2915940
538.0436, 0.4152360
538.5257, 0.7268100
539.0078, 1.028751
539.4899, 1.142462
539.9720, 1.069765
540.4542, 0.9460600
540.9363, 0.7484460
541.4184, 0.5815870
541.9005, 0.6360530
542.3826, 0.9071100
542.8647, 1.178488
543.3469, 1.337887
543.8290, 1.425032
544.3111, 1.560783
544.7932, 1.871603
545.2753, 1.937538
545.7574, 1.350285
546.2396, 0.7404080
546.7217, 0.7055570
547.2038, 1.208788
547.6859, 1.856152
548.1680, 2.401314
548.6501, 2.813639
549.1323, 2.922815
549.6144, 2.397160
550.0965, 2.148966
550.5786, 2.489527
551.0607, 2.940607
551.5428, 3.170156
552.0250, 3.158972
552.5071, 3.071527
552.9892, 3.029469
553.4713, 2.998497
553.9534, 2.831972
554.4355, 2.476929
554.9177, 2.260067
555.3998, 2.353878
555.8819, 2.630075
556.3640, 2.941460
556.8461, 3.304195
557.3282, 3.544132
557.8104, 3.594126
558.2925, 3.487421
558.7746, 3.229212
559.2567, 2.833151
559.7388, 2.360327
560.2209, 1.800770
560.7031, 1.242579
561.1852, 1.027601
561.6673, 1.515411
562.1494, 1.852293
562.6315, 2.080618
563.1136, 2.116619
563.5958, 1.720510
564.0779, 1.009092
564.5600, 0.4951360
565.0421, 0.5893290
565.5242, 1.050991
566.0063, 1.092222
566.4885, 0.4619450
566.9706, 0.1603530
567.4527, 0.8298720
567.9348, 1.578407
568.4169, 1.764837
568.8990, 1.433929
569.3812, 1.087515
569.8633, 1.018785
570.3454, 1.075962
570.8275, 1.016024
571.3096, 0.8792880
571.7917, 0.8678380
572.2739, 1.011173
572.7560, 1.239361
573.2381, 1.388842
573.7202, 1.511148
574.2023, 1.482176
574.6844, 1.066092
575.1666, 0.6867080
575.6487, 0.7472650
576.1308, 1.088556
576.6129, 1.240150
577.0950, 0.9449840
577.5771, 0.3779960
578.0593, 3.8174000E-02
578.5414, 3.5696000E-02
579.0235, 8.8872999E-02
579.5056, 0.1262650
579.9877, 0.2406220
580.4698, 0.5742470
580.9520, 1.005770
581.4341, 1.270140
581.9162, 1.246294
582.3983, 1.062693
582.8804, 0.8169670
583.3625, 0.5354600
583.8447, 0.4538560
584.3268, 0.6914650
584.8089, 0.9638540
585.2910, 0.9363120
585.7731, 0.6338370
586.2552, 0.4182870
586.7374, 0.4162010
587.2195, 0.4721110
587.7016, 0.5148700
588.1837, 0.5374150
588.6658, 0.5160560
589.1479, 0.4497590
589.6301, 0.4243200
590.1122, 0.5730300
590.5943, 0.9319570
591.0764, 1.067976
591.5585, 0.8344000
592.0406, 0.5839960
592.5228, 0.2975220
593.0049, 8.0550998E-02
593.4870, 0.1023390
593.9691, 0.3965820
594.4512, 0.7080780
594.9333, 0.7523900
595.4155, 0.6026950
595.8976, 0.6026130
596.3797, 0.8084490
596.8618, 0.9883210
597.3439, 0.9837680
597.8260, 0.8664460
598.3082, 0.8242700
598.7903, 0.8923380
599.2724, 0.9458050
599.7545, 0.8428590
600.2366, 0.7706010
600.7188, 1.075994
601.2009, 1.676636
601.6830, 2.001236
602.1651, 1.622488
602.6472, 0.7795720
603.1293, 0.3720930
603.6115, 0.6816900
604.0936, 0.9149890
604.5757, 1.005648
605.0578, 1.030054
605.5399, 1.024046
606.0220, 0.9949260
606.5042, 0.9246100
606.9863, 0.8137190
607.4684, 0.7127340
607.9505, 0.6982570
608.4326, 0.7700040
608.9147, 0.9137690
609.3969, 1.138788
609.8790, 1.413332
610.3611, 1.784937
610.8432, 2.232239
611.3253, 2.398672
611.8074, 2.046993
612.2896, 1.614498
612.7717, 1.246174
613.2538, 0.9767720
613.7359, 0.8955310
614.2180, 1.014631
614.7001, 1.165604
615.1823, 1.130888
615.6644, 0.8942090
616.1465, 0.8186210
616.6286, 1.092182
617.1107, 1.267303
617.5928, 1.073530
618.0750, 0.8206880
618.5571, 0.9413320
619.0392, 1.490023
619.5213, 1.862265
620.0034, 1.335077
620.4855, 0.3661330
620.9677, 6.9055997E-02
621.4498, 0.5114570
621.9319, 0.9332390
622.4140, 0.9683040
622.8961, 0.7503930
623.3782, 0.4966370
623.8604, 8.7398998E-02
624.3425, 5.9299998E-04
624.8246, 0.6850950
625.3067, 1.372950
625.7888, 1.443123
626.2709, 1.069593
626.7531, 0.8102260
627.2352, 0.9436930
627.7173, 1.171896
628.1994, 0.8252370
628.6815, 0.3198050
629.1636, 0.7995340
629.6458, 1.1683000E-02
630.1279, 0.8278180
630.6100, 0.9662910
631.0921, 0.6856580
631.5742, 0.4174440
632.0563, 0.2404560
632.5385, 0.1726090
633.0206, 0.2658860
633.5027, 0.4706540
633.9848, 0.7317600
634.4669, 1.034101
634.9490, 1.218218
635.4312, 1.138859
635.9133, 0.8590110
636.3954, 0.6979410
636.8775, 0.6320590
637.3596, 0.7406350
637.8417, 1.344833
638.3239, 1.882568
638.8060, 1.888844
639.2881, 1.465195
639.7702, 1.053408
640.2523, 0.9079910
640.7344, 0.9246960
641.2166, 0.8947850
641.6987, 0.8122060
642.1808, 0.8786850
642.6629, 1.245560
643.1450, 1.561054
643.6271, 1.373835
644.1093, 0.8552040
644.5914, 0.6511440
645.0735, 1.131100
645.5556, 1.618465
646.0377, 1.879419
646.5198, 1.921515
647.0020, 1.605528
647.4841, 0.9837590
647.9662, 0.5529580
648.4483, 0.8225960
648.9304, 1.639324
649.4125, 1.877092
649.8947, 1.094503
650.3768, 0.5573010
650.8589, 0.5422590
651.3410, 0.7893830
651.8231, 1.290506
652.3052, 1.935345
652.7874, 2.331337
653.2695, 2.137222
653.7516, 1.736309
654.2337, 1.594027
654.7158, 1.662165
655.1979, 1.733431
655.6801, 1.757288
656.1622, 1.713076
656.6443, 1.550531
657.1264, 1.256565
657.6085, 1.109295
658.0906, 1.227688
658.5728, 1.324070
659.0549, 1.287729
659.5370, 1.219473
660.0191, 1.270973
660.5012, 1.432028
660.9833, 1.509266
661.4655, 1.329050
661.9476, 0.9608120
662.4297, 0.5419160
662.9118, 1.9501001E-02
663.3939, 9.7966999E-02
663.8760, 0.5669350
664.3582, 1.437931
664.8403, 1.804245
665.3224, 1.709597
665.8045, 1.627714
666.2866, 1.689915
666.7687, 1.724840
667.2509, 1.591850
667.7330, 1.381945
668.2151, 1.238401
668.6972, 1.201593
669.1793, 1.246771
669.6614, 1.378693
670.1436, 1.579021
670.6257, 1.566877
671.1078, 1.205770
671.5899, 0.9136770
672.0720, 0.8263990
672.5541, 0.8394620
673.0363, 0.9013960
673.5184, 0.9997080
674.0005, 1.080284
674.4826, 1.097563
674.9647, 1.106457
675.4468, 1.196924
675.9290, 1.326191
676.4111, 1.360996
676.8932, 1.258535
677.3753, 1.079206
677.8574, 0.8610690
678.3395, 0.5888690
678.8217, 0.5911010
679.3038, 1.225492
679.7859, 1.702394
680.2680, 1.892986
680.7501, 1.864698
681.2322, 1.574034
681.7144, 1.079998
682.1965, 0.6883930
682.6786, 0.6374720
683.1607, 0.8329300
683.6428, 1.155455
684.1249, 1.531286
684.6071, 1.499855
685.0892, 0.8256650
685.5713, 9.3333997E-02
686.0534, 6.4349999E-03
686.5355, 0.5426790
687.0176, 0.9397560
687.4998, 1.325336
687.9819, 1.534763
688.4640, 1.449846
688.9461, 1.213850
689.4282, 0.9043390
689.9103, 0.5754090
690.3925, 0.3547290
690.8746, 0.3846870
691.3567, 0.5510390
691.8388, 0.5246470
692.3209, 0.2899530
692.8030, 0.3078020
693.2852, 0.8805560
693.7673, 1.399143
694.2494, 1.087793
694.7315, 1.9757999E-02
695.2136, 0.5989550
695.6957, 0.4771290
696.1779, 0.2043340
696.6600, 0.1100140
697.1421, 0.4155460
697.6242, 0.7339760
698.1063, 1.014246
698.5884, 1.037001
699.0706, 0.5688170
699.5527, 0.1604540
700.0348, 0.4849170
700.5169, 0.3463080
700.9990, 6.7633003E-02
701.4811, 0.4382380
701.9633, 0.9060920
702.4454, 1.106407
702.9275, 1.082743
703.4096, 0.9439930
703.8917, 0.5455250
704.3738, 0.2528210
704.8560, 0.2442230
705.3381, 0.4070380
705.8202, 0.6940460
706.3023, 1.044950
706.7844, 1.228848
707.2665, 1.086140
707.7487, 0.7728080
708.2308, 0.7632790
708.7129, 1.173525
709.1950, 1.351109
709.6771, 1.073555
710.1592, 0.7535990
710.6414, 0.6858350
711.1235, 0.7635590
711.6056, 0.7361530
712.0877, 0.4511180
712.5698, 0.3222920
713.0519, 0.7125990
713.5341, 1.269913
714.0162, 1.638275
714.4983, 1.767397
714.9804, 1.636889
715.4625, 1.214380
715.9446, 0.6905140
716.4268, 0.5205840
716.9089, 0.8352930
717.3910, 0.9112910
717.8731, 0.5110860
718.3552, 0.1697390
718.8373, 0.1256180
719.3195, 0.2928030
719.8016, 0.6338940
720.2837, 1.217793
720.7658, 1.524725
721.2479, 0.9964310
721.7300, 0.3218770
722.2122, 0.2954830
722.6943, 0.7768780
723.1764, 1.119499
723.6585, 1.041039
724.1406, 0.7551960
724.6227, 0.5787450
725.1049, 0.5211410
725.5870, 0.4735110
726.0691, 0.4294340
726.5512, 0.4064940
727.0333, 0.3676530
727.5154, 0.3781360
727.9976, 0.5706710
728.4797, 0.9453530
728.9618, 1.174837
729.4439, 1.005924
729.9260, 0.7315040
730.4081, 0.5913160
730.8903, 0.5597110
731.3724, 0.5568330
731.8545, 0.5597840
732.3366, 0.5963210
732.8187, 0.6935920
733.3008, 0.8519440
733.7830, 1.119455
734.2651, 1.715727
734.7472, 1.943090
735.2293, 1.177101
735.7114, 0.3751930
736.1935, 0.2978920
736.6757, 0.8122200
737.1578, 1.217052
737.6399, 1.236485
738.1220, 1.168386
738.6041, 1.343246
739.0862, 1.506401
739.5684, 1.075314
740.0505, 8.3030999E-02
740.5326, 0.7087230
741.0147, 0.7280450
741.4968, 0.2049370
741.9789, 0.1751960
742.4611, 0.3830030
742.9432, 0.5592560
743.4253, 0.7666990
743.9074, 0.8624550
744.3895, 0.6761910
744.8716, 0.3611560
745.3538, 0.2277110
745.8359, 0.3551350
746.3180, 0.5614430
746.8001, 0.8831860
747.2822, 1.157162
747.7643, 1.188679
748.2465, 1.015715
748.7286, 0.7694930
749.2107, 0.5099620
749.6928, 0.3041950
750.1749, 0.2893660
750.6570, 0.4809670
751.1392, 0.5109250
751.6213, 0.2703290
752.1034, 0.1211510
752.5855, 0.2656760
753.0676, 0.4921800
753.5497, 0.6583420
754.0319, 0.7717650
754.5140, 0.7812750
754.9961, 0.4991990
755.4782, 0.2580870
755.9603, 0.3983480
756.4424, 0.6558320
756.9246, 0.4889240
757.4067, 0.1459240
757.8888, 0.6028290
758.3709, 0.2097820
758.8530, 0.7296750
759.3351, 1.101778
759.8173, 0.8202530
760.2994, 0.5996490
760.7815, 0.6201110
761.2636, 0.6815680
761.7457, 0.6322140
762.2278, 0.4813140
762.7100, 0.2798860
763.1921, 0.1354260
763.6742, 0.3447070
764.1563, 1.4605000E-02
764.6384, 0.3662450
765.1205, 0.3102510
765.6027, 4.2553000E-02
766.0848, 0.2238080
766.5669, 1.2787000E-02
767.0490, 0.3751490
767.5311, 0.7315750
768.0132, 1.032522
768.4954, 1.119284
768.9775, 0.9645460
769.4596, 0.7331350
769.9417, 0.4612560
770.4238, 0.2194840
770.9059, 0.1562580
771.3881, 0.3541790
771.8702, 0.3938870
772.3523, 8.8816002E-02
772.8344, 0.1471520
773.3165, 0.1296810
773.7986, 6.8700002E-03
774.2808, 0.1031550
774.7629, 0.1413780
775.2450, 0.2220360
775.7271, 0.4711130
776.2092, 0.7427750
776.6913, 0.7465880
777.1735, 0.5691910
777.6556, 0.6082730
778.1377, 0.9633370
778.6198, 1.337959
779.1019, 1.492472
779.5840, 1.443716
780.0662, 1.254675
780.5483, 0.7274360
781.0304, 0.4383010
781.5125, 0.6047500
781.9946, 0.8278120
782.4767, 0.9447940
782.9589, 0.9726240
783.4410, 0.9508270
783.9231, 0.8785760
784.4052, 0.8120730
784.8873, 0.7712290
785.3694, 0.7637940
785.8516, 0.8268680
786.3337, 0.9346410
786.8158, 1.002895
787.2979, 0.9980600
787.7800, 0.9508970
788.2621, 0.9084000
788.7443, 0.8680740
789.2264, 0.6969410
789.7085, 0.2488440
790.1906, 9.6272998E-02
790.6727, 0.6594640
791.1548, 1.340982
791.6370, 1.514681
792.1191, 1.248755
792.6012, 1.003246
793.0833, 0.7920570
793.5654, 0.6771220
794.0475, 0.7585280
794.5297, 0.8950940
795.0118, 0.9231680
795.4939, 0.8619790
795.9760, 0.8517040
796.4581, 0.9754220
796.9402, 1.146378
797.4224, 1.262630
797.9045, 1.317455
798.3866, 1.155773
798.8687, 0.7651730
799.3508, 0.6150800
799.8329, 0.9748100
800.3151, 1.584196
800.7972, 2.005199
801.2793, 2.254074
801.7614, 2.243551
802.2435, 1.650728
802.7256, 1.219492
803.2078, 1.250486
803.6899, 1.494074
804.1720, 1.770077
804.6541, 2.010908
805.1362, 2.069271
805.6183, 1.752041
806.1005, 1.351107
806.5826, 1.167345
807.0647, 1.133566
807.5468, 1.117880
808.0289, 1.090601
808.5110, 1.006115
808.9932, 0.8024940
809.4753, 0.6178650
809.9574, 0.9215050
810.4395, 1.943054
810.9216, 2.375460
811.4037, 1.763407
811.8859, 1.210415
812.3680, 1.491312
812.8501, 2.057106
813.3322, 2.006649
813.8143, 1.165552
814.2964, 0.7334190
814.7786, 1.398518
815.2607, 2.100515
815.7428, 2.259216
816.2249, 2.066996
816.7070, 1.620516
817.1891, 1.035538
817.6713, 0.6910340
818.1534, 0.9560510
818.6355, 1.519783
819.1176, 1.816046
819.5997, 1.861328
820.0818, 1.707369
820.5640, 1.321014
821.0461, 1.132772
821.5282, 1.508177
822.0103, 2.247740
822.4924, 2.682905
822.9745, 2.737728
823.4567, 2.658579
823.9388, 2.251150
824.4209, 1.934006
824.9030, 1.891026
825.3851, 1.991455
825.8672, 2.098717
826.3494, 2.188444
826.8315, 2.194756
827.3136, 1.971598
827.7957, 1.762360
828.2778, 1.895863
828.7599, 2.151417
829.2421, 2.027260
829.7242, 1.497013
830.2063, 1.071817
830.6884, 1.151527
831.1705, 1.561810
831.6526, 1.908800
832.1348, 2.191261
832.6169, 2.306179
833.0990, 2.189800
833.5811, 2.066994
834.0632, 2.055723
834.5453, 2.135483
835.0275, 2.282961
835.5096, 2.570143
835.9917, 2.698864
836.4738, 2.451000
836.9559, 2.299931
837.4380, 2.613173
837.9202, 2.995375
838.4023, 2.924297
838.8844, 2.402475
839.3665, 1.957386
839.8486, 1.896286
840.3307, 2.004465
840.8129, 2.146961
841.2950, 2.271269
841.7771, 2.241858
842.2592, 2.064507
842.7413, 1.896019
843.2234, 1.832422
843.7056, 1.860361
844.1877, 1.969452
844.6698, 2.166721
845.1519, 2.368765
845.6340, 2.621050
846.1161, 2.722523
846.5983, 2.453480
847.0804, 2.117916
847.5625, 2.221420
848.0446, 2.805550
848.5267, 3.102623
849.0089, 2.806070
849.4910, 2.574709
849.9731, 2.657068
850.4552, 2.831451
850.9373, 2.924534
851.4194, 2.921019
851.9016, 2.859303
852.3837, 2.752754
852.8658, 2.603027
853.3479, 2.283955
853.8300, 1.979792
854.3121, 2.117384
854.7943, 2.619503
855.2764, 3.031158
855.7585, 3.155657
856.2406, 3.038504
856.7227, 2.657425
857.2048, 2.030046
857.6870, 1.670835
858.1691, 1.620596
858.6512, 1.802532
859.1333, 2.363838
859.6154, 2.887630
860.0975, 2.970728
860.5797, 2.715387
861.0618, 2.555597
861.5439, 2.439575
862.0260, 2.432772
862.5081, 2.634550
862.9902, 2.904615
863.4724, 3.237043
863.9545, 3.496641
864.4366, 3.441757
864.9187, 3.019426
865.4008, 2.605366
865.8829, 2.517021
866.3651, 2.510269
866.8472, 2.229092
867.3293, 1.814232
867.8114, 1.607210
868.2935, 1.680449
868.7756, 1.942163
869.2578, 2.348007
869.7399, 2.814129
870.2220, 3.107601
870.7041, 3.228695
871.1862, 3.251139
871.6683, 3.168739
872.1505, 3.083712
872.6326, 3.061960
873.1147, 3.011440
873.5968, 2.698204
874.0789, 2.018318
874.5610, 1.643686
875.0432, 1.834545
875.5253, 1.975988
876.0074, 1.795906
876.4895, 1.618961
876.9716, 1.896166
877.4537, 2.466026
877.9359, 2.527014
878.4180, 1.549133
878.9001, 0.7580930
879.3822, 1.084862
879.8643, 1.861006
880.3464, 2.517469
880.8286, 2.928379
881.3107, 2.883881
881.7928, 2.342819
882.2749, 1.774574
882.7570, 1.763184
883.2391, 2.129498
883.7213, 2.050741
884.2034, 1.588291
884.6855, 1.280058
885.1676, 1.259319
885.6497, 1.333490
886.1318, 1.354345
886.6140, 1.350651
887.0961, 1.426378
887.5782, 1.628056
888.0603, 1.791218
888.5424, 1.926346
889.0245, 2.006413
889.5067, 2.074915
889.9888, 2.050915
890.4709, 1.749823
890.9530, 1.173401
891.4351, 0.8316820
891.9172, 1.050457
892.3994, 1.252720
892.8815, 1.198635
893.3636, 1.022638
893.8457, 0.8047600
894.3278, 0.5932790
894.8099, 0.4728050
895.2921, 0.4882530
895.7742, 0.5255810
896.2563, 0.4917700
896.7384, 0.4008430
897.2205, 0.2091520
897.7026, 2.4979001E-02
898.1848, 6.7296997E-02
898.6669, 0.1503520
899.1490, 0.4960080
899.6311, 0.8888930
900.1132, 1.248463
900.5953, 1.154654
901.0775, 0.5334090
901.5596, 0.3062820
902.0417, 0.7068940
902.5238, 1.185688
903.0059, 1.492647
903.4880, 1.589489
903.9702, 1.343365
904.4523, 0.5813220
904.9344, 0.1506460
905.4165, 0.3793470
905.8986, 0.5256940
906.3807, 0.2769790
906.8629, 2.7580000E-03
907.3450, 7.4694000E-02
907.8271, 0.4204410
908.3092, 0.5940070
908.7913, 0.3889480
909.2734, 0.1949270
909.7556, 0.1384600
910.2377, 0.2085570
910.7198, 0.4935170
911.2019, 0.8683990
911.6840, 1.144203
912.1661, 1.248829
912.6483, 1.115925
913.1304, 0.5086900
913.6125, 0.2086890
914.0946, 0.4435140
914.5767, 0.2806610
915.0588, 0.1296750
915.5410, 0.7122650
916.0231, 1.056738
916.5052, 0.8899800
916.9873, 0.4143890
917.4694, 5.6283999E-02
917.9515, 0.5339790
918.4337, 0.6071850
918.9158, 0.1535000
919.3979, 0.1109290
919.8800, 0.1804600
920.3621, 0.4978240
920.8442, 0.2230150
921.3264, 0.5730630
921.8085, 1.127716
922.2906, 1.505045
922.7727, 1.557381
923.2548, 0.8981000
923.7369, 0.2708840
924.2191, 6.2088002E-02
924.7012, 0.1392630
925.1833, 0.3703060
925.6654, 0.7539480
926.1475, 0.8992840
926.6296, 0.4068260
927.1118, 1.8836999E-02
927.5939, 0.1185380
928.0760, 0.4097330
928.5581, 0.3151150
929.0402, 6.7451000E-02
929.5223, 0.1977520
930.0045, 0.1952400
930.4866, 0.6559280
930.9687, 0.6941110
931.4508, 0.5811500
931.9329, 0.8652780
932.4150, 1.381536
932.8972, 1.523163
933.3793, 1.144804
933.8614, 0.5816360
934.3435, 5.4705001E-02
934.8256, 0.2934380
935.3077, 2.4014000E-02
935.7899, 0.9479470
936.2720, 1.668724
936.7541, 2.109146
937.2362, 2.133093
937.7183, 1.572870
938.2004, 0.8870410
938.6826, 0.8477040
939.1647, 1.461061
939.6468, 1.386019
940.1289, 0.1084960
940.6110, 0.5750850
941.0931, 3.0066000E-02
941.5753, 0.8490830
942.0574, 1.205070
942.5395, 1.192537
943.0216, 1.058241
943.5037, 0.7217710
943.9858, 0.5111480
944.4680, 0.5575540
944.9501, 0.6059840
945.4322, 0.5357000
945.9143, 0.4392530
946.3964, 0.4373820
946.8785, 0.5098500
947.3607, 0.5080450
947.8428, 0.3013570
948.3249, 0.1856630
948.8070, 0.4326530
949.2891, 0.7466280
949.7712, 0.8162940
950.2534, 0.7424350
950.7355, 0.7599050
951.2176, 0.9280990
951.6997, 1.150515
952.1818, 1.421524
952.6639, 1.619432
953.1461, 1.529142
953.6282, 1.247873
954.1103, 0.9258960
954.5924, 0.6302570
955.0745, 0.6162010
955.5566, 1.013195
956.0388, 1.425734
956.5209, 1.257460
957.0030, 0.6403140
957.4851, 0.2365570
957.9672, 4.2468999E-02
958.4493, 2.0152999E-02
958.9315, 4.5508999E-02
959.4136, 0.1177140
959.8957, 0.1032660
960.3778, 3.9303001E-02
960.8599, 1.1761000E-02
961.3420, 9.0140002E-03
961.8242, 0.1116240
962.3063, 0.3619610
962.7884, 0.6212180
963.2705, 0.9030060
963.7526, 1.094797
964.2347, 1.017683
964.7169, 0.7273010
965.1990, 0.6352920
965.6811, 0.9735360
966.1632, 1.154564
966.6453, 1.020998
967.1274, 0.9099120
967.6096, 0.9915120
968.0917, 1.158119
968.5738, 1.305124
969.0559, 1.416117
969.5380, 1.407871
970.0201, 1.136909
970.5023, 0.9084210
970.9844, 0.8754220
971.4665, 0.8740900
971.9486, 0.7723670
972.4307, 0.6282650
972.9128, 0.5198650
973.3950, 0.4505180
973.8771, 0.4526000
974.3592, 0.5567630
974.8413, 0.7295570
975.3234, 1.096888
975.8055, 1.398115
976.2877, 1.174753
976.7698, 0.5795780
977.2519, 0.2086180
977.7340, 0.3307780
978.2161, 0.5729500
978.6982, 0.6467400
979.1804, 0.5687450
979.6625, 0.2025510
980.1446, 0.2902550
980.6267, 0.3401810
981.1088, 0.1159730
981.5909, 0.5963710
982.0731, 0.7625770
982.5552, 0.7675650
983.0373, 0.9154760
983.5194, 1.165096
984.0015, 1.196861
984.4836, 1.002108
984.9658, 0.7181110
985.4479, 0.3719330
985.9300, 0.2647900
986.4121, 0.7666240
986.8942, 1.585672
987.3763, 1.588171
987.8585, 0.6034470
988.3406, 0.1439800
988.8227, 0.4232440
989.3048, 0.7627030
989.7869, 0.9069730
990.2690, 0.9551540
990.7512, 1.039309
991.2333, 1.144001
991.7154, 1.057659
992.1975, 0.6112020
992.6796, 0.3003160
993.1617, 0.2145630
993.6439, 0.2799930
994.1260, 0.6656020
994.6081, 1.062794
995.0902, 0.9330120
995.5723, 0.2486480
996.0544, 0.1222670
996.5366, 2.2457000E-02
997.0187, 0.2367460
997.5008, 0.5501960
997.9829, 0.8075450
998.4650, 0.8808290
998.9471, 0.8789730
999.4293, 0.7619970
999.9114, 0.5085890
1000.393, 0.4718630
1000.876, 0.9713020
1001.358, 1.422903
1001.840, 1.634731
1002.322, 1.647373
1002.804, 1.414833
1003.286, 1.038649
1003.768, 0.6751420
1004.250, 0.3580800
1004.733, 0.2540450
1005.215, 0.6325260
1005.697, 1.065023
1006.179, 1.289459
1006.661, 1.341282
1007.143, 1.158543
1007.625, 0.8526740
1008.107, 0.7526070
1008.589, 1.011597
1009.072, 1.281033
1009.554, 1.247162
1010.036, 1.080982
1010.518, 1.004389
1011.000, 0.9466130
1011.482, 0.6465610
1011.964, 0.1671980
1012.446, 1.7920000E-02
1012.929, 0.5138240
1013.411, 1.076700
1013.893, 0.8871590
1014.375, 0.3272170
1014.857, 0.1802180
1015.339, 0.3623260
1015.821, 0.4502640
1016.303, 0.3876990
1016.785, 0.6174790
1017.268, 1.501238
1017.750, 2.414700
1018.232, 2.124884
1018.714, 0.9907530
1019.196, 0.5379830
1019.678, 0.7498090
1020.160, 0.9936890
1020.642, 1.089211
1021.125, 1.057571
1021.607, 0.8961770
1022.089, 0.6881390
1022.571, 0.6576770
1023.053, 0.7904990
1023.535, 0.7884640
1024.017, 0.6347810
1024.499, 0.4890250
1024.981, 0.3879010
1025.464, 0.4161620
1025.946, 0.6777800
1026.428, 1.079041
1026.910, 1.336843
1027.392, 1.449095
1027.874, 1.434874
1028.356, 1.290836
1028.838, 1.007284
1029.321, 0.5118900
1029.803, 8.2222000E-02
1030.285, 1.2869000E-02
1030.767, 0.2179260
1031.249, 0.2970580
1031.731, 0.1781390
1032.213, 0.2356660
1032.695, 0.5912630
1033.177, 0.8080500
1033.660, 0.5944600
1034.142, 0.4054740
1034.624, 0.7950170
1035.106, 1.627674
1035.588, 2.070526
1036.070, 2.102596
1036.552, 1.754778
1037.034, 0.6461620
1037.516, 0.1622070
1037.999, 0.2181870
1038.481, 7.0757002E-02
1038.963, 0.3369410
1039.445, 0.5507830
1039.927, 0.6483800
1040.409, 0.4701140
1040.891, 0.4605880
1041.373, 0.8700280
1041.855, 1.182798
1042.338, 1.002214
1042.820, 0.6885640
1043.302, 0.6465090
1043.784, 0.8453670
1044.266, 1.030567
1044.748, 1.266777
1045.230, 1.363384
1045.712, 1.201481
1046.195, 1.027910
1046.677, 0.9401040
1047.159, 0.8933370
1047.641, 0.8300360
1048.123, 0.7575190
1048.605, 0.7403810
1049.087, 0.8594170
1049.569, 0.8987980
1050.052, 0.7015800
1050.534, 0.5667110
1051.016, 0.7397310
1051.498, 0.9706480
1051.980, 0.9083000
1052.462, 0.6123390
1052.944, 0.5367300
1053.426, 0.8875580
1053.908, 1.188974
1054.391, 1.527287
1054.873, 1.607740
1055.355, 0.9793740
1055.837, 0.2248940
1056.319, 3.9120000E-03
1056.801, 0.2949640
1057.283, 0.6858840
1057.765, 1.198990
1058.248, 1.522434
1058.730, 1.495523
1059.212, 1.333330
1059.694, 0.9630430
1060.176, 0.6568450
1060.658, 0.8863330
1061.140, 1.489168
1061.622, 1.625328
1062.104, 0.8196600
1062.587, 0.2506350
1063.069, 0.4805740
1063.551, 0.9114990
1064.033, 1.428514
1064.515, 1.793777
1064.997, 1.658817
1065.479, 1.140865
1065.961, 0.7010520
1066.443, 0.4649410
1066.926, 0.3858970
1067.408, 0.6262090
1067.890, 0.8105110
1068.372, 0.5888500
1068.854, 0.3035510
1069.336, 0.3344710
1069.818, 0.6064360
1070.300, 0.8289620
1070.782, 0.9244840
1071.265, 0.9489210
1071.747, 0.8136330
1072.229, 0.7479060
1072.711, 1.001190
1073.193, 1.313341
1073.675, 1.358559
1074.157, 1.206480
1074.639, 1.166409
1075.122, 1.354902
1075.604, 1.413214
1076.086, 1.043554
1076.568, 0.6561070
1077.050, 0.5167710
1077.532, 0.4606950
1078.014, 0.2747150
1078.496, 4.3545000E-02
1078.979, 3.6936000E-02
1079.461, 0.3366810
1079.943, 0.5964720
1080.425, 0.6420380
1080.907, 0.6245610
1081.389, 0.5725860
1081.871, 0.5431670
1082.353, 0.6131130
1082.835, 0.7400490
1083.318, 0.7720430
1083.800, 0.6791500
1084.282, 0.8142970
1084.764, 1.724264
1085.246, 2.398066
1085.728, 2.147633
1086.210, 1.607563
1086.692, 1.393215
1087.175, 1.361633
1087.657, 1.130278
1088.139, 0.6517390
1088.621, 0.2865310
1089.103, 0.1370490
1089.585, 0.1792740
1090.067, 0.6484810
1090.549, 1.067312
1091.031, 0.9502600
1091.514, 0.5979650
1091.996, 0.5329800
1092.478, 0.7822280
1092.960, 0.9168050
1093.442, 0.7671050
1093.924, 0.5333860
1094.406, 4.7634002E-02
1094.888, 0.2372750
1095.370, 0.1481230
1095.853, 0.7874640
1096.335, 1.227451
1096.817, 1.395592
1097.299, 1.320263
1097.781, 0.9459330
1098.263, 0.4932950
1098.745, 0.2502650
1099.227, 0.7215960
1099.709, 0.3851510
1100.192, 0.1908990
1100.674, 0.3969390
1101.156, 0.2949070
1101.638, 0.2825640
1102.120, 0.4811160
1102.602, 0.5924890
1103.084, 0.4041400
1103.566, 0.2952660
1104.049, 0.5119230
1104.531, 0.7834910
1105.013, 0.8900970
1105.495, 0.8631440
1105.977, 0.7764500
1106.459, 0.6014250
1106.941, 0.6256720
1107.423, 1.178744
1107.906, 1.543867
1108.388, 1.491570
1108.870, 1.233587
1109.352, 0.6757540
1109.834, 0.1092700
1110.316, 0.1015770
1110.798, 0.7141790
1111.280, 1.125558
1111.762, 1.301897
1112.245, 1.229694
1112.727, 0.5378720
1113.209, 2.1271000E-02
1113.691, 0.2887580
1114.173, 0.8030120
1114.655, 0.8212820
1115.137, 0.3921420
1115.619, 0.2301390
1116.102, 0.5887200
1116.584, 0.7602300
1117.066, 0.5132870
1117.548, 0.4170820
1118.030, 0.8567380
1118.512, 1.321506
1118.994, 1.282479
1119.476, 0.8698000
1119.958, 0.6099760
1120.441, 0.5544990
1120.923, 0.4898540
1121.405, 0.4257950
1121.887, 0.3127440
1122.369, 3.1879000E-02
1122.851, 8.9305997E-02
1123.333, 0.2887580
1123.815, 0.8965840
1124.297, 1.143271
1124.780, 1.012762
1125.262, 0.6852250
1125.744, 3.2676000E-02
1126.226, 0.3382570
1126.708, 0.3239990
1127.190, 3.1191999E-02
1127.672, 0.8308920
1128.154, 1.664371
1128.636, 1.836419
1129.119, 1.446652
1129.601, 1.128601
1130.083, 0.8683670
1130.565, 0.8442220
1131.047, 1.097444
1131.529, 1.407469
1132.011, 1.714344
1132.493, 1.831717
1132.976, 1.537930
1133.458, 0.9695210
1133.940, 0.4232230
1134.422, 6.9945998E-02
1134.904, 6.4019999E-03
1135.386, 0.6037270
1135.868, 1.145423
1136.350, 1.446527
1136.833, 1.415816
1137.315, 0.9433660
1137.797, 0.3807370
1138.279, 0.4068770
1138.761, 0.8151450
1139.243, 0.8894320
1139.725, 0.6881650
1140.207, 0.4210520
1140.689, 0.1584570
1141.172, 0.1005220
1141.654, 0.3374590
1142.136, 0.5244560
1142.618, 0.1152370
1143.100, 0.3772480
1143.582, 0.1959100
1144.064, 1.224643
1144.546, 1.339090
1145.029, 0.6994440
1145.511, 0.1821200
1145.993, 6.3322999E-02
1146.475, 0.2098630
1146.957, 0.6546520
1147.439, 1.010784
1147.921, 0.6592450
1148.403, 0.2014820
1148.885, 0.5426960
1149.368, 1.237530
1149.850, 1.380088
1150.332, 0.9739220
1150.814, 0.7265350
1151.296, 0.9625270
1151.778, 1.172285
1152.260, 0.9457170
1152.742, 0.6928690
1153.224, 0.7116440
1153.707, 0.8873430
1154.189, 1.181843
1154.671, 1.509811
1155.153, 1.709486
1155.635, 1.747990
1156.117, 1.778692
1156.599, 1.946651
1157.081, 1.924309
1157.563, 1.481079
1158.046, 1.072730
1158.528, 0.9160840
1159.010, 0.9601070
1159.492, 1.235204
1159.974, 1.678565
1160.456, 1.824244
1160.938, 1.479873
1161.420, 1.132673
1161.903, 0.5908550
1162.385, 0.3569900
1162.867, 0.7998230
1163.349, 1.334230
1163.831, 1.552622
1164.313, 1.502788
1164.795, 1.252969
1165.277, 0.7453090
1165.760, 0.5360340
1166.242, 0.7625310
1166.724, 0.8339600
1167.206, 0.6065400
1167.688, 0.3809580
1168.170, 0.2962260
1168.652, 0.3476220
1169.134, 0.5575050
1169.616, 0.8710710
1170.099, 1.011921
1170.581, 0.9680900
1171.063, 0.9881960
1171.545, 1.109387
1172.027, 1.093061
1172.509, 0.8623550
1172.991, 0.6549230
1173.473, 0.6543330
1173.956, 0.7727870
1174.438, 0.8776960
1174.920, 0.9679010
1175.402, 1.041458
1175.884, 1.096096
1176.366, 1.129725
1176.848, 1.134789
1177.330, 1.067732
1177.813, 0.9128210
1178.295, 0.7423900
1178.777, 0.5861100
1179.259, 0.5002460
1179.741, 0.5920090
1180.223, 0.7636970
1180.705, 0.9136300
1181.187, 1.062146
1181.669, 1.257048
1182.151, 1.484776
1182.634, 1.658305
1183.116, 1.774144
1183.598, 1.687196
1184.080, 1.141251
1184.562, 0.5445800
1185.044, 4.0367000E-02
1185.526, 0.3638780
1186.008, 7.0799001E-02
1186.490, 0.9155900
1186.973, 1.315470
1187.455, 1.106323
1187.937, 0.9082950
1188.419, 0.9218120
1188.901, 0.8387170
1189.383, 0.4257260
1189.865, 0.1015830
1190.347, 6.5665998E-02
1190.830, 0.2406120
1191.312, 0.6215270
1191.794, 1.147213
1192.276, 1.536882
1192.758, 1.899700
1193.240, 1.735027
1193.722, 0.7192520
1194.204, 0.1697650
1194.687, 0.5132980
1195.169, 0.9886070
1195.651, 1.139711
1196.133, 1.072380
1196.615, 0.9190310
1197.097, 0.7211190
1197.579, 0.7677250
1198.061, 1.041105
1198.543, 1.209381
1199.026, 1.247316
1199.508, 1.252869
1199.990, 1.258982
1200.472, 1.240288
1200.954, 1.150747
1201.436, 1.075514
1201.918, 1.032314
1202.400, 1.020418
1202.883, 1.051702
1203.365, 1.110441
1203.847, 1.190535
1204.329, 1.268042
1204.811, 1.253668
1205.293, 1.119389
1205.775, 1.022833
1206.257, 1.106165
1206.740, 1.204550
1207.222, 1.176880
1207.704, 1.127264
1208.186, 1.170418
1208.668, 1.239832
1209.150, 1.239258
1209.632, 1.162308
1210.114, 1.024252
1210.596, 0.7511480
1211.078, 0.6763130
1211.561, 0.9559350
1212.043, 1.316841
1212.525, 2.085653
1213.007, 2.450817
1213.489, 1.425402
1213.971, 4.5956001E-02
1214.453, 8.0536000E-02
1214.935, 1.414829
1215.417, 1.901550
1215.900, 1.279406
1216.382, 0.7761480
1216.864, 0.4437430
1217.346, 0.2953300
1217.828, 0.3466870
1218.310, 0.5548290
1218.792, 0.9165270
1219.274, 1.294462
1219.757, 1.455431
1220.239, 1.410202
1220.721, 1.131964
1221.203, 0.6887870
1221.685, 0.3845410
1222.167, 0.2724760
1222.649, 0.4726140
1223.131, 0.9811500
1223.614, 1.330677
1224.096, 1.104155
1224.578, 0.6665630
1225.060, 0.2971440
1225.542, 4.7678001E-02
1226.024, 9.2371002E-02
1226.506, 0.2338070
1226.988, 9.6501999E-02
1227.470, 0.2246490
1227.953, 0.3077390
1228.435, 1.8337000E-02
1228.917, 0.2536260
1229.399, 0.3382530
1229.881, 0.4149270
1230.363, 0.5702570
1230.845, 0.7038330
1231.327, 0.7641220
1231.810, 0.7652360
1232.292, 0.6884440
1232.774, 0.5685390
1233.256, 0.5476670
1233.738, 0.6550620
1234.220, 0.7446820
1234.702, 0.8450130
1235.184, 0.8261810
1235.667, 0.6121670
1236.149, 0.3574730
1236.631, 4.7640000E-02
1237.113, 0.1322800
1237.595, 8.5129000E-02
1238.077, 0.5258410
1238.559, 0.6523690
1239.041, 0.5424940
1239.523, 0.6438310
1240.005, 0.9102750
1240.488, 0.9817140
1240.970, 0.8262860
1241.452, 0.7930320
1241.934, 1.056751
1242.416, 1.259865
1242.898, 0.8978730
1243.380, 0.5179750
1243.862, 0.8321060
1244.344, 1.287249
1244.827, 1.228769
1245.309, 0.8632970
1245.791, 0.5137650
1246.273, 0.2874070
1246.755, 0.4015660
1247.237, 1.100235
1247.719, 1.480762
1248.201, 1.060383
1248.684, 0.6911890
1249.166, 0.5946120
1249.648, 0.6585310
1250.130, 0.9355160
1250.612, 1.214933
1251.094, 1.138903
1251.576, 0.7873420
1252.058, 0.7545110
1252.541, 1.139605
1253.023, 1.049562
1253.505, 0.4055190
1253.987, 6.1377000E-02
1254.469, 0.1756780
1254.951, 5.9154999E-02
1255.433, 0.2252600
1255.915, 0.5618520
1256.397, 0.8604110
1256.880, 1.009363
1257.362, 1.010082
1257.844, 0.9123360
1258.326, 0.9106160
1258.808, 0.9954760
1259.290, 1.141275
1259.772, 1.312639
1260.254, 1.425865
1260.737, 1.453388
1261.219, 1.355919
1261.701, 1.031738
1262.183, 0.7110200
1262.665, 0.2900790
1263.147, 3.6839001E-02
1263.629, 0.3372040
1264.111, 0.7999760
1264.594, 0.7869340
1265.076, 0.4021190
1265.558, 0.3425790
1266.040, 0.7099780
1266.522, 1.045881
1267.004, 1.419050
1267.486, 1.464865
1267.968, 1.023523
1268.450, 0.7103020
1268.932, 0.8541070
1269.415, 1.160734
1269.897, 1.277609
1270.379, 1.219643
1270.861, 1.225620
1271.343, 1.211575
1271.825, 1.042328
1272.307, 0.8416290
1272.789, 1.154999
1273.271, 1.853481
1273.754, 2.041281
1274.236, 1.390461
1274.718, 0.6523480
1275.200, 0.2720280
1275.682, 0.1073130
1276.164, 0.1984840
1276.646, 0.4082970
1277.128, 0.8115310
1277.611, 1.153582
1278.093, 1.011908
1278.575, 0.5858440
1279.057, 0.6565530
1279.539, 1.378819
1280.021, 1.451225
1280.503, 0.4792840
1280.985, 7.6103002E-02
1281.468, 0.1084860
1281.950, 0.4532050
1282.432, 0.7888740
1282.914, 0.9762170
1283.396, 0.5786440
1283.878, 0.1881200
1284.360, 0.1807480
1284.842, 0.3102590
1285.324, 0.0000000E+00
##END=



