##NAMES=Boracite
##RRUFFID=R070317
##IDEAL CHEMISTRY=Mg_3_B_7_O_13_Cl
##LOCALITY=Douglashall, Westereglen, Stassfurt District, Saxony-Anhalt, Germany
##OWNER=RRUFF
##SOURCE=James Shigley
##DESCRIPTION=Colorless single crystal tetrahedron with minor cube modifications
##STATUS=The identification of this mineral has been confirmed by single-crystal X-ray diffraction.
##URL=rruff.info/R070317
175.9807, 0.0000000E+00
176.4628, 14.84473
176.9449, 17.65234
177.4271, 1.256836
177.9092, 0.1875000
178.3913, 7.745117
178.8734, 17.12207
179.3555, 27.59473
179.8376, 35.24609
180.3197, 38.67871
180.8019, 31.23340
181.2840, 33.09668
181.7661, 70.41895
182.2482, 123.8018
182.7303, 142.1475
183.2124, 128.2803
183.6946, 95.40332
184.1767, 83.41797
184.6588, 109.6094
185.1409, 126.4316
185.6230, 121.8994
186.1051, 102.5625
186.5873, 71.90820
187.0694, 28.49902
187.5515, 16.72363
188.0336, 33.19727
188.5157, 4.269531
188.9978, 26.59863
189.4800, 48.03809
189.9621, 66.60840
190.4442, 93.25391
190.9263, 133.9385
191.4084, 176.1123
191.8905, 185.1787
192.3727, 130.7686
192.8548, 97.55176
193.3369, 113.6104
193.8190, 147.4492
194.3011, 167.9258
194.7832, 162.4971
195.2654, 143.7422
195.7475, 139.2393
196.2296, 158.5957
196.7117, 174.7607
197.1938, 183.9238
197.6759, 189.1943
198.1581, 191.9795
198.6402, 192.9785
199.1223, 194.2236
199.6044, 200.3926
200.0865, 217.0342
200.5686, 227.2383
201.0508, 225.2451
201.5329, 220.2168
202.0150, 221.5889
202.4971, 231.2451
202.9792, 239.9902
203.4613, 229.3350
203.9435, 179.9326
204.4256, 155.7451
204.9077, 183.5576
205.3898, 216.9141
205.8719, 224.1592
206.3540, 199.2959
206.8362, 158.0586
207.3183, 117.1602
207.8004, 66.29004
208.2825, 44.92773
208.7646, 71.33594
209.2467, 109.2236
209.7289, 141.4727
210.2110, 164.1455
210.6931, 180.5596
211.1752, 194.9863
211.6573, 209.3193
212.1395, 213.8984
212.6216, 197.2988
213.1037, 181.3086
213.5858, 177.3496
214.0679, 184.8311
214.5500, 195.6631
215.0322, 201.4580
215.5143, 200.7139
215.9964, 204.9717
216.4785, 213.8926
216.9606, 228.0957
217.4427, 255.9951
217.9249, 290.9551
218.4070, 315.7500
218.8891, 313.1885
219.3712, 282.1514
219.8533, 265.0771
220.3354, 271.2266
220.8176, 283.3320
221.2997, 305.1182
221.7818, 329.3799
222.2639, 343.1357
222.7460, 335.9990
223.2281, 310.0957
223.7103, 288.5859
224.1924, 276.8115
224.6745, 263.7910
225.1566, 241.2256
225.6387, 217.0859
226.1208, 203.8613
226.6030, 209.6240
227.0851, 229.8789
227.5672, 247.9678
228.0493, 268.1445
228.5314, 279.5439
229.0135, 271.0381
229.4957, 256.7803
229.9778, 252.9473
230.4599, 266.9316
230.9420, 293.4883
231.4241, 322.7500
231.9062, 371.8262
232.3884, 391.0811
232.8705, 344.3496
233.3526, 285.9033
233.8347, 267.1172
234.3168, 305.4658
234.7989, 367.9062
235.2811, 398.4707
235.7632, 389.0742
236.2453, 365.8203
236.7274, 312.6992
237.2095, 260.4824
237.6916, 227.9590
238.1738, 219.3887
238.6559, 228.6250
239.1380, 254.6172
239.6201, 308.0156
240.1022, 337.9727
240.5843, 325.1523
241.0665, 303.0605
241.5486, 287.5391
242.0307, 278.6836
242.5128, 266.6152
242.9949, 236.1211
243.4770, 183.6836
243.9592, 155.7402
244.4413, 176.6680
244.9234, 200.5430
245.4055, 207.3613
245.8876, 201.9805
246.3697, 202.8320
246.8519, 227.2012
247.3340, 269.2500
247.8161, 274.6895
248.2982, 211.5391
248.7803, 153.0957
249.2624, 122.9727
249.7446, 114.1387
250.2267, 115.5312
250.7088, 123.1719
251.1909, 135.0293
251.6730, 146.6348
252.1551, 162.5332
252.6373, 168.3320
253.1194, 148.4766
253.6015, 121.7871
254.0836, 110.1152
254.5657, 123.1172
255.0478, 146.9160
255.5300, 157.8594
256.0121, 150.9492
256.4942, 150.1504
256.9763, 168.4902
257.4584, 192.1035
257.9406, 211.7012
258.4227, 225.3145
258.9048, 236.2793
259.3869, 247.8086
259.8690, 259.9648
260.3511, 272.8730
260.8333, 296.9355
261.3154, 311.6484
261.7975, 297.2656
262.2796, 255.1484
262.7617, 212.9824
263.2438, 191.6992
263.7260, 187.9883
264.2081, 182.0605
264.6902, 168.6973
265.1723, 158.1855
265.6544, 161.8887
266.1365, 175.2539
266.6187, 182.8418
267.1008, 174.2031
267.5829, 155.4590
268.0650, 135.6172
268.5471, 110.5293
269.0292, 98.63477
269.5114, 138.5352
269.9935, 198.5449
270.4756, 220.4805
270.9577, 162.3086
271.4398, 82.09961
271.9219, 42.93359
272.4041, 45.52148
272.8862, 67.15430
273.3683, 111.1387
273.8504, 160.4551
274.3325, 184.4648
274.8146, 177.9688
275.2968, 152.8848
275.7789, 100.9297
276.2610, 32.30273
276.7431, 10.57617
277.2252, 10.11328
277.7073, 20.30469
278.1895, 64.49219
278.6716, 129.1016
279.1537, 175.8379
279.6358, 187.5840
280.1179, 173.0449
280.6000, 138.4043
281.0822, 80.74805
281.5643, 29.22461
282.0464, 21.81250
282.5285, 61.53320
283.0106, 106.6641
283.4927, 172.5195
283.9749, 229.2871
284.4570, 242.2305
284.9391, 212.5195
285.4212, 178.7109
285.9033, 170.6445
286.3854, 186.6191
286.8676, 194.8828
287.3497, 201.5020
287.8318, 198.1738
288.3139, 168.5684
288.7960, 123.5645
289.2781, 94.67383
289.7603, 102.2148
290.2424, 135.5371
290.7245, 146.5312
291.2066, 108.8535
291.6887, 82.99219
292.1708, 93.24805
292.6530, 114.8008
293.1351, 108.8906
293.6172, 62.78711
294.0993, 8.099609
294.5814, 4.171875
295.0635, 104.1172
295.5457, 153.5898
296.0278, 116.1387
296.5099, 58.35352
296.9920, 23.77734
297.4741, 18.50586
297.9562, 26.84961
298.4384, 33.69141
298.9205, 39.12109
299.4026, 42.25391
299.8847, 43.03320
300.3668, 41.65234
300.8489, 31.00586
301.3311, 18.30469
301.8131, 19.93945
302.2953, 49.67969
302.7774, 99.19531
303.2595, 124.6328
303.7416, 105.5117
304.2237, 91.50781
304.7058, 84.87891
305.1880, 91.35742
305.6701, 126.2793
306.1522, 196.7168
306.6343, 269.1621
307.1164, 281.6113
307.5985, 215.0762
308.0807, 159.1367
308.5628, 121.4902
309.0449, 105.5605
309.5270, 126.9941
310.0091, 182.6855
310.4912, 236.0430
310.9734, 255.2227
311.4555, 242.5703
311.9376, 221.5645
312.4197, 186.5898
312.9018, 153.7031
313.3839, 127.5195
313.8661, 110.1523
314.3482, 108.4883
314.8303, 135.2715
315.3124, 175.4316
315.7945, 202.4277
316.2766, 214.7500
316.7588, 222.6367
317.2409, 232.9688
317.7230, 241.3027
318.2051, 240.3633
318.6872, 228.3965
319.1693, 208.5996
319.6515, 175.8203
320.1336, 134.8066
320.6157, 108.7539
321.0978, 110.7598
321.5799, 122.9961
322.0620, 115.4277
322.5442, 85.76367
323.0263, 57.38281
323.5084, 29.51758
323.9905, 9.605469
324.4726, 13.36719
324.9547, 43.26172
325.4369, 74.32227
325.9190, 82.40625
326.4011, 64.69141
326.8832, 48.06250
327.3653, 25.58789
327.8474, 10.27539
328.3296, 15.08594
328.8117, 34.06055
329.2938, 47.47852
329.7759, 42.11914
330.2580, 25.29492
330.7401, 30.26367
331.2223, 95.89062
331.7044, 135.1797
332.1865, 113.6953
332.6686, 73.19727
333.1507, 65.77930
333.6328, 104.7676
334.1150, 154.5918
334.5971, 159.4316
335.0792, 91.72852
335.5613, 58.91406
336.0434, 99.27344
336.5255, 136.3945
337.0077, 121.4023
337.4898, 65.27734
337.9719, 14.26562
338.4540, 7.626953
338.9361, 39.40039
339.4182, 55.88672
339.9004, 50.12305
340.3825, 38.06445
340.8646, 24.19531
341.3467, 7.707031
341.8288, 16.00586
342.3109, 51.25000
342.7931, 82.23828
343.2752, 78.26758
343.7573, 32.37695
344.2394, 1.595703
344.7215, 12.50000
345.2036, 33.31641
345.6858, 43.00000
346.1679, 39.98633
346.6500, 22.27148
347.1321, 30.03906
347.6142, 97.79102
348.0963, 119.7129
348.5785, 75.95898
349.0606, 29.58594
349.5427, 34.99219
350.0248, 78.24414
350.5069, 120.4141
350.9890, 163.7246
351.4712, 196.5664
351.9533, 201.5781
352.4354, 184.4199
352.9175, 175.6934
353.3996, 191.9766
353.8817, 223.0215
354.3639, 240.6934
354.8460, 235.3945
355.3281, 239.4707
355.8102, 267.7949
356.2923, 305.7578
356.7744, 332.6113
357.2566, 344.9746
357.7387, 360.8379
358.2208, 404.4688
358.7029, 487.6309
359.1850, 530.6016
359.6671, 497.9980
360.1493, 466.5156
360.6314, 465.3027
361.1135, 492.3594
361.5956, 544.9668
362.0777, 626.3516
362.5598, 716.1387
363.0420, 736.2676
363.5241, 629.1328
364.0062, 542.7930
364.4883, 516.2227
364.9704, 502.0977
365.4525, 456.5547
365.9347, 372.3379
366.4168, 279.8984
366.8989, 209.1953
367.3810, 159.5820
367.8631, 135.2441
368.3452, 154.0098
368.8274, 178.2656
369.3095, 192.4512
369.7916, 196.8203
370.2737, 191.3281
370.7558, 164.7129
371.2379, 137.3770
371.7201, 154.8770
372.2022, 224.2129
372.6843, 275.2793
373.1664, 258.2734
373.6485, 210.8574
374.1306, 197.3984
374.6128, 224.8984
375.0949, 268.0957
375.5770, 336.1270
376.0591, 406.7812
376.5412, 425.2832
377.0233, 374.1680
377.5055, 312.7324
377.9876, 308.0547
378.4697, 367.8398
378.9518, 399.9883
379.4339, 382.2754
379.9160, 355.6543
380.3982, 342.2930
380.8803, 340.1387
381.3624, 342.9102
381.8445, 349.0742
382.3266, 351.2676
382.8087, 326.2188
383.2909, 232.3203
383.7730, 165.8066
384.2551, 143.5488
384.7372, 139.4863
385.2193, 134.9570
385.7014, 125.6719
386.1836, 114.8398
386.6657, 105.6133
387.1478, 98.09570
387.6299, 91.63867
388.1120, 92.25586
388.5941, 86.95508
389.0763, 67.39453
389.5584, 39.74219
390.0405, 11.98242
390.5226, 15.38086
391.0047, 32.77930
391.4868, 19.86914
391.9690, 27.01758
392.4511, 68.33594
392.9332, 86.50781
393.4153, 101.7793
393.8974, 139.3770
394.3795, 200.2852
394.8617, 248.8516
395.3438, 251.9199
395.8259, 231.2871
396.3080, 230.4102
396.7901, 254.3359
397.2722, 271.6191
397.7544, 253.2617
398.2365, 209.6445
398.7186, 195.7246
399.2007, 235.1055
399.6828, 276.6504
400.1649, 298.8691
400.6471, 311.4551
401.1292, 332.2324
401.6113, 367.1152
402.0934, 402.1836
402.5755, 418.1992
403.0576, 407.8887
403.5398, 399.9785
404.0219, 407.4043
404.5040, 406.3066
404.9861, 371.0723
405.4682, 315.8203
405.9503, 279.6348
406.4325, 290.2539
406.9146, 331.1133
407.3967, 343.0840
407.8788, 314.7129
408.3609, 280.5195
408.8430, 223.8516
409.3252, 179.3867
409.8073, 184.9121
410.2894, 242.8340
410.7715, 304.8926
411.2536, 335.7461
411.7357, 336.8652
412.2179, 304.7617
412.7000, 218.5273
413.1821, 149.7031
413.6642, 175.1855
414.1463, 251.8516
414.6284, 293.1445
415.1106, 260.1816
415.5927, 215.8262
416.0748, 207.0918
416.5569, 224.6543
417.0390, 242.5703
417.5211, 254.1621
418.0033, 254.8613
418.4854, 233.2832
418.9675, 176.6465
419.4496, 141.6289
419.9317, 152.6465
420.4138, 168.7227
420.8960, 157.2949
421.3781, 123.8379
421.8602, 95.68359
422.3423, 91.52344
422.8244, 105.3125
423.3065, 108.3223
423.7887, 95.44727
424.2708, 78.96289
424.7529, 53.58984
425.2350, 29.82031
425.7171, 14.50195
426.1992, 9.345703
426.6814, 14.71875
427.1635, 39.82227
427.6456, 81.48633
428.1277, 97.35156
428.6098, 79.03516
429.0919, 50.34375
429.5741, 4.023438
430.0562, 39.68750
430.5383, 44.11133
431.0204, 14.56445
431.5025, 81.25195
431.9846, 116.3613
432.4668, 122.8496
432.9489, 103.1719
433.4310, 49.62109
433.9131, 2.193359
434.3952, 4.574219
434.8773, 49.03516
435.3595, 87.62500
435.8416, 101.5762
436.3237, 104.9766
436.8058, 102.2461
437.2879, 96.03125
437.7701, 89.74805
438.2522, 84.83984
438.7343, 82.68164
439.2164, 88.17188
439.6985, 116.0605
440.1806, 124.4551
440.6628, 95.30078
441.1449, 63.27539
441.6270, 51.86328
442.1091, 59.42383
442.5912, 69.28711
443.0733, 70.98438
443.5555, 65.79883
444.0376, 57.29883
444.5197, 45.48633
445.0018, 33.75195
445.4839, 19.51367
445.9660, 9.087891
446.4482, 8.500000
446.9303, 18.85742
447.4124, 35.54883
447.8945, 63.30078
448.3766, 92.99023
448.8587, 107.0996
449.3409, 104.2070
449.8230, 94.43945
450.3051, 84.50586
450.7872, 73.23242
451.2693, 53.00781
451.7514, 4.236328
452.2336, 41.53320
452.7157, 20.98047
453.1978, 27.93750
453.6799, 64.50977
454.1620, 76.60938
454.6441, 76.11133
455.1263, 78.74219
455.6084, 86.93750
456.0905, 84.44922
456.5726, 63.24609
457.0547, 39.05469
457.5368, 7.531250
458.0190, 21.71484
458.5011, 32.68359
458.9832, 16.93750
459.4653, 11.20508
459.9474, 34.44336
460.4295, 52.75000
460.9117, 62.26367
461.3938, 59.03711
461.8759, 50.93945
462.3580, 43.30078
462.8401, 36.45312
463.3222, 32.56836
463.8044, 31.13867
464.2865, 33.72852
464.7686, 46.15918
465.2507, 64.92188
465.7328, 74.12793
466.2149, 64.81641
466.6971, 49.83691
467.1792, 55.64941
467.6613, 101.8447
468.1434, 127.1123
468.6255, 121.6816
469.1076, 104.3525
469.5898, 72.33789
470.0719, 37.84668
470.5540, 32.75391
471.0361, 82.49023
471.5182, 160.5312
472.0003, 183.3838
472.4825, 123.3965
472.9646, 83.32031
473.4467, 116.3467
473.9288, 153.6738
474.4109, 142.8516
474.8930, 86.43945
475.3752, 36.83008
475.8573, 33.40723
476.3394, 52.17578
476.8215, 49.48340
477.3036, 24.15039
477.7857, 2.224609
478.2679, 5.103516
478.7500, 0.6855470
479.2321, 19.06250
479.7142, 59.31445
480.1963, 87.24414
480.6784, 88.58691
481.1606, 80.08887
481.6427, 75.62207
482.1248, 76.61328
482.6069, 79.44629
483.0890, 81.92871
483.5711, 83.23438
484.0533, 78.56934
484.5354, 63.34766
485.0175, 50.13184
485.4996, 37.17285
485.9817, 28.93066
486.4638, 31.66309
486.9460, 44.60352
487.4281, 57.44434
487.9102, 62.56934
488.3923, 61.73242
488.8744, 54.37891
489.3565, 35.49316
489.8387, 20.89453
490.3208, 17.70020
490.8029, 24.89941
491.2850, 41.48535
491.7671, 74.62109
492.2492, 94.30078
492.7314, 76.73340
493.2135, 48.42383
493.6956, 43.10352
494.1777, 62.00098
494.6598, 82.26758
495.1419, 86.10449
495.6241, 76.65039
496.1062, 74.63672
496.5883, 92.70996
497.0704, 100.2744
497.5525, 89.07812
498.0346, 70.37012
498.5168, 47.35254
498.9989, 24.04004
499.4810, 14.01465
499.9631, 40.67871
500.4452, 88.31250
500.9273, 87.69336
501.4095, 24.01367
501.8916, 24.66016
502.3737, 13.29004
502.8558, 26.54492
503.3379, 42.24414
503.8200, 26.26660
504.3022, 14.12598
504.7843, 19.06934
505.2664, 35.22070
505.7485, 63.75391
506.2306, 100.3457
506.7127, 123.0020
507.1949, 116.1133
507.6770, 84.94434
508.1591, 51.58301
508.6412, 8.213867
509.1233, 29.10059
509.6054, 16.09375
510.0876, 70.20703
510.5697, 98.58887
511.0518, 101.1338
511.5339, 96.85352
512.0161, 98.04199
512.4982, 105.0889
512.9803, 121.8037
513.4624, 151.6123
513.9445, 172.0752
514.4266, 172.8779
514.9088, 162.5000
515.3909, 147.7441
515.8730, 125.6328
516.3551, 115.0811
516.8372, 141.1445
517.3193, 172.2715
517.8015, 167.4375
518.2836, 135.6504
518.7657, 118.0449
519.2478, 137.7549
519.7299, 176.9736
520.2120, 191.2529
520.6942, 161.4834
521.1763, 138.8418
521.6584, 117.6436
522.1405, 109.1523
522.6226, 125.3369
523.1047, 159.1260
523.5869, 196.1826
524.0690, 234.8789
524.5511, 260.3701
525.0332, 231.4131
525.5153, 148.5967
525.9974, 112.7861
526.4796, 170.9160
526.9617, 246.0098
527.4438, 239.6211
527.9259, 163.8105
528.4080, 128.1260
528.8901, 191.4883
529.3723, 256.1787
529.8544, 248.1885
530.3365, 202.9971
530.8186, 199.1543
531.3007, 262.2803
531.7828, 341.0557
532.2650, 361.4385
532.7471, 311.1104
533.2292, 279.3174
533.7113, 280.1133
534.1934, 284.6621
534.6755, 288.7754
535.1577, 288.8164
535.6398, 279.7295
536.1219, 259.9307
536.6040, 236.8721
537.0861, 215.9355
537.5682, 197.0850
538.0504, 180.2070
538.5325, 165.6885
539.0146, 150.6709
539.4967, 130.5020
539.9788, 108.5635
540.4609, 101.7539
540.9431, 126.5039
541.4252, 141.9932
541.9073, 125.7158
542.3894, 105.7246
542.8715, 114.8252
543.3536, 151.1582
543.8358, 182.3633
544.3179, 179.0527
544.8000, 154.0234
545.2821, 168.6611
545.7642, 245.3926
546.2463, 299.9629
546.7285, 303.4404
547.2106, 281.0459
547.6927, 240.9453
548.1748, 187.4307
548.6569, 149.8975
549.1390, 150.3506
549.6211, 167.0742
550.1032, 177.4521
550.5853, 182.9219
551.0674, 194.6914
551.5496, 219.1904
552.0317, 242.9004
552.5138, 242.4834
552.9959, 209.1777
553.4780, 180.6221
553.9601, 158.5264
554.4423, 138.4434
554.9244, 121.5508
555.4065, 104.5674
555.8886, 77.09668
556.3707, 34.25586
556.8528, 1.878906
557.3350, 20.19824
557.8171, 83.02051
558.2992, 135.6709
558.7813, 175.9307
559.2634, 195.0439
559.7455, 176.4971
560.2277, 134.2793
560.7098, 107.5264
561.1919, 105.9004
561.6740, 98.95996
562.1561, 65.12012
562.6382, 29.20312
563.1204, 20.73145
563.6025, 39.18359
564.0846, 63.71289
564.5667, 81.82520
565.0488, 89.87891
565.5309, 67.99414
566.0131, 7.469727
566.4952, 55.02734
566.9773, 32.46191
567.4594, 4.557617
567.9415, 19.53320
568.4236, 13.53320
568.9058, 4.305664
569.3879, 5.469727
569.8700, 10.95605
570.3521, 1.854492
570.8342, 16.28711
571.3163, 22.96289
571.7985, 11.13086
572.2806, 5.856445
572.7627, 10.84473
573.2448, 1.470703
573.7269, 3.083984
574.2090, 41.85449
574.6912, 59.96289
575.1733, 18.43359
575.6554, 38.40039
576.1375, 56.66113
576.6196, 26.54395
577.1017, 12.13770
577.5839, 25.54199
578.0660, 18.63184
578.5481, 4.565430
579.0302, 18.00488
579.5123, 33.21973
579.9944, 29.86035
580.4766, 18.37402
580.9587, 20.49414
581.4408, 40.27734
581.9229, 53.94727
582.4050, 60.35938
582.8871, 57.79688
583.3693, 35.71973
583.8514, 4.946289
584.3335, 12.47168
584.8156, 6.230469
585.2977, 14.30566
585.7798, 40.01758
586.2620, 73.09473
586.7441, 81.72754
587.2262, 47.18457
587.7083, 16.47754
588.1904, 23.56445
588.6725, 50.12793
589.1547, 66.04688
589.6368, 62.77051
590.1189, 61.04980
590.6010, 76.13281
591.0831, 95.54297
591.5652, 102.2910
592.0474, 96.24512
592.5295, 88.06543
593.0116, 84.81250
593.4937, 84.45117
593.9758, 77.96387
594.4579, 52.08789
594.9401, 51.79004
595.4222, 111.5410
595.9043, 169.8662
596.3864, 187.7461
596.8685, 179.8330
597.3506, 188.1475
597.8328, 238.6562
598.3149, 289.5605
598.7970, 295.2705
599.2791, 272.6055
599.7612, 264.3857
600.2433, 278.8242
600.7255, 304.9600
601.2076, 334.5117
601.6897, 367.4014
602.1718, 403.3018
602.6539, 453.2178
603.1360, 490.5723
603.6182, 502.3428
604.1003, 509.7695
604.5824, 534.0332
605.0645, 570.3857
605.5466, 594.1963
606.0287, 589.3359
606.5109, 567.1963
606.9930, 542.6035
607.4751, 515.5576
607.9572, 488.1387
608.4393, 462.1846
608.9214, 429.0195
609.4036, 374.0127
609.8857, 297.0322
610.3678, 251.8184
610.8499, 264.1318
611.3320, 272.5117
611.8141, 255.9492
612.2963, 232.9521
612.7784, 226.1846
613.2605, 235.2822
613.7426, 239.0371
614.2247, 217.9805
614.7068, 182.6240
615.1890, 156.1289
615.6711, 137.7910
616.1532, 146.0430
616.6353, 202.3467
617.1174, 257.7197
617.5995, 242.2617
618.0817, 154.1504
618.5638, 121.0703
619.0459, 196.7168
619.5280, 271.6641
620.0101, 301.9375
620.4922, 308.7051
620.9744, 321.9209
621.4565, 346.0908
621.9386, 362.0098
622.4207, 349.7246
622.9028, 316.5879
623.3849, 294.1777
623.8671, 285.7490
624.3492, 259.9150
624.8313, 197.7822
625.3134, 135.3193
625.7955, 122.3730
626.2776, 155.4297
626.7598, 170.8525
627.2419, 142.9014
627.7240, 113.3496
628.2061, 106.4258
628.6882, 110.8682
629.1703, 108.8916
629.6525, 96.97363
630.1346, 84.95020
630.6167, 83.27930
631.0988, 90.72754
631.5809, 94.09570
632.0630, 88.08984
632.5452, 89.63379
633.0273, 110.1533
633.5094, 139.4863
633.9915, 171.0850
634.4736, 204.3730
634.9557, 223.9277
635.4379, 208.9307
635.9200, 198.6826
636.4021, 227.6191
636.8842, 271.0674
637.3663, 284.5156
637.8484, 260.8828
638.3306, 237.0283
638.8127, 249.6123
639.2948, 293.9072
639.7769, 344.5195
640.2590, 407.1523
640.7411, 455.1133
641.2233, 468.4531
641.7054, 475.5625
642.1875, 506.0127
642.6696, 558.7871
643.1517, 614.1016
643.6339, 668.6260
644.1160, 723.6592
644.5981, 785.7129
645.0802, 846.4951
645.5623, 888.1963
646.0444, 909.9453
646.5266, 935.0332
647.0087, 989.1514
647.4908, 1062.048
647.9729, 1099.252
648.4550, 1087.576
648.9371, 1092.489
649.4193, 1134.660
649.9014, 1194.869
650.3835, 1258.098
650.8656, 1323.804
651.3477, 1389.970
651.8298, 1478.170
652.3120, 1542.174
652.7941, 1534.336
653.2762, 1502.537
653.7583, 1516.997
654.2404, 1583.406
654.7225, 1650.482
655.2047, 1675.683
655.6868, 1673.123
656.1689, 1703.043
656.6510, 1778.624
657.1331, 1813.542
657.6152, 1764.246
658.0974, 1706.300
658.5795, 1719.223
659.0616, 1785.201
659.5437, 1824.769
660.0258, 1830.025
660.5079, 1808.998
660.9901, 1749.150
661.4722, 1674.061
661.9543, 1607.848
662.4364, 1552.043
662.9185, 1495.105
663.4006, 1429.997
663.8828, 1357.115
664.3649, 1275.953
664.8470, 1186.338
665.3291, 1092.659
665.8112, 990.6484
666.2933, 895.1162
666.7755, 814.7012
667.2576, 750.3740
667.7397, 703.3633
668.2218, 704.2607
668.7039, 673.1846
669.1860, 552.1377
669.6682, 428.6562
670.1503, 384.8643
670.6324, 398.9775
671.1145, 391.2695
671.5966, 319.2988
672.0787, 230.4941
672.5609, 195.0205
673.0430, 205.1221
673.5251, 204.7578
674.0072, 185.2734
674.4893, 169.9268
674.9714, 177.3975
675.4536, 196.6885
675.9357, 198.4785
676.4178, 170.3564
676.8999, 154.1094
677.3820, 154.6982
677.8641, 158.1748
678.3463, 161.1074
678.8284, 163.6162
679.3105, 167.5010
679.7926, 173.2520
680.2747, 168.4590
680.7568, 129.2090
681.2390, 74.54395
681.7211, 59.98828
682.2032, 84.86035
682.6853, 101.9961
683.1674, 90.18457
683.6495, 66.88574
684.1317, 60.35059
684.6138, 76.32422
685.0959, 79.14941
685.5780, 56.05078
686.0601, 34.34473
686.5422, 15.74219
687.0244, 4.585938
687.5065, 10.01367
687.9886, 30.87012
688.4707, 46.20801
688.9528, 40.90723
689.4349, 26.52539
689.9171, 12.81250
690.3992, 1.041016
690.8813, 4.402344
691.3634, 2.468750
691.8455, 0.4384770
692.3276, 3.917969
692.8098, 12.90820
693.2919, 1.531250
693.7740, 39.96484
694.2561, 80.50488
694.7382, 128.1289
695.2203, 160.3066
695.7025, 149.4170
696.1846, 108.3203
696.6667, 86.50293
697.1488, 113.2607
697.6309, 135.5537
698.1130, 121.1777
698.5952, 88.69531
699.0773, 52.98730
699.5594, 21.18066
700.0415, 8.598633
700.5236, 26.29102
701.0057, 59.66602
701.4879, 79.72949
701.9700, 85.93164
702.4521, 87.45312
702.9342, 85.44043
703.4163, 77.56836
703.8984, 56.22168
704.3806, 30.61621
704.8627, 24.60254
705.3448, 48.27148
705.8269, 61.17285
706.3090, 48.76562
706.7911, 33.11426
707.2733, 28.13281
707.7554, 28.79297
708.2375, 22.98730
708.7196, 7.675781
709.2017, 3.032227
709.6838, 10.11914
710.1660, 36.25977
710.6481, 49.59277
711.1302, 49.81836
711.6123, 33.57520
712.0944, 5.125977
712.5765, 39.99805
713.0587, 35.57715
713.5408, 10.55957
714.0229, 44.16797
714.5050, 62.92578
714.9871, 71.49609
715.4692, 57.25879
715.9514, 43.77051
716.4335, 57.47852
716.9156, 91.75684
717.3977, 110.8447
717.8798, 93.04688
718.3619, 65.80566
718.8441, 42.32715
719.3262, 27.43848
719.8083, 37.51074
720.2904, 69.11328
720.7725, 89.82617
721.2546, 76.50977
721.7368, 44.21289
722.2189, 29.99707
722.7010, 36.84961
723.1831, 40.17285
723.6652, 31.68457
724.1473, 33.15723
724.6295, 73.39941
725.1116, 125.1191
725.5937, 128.7607
726.0758, 65.60742
726.5579, 19.66797
727.0400, 18.26465
727.5222, 25.75195
728.0043, 19.14746
728.4864, 7.472656
728.9685, 12.11621
729.4506, 36.61816
729.9327, 54.87012
730.4149, 31.69824
730.8970, 9.761719
731.3791, 10.82324
731.8612, 23.76758
732.3433, 50.31348
732.8254, 57.40234
733.3076, 46.81836
733.7897, 14.91113
734.2718, 34.26953
734.7539, 53.95020
735.2360, 27.77246
735.7181, 0.8242190
736.2003, 44.62793
736.6824, 73.16797
737.1645, 55.47266
737.6466, 7.764648
738.1287, 25.21582
738.6108, 29.79785
739.0930, 22.92578
739.5751, 6.939453
740.0572, 10.73535
740.5393, 22.81836
741.0214, 28.46191
741.5035, 26.54199
741.9857, 17.31543
742.4678, 9.840820
742.9499, 26.59961
743.4320, 66.45801
743.9141, 82.87305
744.3962, 71.59570
744.8784, 56.37500
745.3605, 40.39844
745.8426, 35.42285
746.3247, 63.15820
746.8068, 130.8164
747.2889, 159.8818
747.7711, 120.0439
748.2532, 83.44043
748.7353, 69.20117
749.2174, 63.71582
749.6995, 51.62012
750.1816, 35.05762
750.6638, 29.73047
751.1459, 47.85449
751.6280, 72.14551
752.1101, 95.56152
752.5922, 111.0029
753.0743, 94.72852
753.5565, 50.96875
754.0386, 22.31250
754.5207, 35.41016
755.0028, 69.44824
755.4849, 89.07324
755.9670, 93.22363
756.4492, 95.81738
756.9313, 99.57715
757.4134, 94.79102
757.8955, 69.16113
758.3776, 38.55664
758.8597, 26.53613
759.3419, 33.38770
759.8240, 50.08203
760.3061, 96.10840
760.7882, 127.8936
761.2703, 118.5889
761.7524, 93.55371
762.2346, 79.52832
762.7167, 78.56641
763.1988, 76.72852
763.6809, 63.47266
764.1630, 50.63672
764.6451, 57.79688
765.1273, 75.01074
765.6094, 72.52344
766.0915, 48.85840
766.5736, 32.85449
767.0557, 42.87598
767.5378, 69.08008
768.0200, 90.41406
768.5021, 106.2031
768.9842, 122.2461
769.4663, 142.0361
769.9484, 153.5215
770.4305, 147.3145
770.9127, 132.2676
771.3948, 117.9014
771.8769, 101.9023
772.3590, 91.45703
772.8411, 90.92578
773.3232, 92.44727
773.8054, 98.37891
774.2875, 100.6641
774.7696, 83.90039
775.2517, 54.19727
775.7338, 43.20508
776.2159, 77.12695
776.6981, 117.9092
777.1802, 120.3818
777.6623, 97.74512
778.1444, 73.56152
778.6265, 53.52051
779.1086, 53.92285
779.5908, 85.58594
780.0729, 131.4424
780.5550, 162.7490
781.0371, 179.8877
781.5192, 174.9785
782.0013, 139.3232
782.4835, 103.8184
782.9656, 74.18848
783.4477, 56.13086
783.9298, 63.28418
784.4119, 96.49707
784.8940, 115.2715
785.3762, 95.38867
785.8583, 90.07910
786.3404, 133.0303
786.8225, 181.0537
787.3046, 198.0693
787.7867, 185.7061
788.2689, 162.9043
788.7510, 135.4473
789.2331, 104.1650
789.7152, 56.26465
790.1973, 11.40723
790.6794, 9.923828
791.1616, 44.62500
791.6437, 74.64648
792.1258, 80.13086
792.6079, 72.91797
793.0900, 70.25488
793.5721, 71.39258
794.0543, 63.49316
794.5364, 43.48535
795.0185, 32.13867
795.5006, 36.10254
795.9827, 47.87891
796.4648, 68.70508
796.9470, 96.85840
797.4291, 105.3330
797.9112, 86.55273
798.3933, 56.77539
798.8754, 12.50000
799.3575, 63.74805
799.8397, 52.98926
800.3218, 3.740234
800.8039, 43.31543
801.2860, 81.62793
801.7681, 95.94043
802.2502, 57.98438
802.7324, 10.82422
803.2145, 7.472656
803.6966, 5.167969
804.1787, 0.2031250
804.6608, 2.256836
805.1429, 4.693359
805.6251, 9.574219
806.1072, 15.31445
806.5893, 16.51562
807.0714, 15.01074
807.5535, 19.94238
808.0356, 30.74121
808.5178, 54.34863
808.9999, 99.57617
809.4820, 150.3896
809.9641, 164.2920
810.4462, 132.0322
810.9283, 94.24805
811.4105, 32.29004
811.8926, 4.842773
812.3747, 22.00000
812.8568, 70.44629
813.3389, 89.78418
813.8210, 79.65137
814.3032, 79.70410
814.7853, 108.9512
815.2674, 132.6279
815.7495, 139.9424
816.2316, 134.8955
816.7137, 115.4912
817.1959, 87.54590
817.6780, 62.82812
818.1601, 44.61621
818.6422, 38.67285
819.1243, 59.23535
819.6064, 89.65332
820.0886, 107.7520
820.5707, 111.8896
821.0528, 99.54980
821.5349, 70.79297
822.0170, 41.41797
822.4991, 25.16113
822.9813, 21.13672
823.4634, 29.77832
823.9455, 52.01172
824.4276, 68.95215
824.9097, 77.79102
825.3918, 75.90137
825.8740, 54.00488
826.3561, 25.23633
826.8382, 38.41113
827.3203, 134.6816
827.8024, 177.3467
828.2845, 119.6943
828.7667, 65.03711
829.2488, 59.04785
829.7309, 70.83984
830.2130, 58.99805
830.6951, 21.36523
831.1772, 2.755859
831.6594, 30.87305
832.1415, 59.43457
832.6236, 69.92969
833.1057, 70.11914
833.5878, 64.95898
834.0699, 57.53711
834.5521, 51.30566
835.0342, 46.96777
835.5163, 48.88672
835.9984, 68.10449
836.4805, 92.49316
836.9626, 99.55371
837.4448, 93.05469
837.9269, 91.99707
838.4090, 102.4951
838.8911, 113.4590
839.3732, 112.8926
839.8553, 103.4766
840.3375, 92.20801
840.8196, 78.85938
841.3017, 79.00586
841.7838, 97.72656
842.2659, 119.8193
842.7480, 135.6221
843.2302, 146.8389
843.7123, 158.5908
844.1944, 174.1309
844.6765, 178.9326
845.1586, 167.8730
845.6407, 154.0342
846.1229, 135.0928
846.6050, 121.0156
847.0871, 127.5215
847.5692, 152.8721
848.0513, 161.7129
848.5334, 134.2178
849.0156, 112.3760
849.4977, 106.9717
849.9798, 110.4834
850.4619, 119.8311
850.9440, 132.9170
851.4261, 150.3701
851.9083, 173.4570
852.3904, 181.9141
852.8725, 153.1992
853.3546, 111.5381
853.8367, 71.08203
854.3188, 40.86035
854.8010, 44.12012
855.2831, 79.62988
855.7652, 113.8926
856.2473, 118.2656
856.7294, 102.6416
857.2115, 88.22266
857.6937, 79.43066
858.1758, 83.88477
858.6579, 99.13086
859.1400, 104.8896
859.6221, 90.70117
860.1042, 73.16602
860.5864, 78.20605
861.0685, 103.9775
861.5506, 110.9219
862.0327, 93.09082
862.5148, 81.24219
862.9969, 88.56738
863.4791, 89.30371
863.9612, 52.73828
864.4433, 3.717773
864.9254, 14.22266
865.4075, 59.75879
865.8896, 98.43945
866.3718, 73.78320
866.8539, 49.37695
867.3360, 49.74414
867.8181, 60.19238
868.3002, 63.81250
868.7823, 59.96191
869.2645, 58.44629
869.7466, 64.08984
870.2287, 68.90820
870.7108, 73.53906
871.1929, 71.35547
871.6750, 48.06152
872.1572, 14.88965
872.6393, 2.961914
873.1214, 3.054688
873.6035, 20.30371
874.0856, 54.61133
874.5677, 82.96191
875.0499, 65.99414
875.5320, 26.94531
876.0141, 17.43945
876.4962, 44.04980
876.9783, 78.66895
877.4604, 105.7725
877.9426, 116.1602
878.4247, 80.71973
878.9068, 15.95117
879.3889, 14.48145
879.8710, 8.379883
880.3531, 6.877930
880.8353, 20.73828
881.3174, 36.27148
881.7995, 58.15234
882.2816, 83.67871
882.7637, 98.24609
883.2458, 102.3291
883.7280, 87.82324
884.2101, 45.96777
884.6922, 10.12109
885.1743, 2.355469
885.6564, 14.21191
886.1385, 29.35840
886.6207, 50.92969
887.1028, 60.57324
887.5849, 47.35059
888.0670, 40.08105
888.5491, 55.54102
889.0313, 71.35156
889.5134, 63.35059
889.9955, 38.45215
890.4776, 30.30859
890.9597, 56.72949
891.4418, 71.56152
891.9240, 54.63574
892.4061, 39.83594
892.8882, 47.20410
893.3703, 66.47070
893.8524, 87.61133
894.3345, 107.4824
894.8167, 112.5889
895.2988, 86.76660
895.7809, 57.95898
896.2630, 35.29492
896.7451, 21.36426
897.2272, 23.74805
897.7094, 36.55957
898.1915, 46.31348
898.6736, 48.19141
899.1557, 44.29785
899.6378, 30.19922
900.1199, 16.04395
900.6021, 15.37988
901.0842, 24.16992
901.5663, 39.18164
902.0484, 55.67578
902.5305, 53.73438
903.0126, 18.05664
903.4948, 23.42480
903.9769, 27.88477
904.4590, 4.938477
904.9411, 22.18555
905.4232, 49.70410
905.9053, 56.02734
906.3875, 34.43848
906.8696, 16.50098
907.3517, 36.33789
907.8338, 76.83496
908.3159, 75.09766
908.7980, 30.65234
909.2802, 18.42969
909.7623, 51.05957
910.2444, 78.80273
910.7265, 77.52051
911.2086, 59.29199
911.6907, 40.05859
912.1729, 19.77148
912.6550, 2.230469
913.1371, 35.43262
913.6192, 36.49902
914.1013, 22.09863
914.5834, 75.44336
915.0656, 72.41309
915.5477, 40.30371
916.0298, 46.16211
916.5119, 110.5039
916.9940, 135.2393
917.4761, 90.71777
917.9583, 48.51660
918.4404, 19.09570
918.9225, 3.181641
919.4046, 5.374023
919.8867, 21.86230
920.3688, 40.40625
920.8510, 70.11719
921.3331, 79.47168
921.8152, 34.87891
922.2973, 1.925781
922.7794, 25.83984
923.2615, 69.97949
923.7437, 84.94629
924.2258, 70.83789
924.7079, 64.96777
925.1900, 95.55371
925.6721, 108.2480
926.1542, 55.73047
926.6364, 0.2128910
927.1185, 4.429688
927.6006, 22.52930
928.0827, 43.43262
928.5648, 49.88770
929.0469, 55.06543
929.5291, 70.81543
930.0112, 82.51660
930.4933, 70.42285
930.9754, 54.23535
931.4575, 61.92871
931.9396, 87.12695
932.4218, 105.7246
932.9039, 108.9395
933.3860, 104.8262
933.8681, 95.98145
934.3502, 87.84375
934.8323, 94.35449
935.3145, 104.6943
935.7966, 89.45508
936.2787, 52.21289
936.7608, 31.41992
937.2429, 47.59961
937.7250, 69.22461
938.2072, 44.04590
938.6893, 0.3808590
939.1714, 7.641602
939.6535, 55.51562
940.1356, 94.59473
940.6177, 114.9219
941.0999, 122.6875
941.5820, 120.7666
942.0641, 116.5986
942.5462, 127.6904
943.0283, 149.4707
943.5104, 157.4316
943.9926, 149.8154
944.4747, 134.0381
944.9568, 113.0068
945.4389, 107.1924
945.9210, 139.5986
946.4031, 188.5117
946.8853, 183.0215
947.3674, 120.9795
947.8495, 97.27051
948.3316, 121.8027
948.8137, 158.0117
949.2958, 195.9375
949.7780, 217.5312
950.2601, 197.2246
950.7422, 146.5215
951.2243, 132.3906
951.7064, 163.9395
952.1885, 169.1611
952.6707, 132.2383
953.1528, 102.9092
953.6349, 103.7344
954.1170, 126.2568
954.5991, 167.3701
955.0812, 224.3135
955.5634, 226.5693
956.0455, 145.3857
956.5276, 95.77051
957.0097, 101.4443
957.4918, 121.8184
957.9739, 143.0234
958.4561, 156.8623
958.9382, 144.8457
959.4203, 103.0117
959.9024, 91.94629
960.3845, 135.1963
960.8666, 162.6768
961.3488, 148.0703
961.8309, 130.6787
962.3130, 138.1914
962.7951, 157.2725
963.2772, 160.9922
963.7593, 142.6729
964.2415, 144.3779
964.7236, 200.1328
965.2057, 226.5537
965.6878, 180.3613
966.1699, 129.1133
966.6520, 108.3457
967.1342, 115.7695
967.6163, 154.6953
968.0984, 244.4551
968.5805, 286.8877
969.0626, 238.9922
969.5447, 194.7217
970.0269, 177.2500
970.5090, 172.0498
970.9911, 171.4531
971.4732, 173.4541
971.9553, 168.2031
972.4374, 143.1152
972.9196, 142.1104
973.4017, 200.5400
973.8838, 246.4189
974.3659, 251.2979
974.8480, 235.5430
975.3301, 211.5010
975.8123, 182.8809
976.2944, 155.2803
976.7765, 125.0596
977.2586, 111.4912
977.7407, 138.5088
978.2228, 159.3779
978.7050, 140.9092
979.1871, 116.3164
979.6692, 127.9072
980.1513, 163.6758
980.6334, 171.7822
981.1155, 130.3076
981.5977, 94.68750
982.0798, 77.35156
982.5619, 74.60059
983.0440, 99.17578
983.5261, 126.5449
984.0082, 127.9229
984.4904, 106.8730
984.9725, 86.84180
985.4546, 71.29590
985.9367, 66.58398
986.4188, 89.30273
986.9009, 107.2295
987.3831, 95.25977
987.8652, 72.32715
988.3473, 57.55176
988.8294, 53.84375
989.3115, 63.32031
989.7936, 97.68164
990.2758, 112.1885
990.7579, 62.54199
991.2400, 15.45020
991.7221, 25.03223
992.2042, 54.60352
992.6863, 55.86621
993.1685, 29.80273
993.6506, 8.034180
994.1327, 0.7187500
994.6148, 0.8359380
995.0969, 28.22070
995.5790, 47.88574
996.0612, 20.73047
996.5433, 17.50781
997.0254, 19.05273
997.5075, 15.22852
997.9896, 54.90430
998.4717, 97.90234
998.9539, 119.8887
999.4360, 101.4092
999.9181, 66.83496
1000.400, 15.48730
1000.882, 30.25488
1001.364, 38.31152
1001.847, 13.54590
1002.329, 11.08496
1002.811, 28.28027
1003.293, 31.54297
1003.775, 1.242188
1004.257, 28.32812
1004.739, 14.96289
1005.221, 17.36035
1005.703, 48.04004
1006.186, 70.08594
1006.668, 71.34863
1007.150, 38.61621
1007.632, 15.81836
1008.114, 32.97559
1008.596, 55.61719
1009.078, 64.19531
1009.560, 63.46875
1010.043, 60.72852
1010.525, 55.73340
1011.007, 42.69336
1011.489, 16.50000
1011.971, 5.718750
1012.453, 18.58789
1012.935, 23.17383
1013.417, 15.46973
1013.899, 3.201172
1014.382, 6.440430
1014.864, 12.67480
1015.346, 15.46387
1015.828, 12.37891
1016.310, 16.35938
1016.792, 50.70605
1017.274, 71.71777
1017.756, 30.03516
1018.239, 16.81152
1018.721, 1.877930
1019.203, 67.33691
1019.685, 106.3818
1020.167, 95.55469
1020.649, 92.07422
1021.131, 136.5811
1021.613, 165.1826
1022.095, 129.2920
1022.578, 80.43945
1023.060, 69.56250
1023.542, 85.18262
1024.024, 85.06836
1024.506, 55.80176
1024.988, 49.03027
1025.470, 111.6084
1025.952, 155.0820
1026.435, 124.9219
1026.917, 82.52832
1027.399, 78.97168
1027.881, 101.2031
1028.363, 114.7520
1028.845, 113.7588
1029.327, 116.6514
1029.809, 122.4629
1030.292, 138.4697
1030.774, 180.6641
1031.256, 219.6758
1031.738, 229.9434
1032.220, 225.5703
1032.702, 230.6113
1033.184, 246.7002
1033.666, 274.1357
1034.148, 324.0488
1034.630, 368.9307
1035.113, 417.4893
1035.595, 445.6650
1036.077, 420.8291
1036.559, 377.4590
1037.041, 369.1553
1037.523, 397.7988
1038.005, 419.0010
1038.487, 436.7910
1038.970, 439.6582
1039.452, 411.4629
1039.934, 388.4932
1040.416, 392.9004
1040.898, 405.2744
1041.380, 399.8574
1041.862, 379.2051
1042.344, 372.7139
1042.826, 390.3750
1043.309, 399.7305
1043.791, 391.5303
1044.273, 391.3389
1044.755, 421.1562
1045.237, 444.0400
1045.719, 412.5596
1046.201, 344.2588
1046.683, 326.5986
1047.166, 386.8994
1047.648, 400.3086
1048.130, 346.6045
1048.612, 303.4785
1049.094, 295.0654
1049.576, 303.9854
1050.058, 319.9316
1050.540, 331.7432
1051.022, 307.8428
1051.505, 239.9736
1051.987, 227.3838
1052.469, 279.1592
1052.951, 319.5303
1053.433, 329.4102
1053.915, 333.5752
1054.397, 350.4961
1054.879, 361.6436
1055.361, 321.3633
1055.844, 237.1514
1056.326, 221.9297
1056.808, 275.2227
1057.290, 305.6143
1057.772, 297.2734
1058.254, 289.3623
1058.736, 300.8232
1059.218, 318.5898
1059.701, 326.0371
1060.183, 325.2969
1060.665, 321.6367
1061.147, 316.9688
1061.629, 325.9160
1062.111, 344.9258
1062.593, 349.4941
1063.075, 329.9102
1063.557, 299.1299
1064.040, 266.3896
1064.522, 239.8574
1065.004, 242.1572
1065.486, 259.7998
1065.968, 258.0029
1066.450, 240.2803
1066.932, 224.8691
1067.414, 218.3896
1067.896, 228.3379
1068.379, 265.5332
1068.861, 299.4629
1069.343, 288.3096
1069.825, 257.7021
1070.307, 240.9082
1070.789, 234.7266
1071.271, 230.0508
1071.753, 224.8369
1072.236, 220.2939
1072.718, 217.9385
1073.200, 207.6924
1073.682, 166.3740
1074.164, 131.0898
1074.646, 138.7002
1075.128, 166.1836
1075.610, 192.8564
1076.093, 210.5713
1076.575, 213.3027
1077.057, 197.6074
1077.539, 177.7490
1078.021, 143.7246
1078.503, 128.3701
1078.985, 170.9922
1079.467, 213.8145
1079.949, 202.2949
1080.432, 164.8262
1080.914, 153.1240
1081.396, 171.8115
1081.878, 185.8672
1082.360, 189.5107
1082.842, 187.4277
1083.324, 165.2803
1083.806, 155.5225
1084.288, 195.2168
1084.771, 237.8379
1085.253, 223.0049
1085.735, 164.9121
1086.217, 133.2666
1086.699, 135.7598
1087.181, 145.1699
1087.663, 165.5127
1088.145, 186.3906
1088.628, 217.2080
1089.110, 222.6650
1089.592, 161.3926
1090.074, 75.85742
1090.556, 63.74121
1091.038, 128.7539
1091.520, 158.8252
1092.002, 149.0967
1092.484, 131.3037
1092.967, 107.8721
1093.449, 96.26855
1093.931, 107.2227
1094.413, 122.7559
1094.895, 118.2012
1095.377, 101.4912
1095.859, 107.1445
1096.341, 130.1270
1096.823, 127.3682
1097.306, 98.35840
1097.788, 73.25781
1098.270, 61.90527
1098.752, 57.17188
1099.234, 54.83691
1099.716, 50.20898
1100.198, 27.61133
1100.680, 2.001953
1101.163, 14.47070
1101.645, 47.37695
1102.127, 44.91113
1102.609, 9.284180
1103.091, 0.6748050
1103.573, 44.23242
1104.055, 89.18945
1104.537, 83.40625
1105.020, 62.98145
1105.502, 65.20312
1105.984, 68.96289
1106.466, 34.56641
1106.948, 16.14453
1107.430, 23.06543
1107.912, 23.12012
1108.394, 51.74316
1108.876, 12.53613
1109.359, 16.71387
1109.841, 5.113281
1110.323, 31.98828
1110.805, 36.20117
1111.287, 29.26270
1111.769, 24.78711
1112.251, 23.64160
1112.733, 23.93945
1113.215, 25.39258
1113.698, 28.76270
1114.180, 38.29004
1114.662, 42.63086
1115.144, 36.06934
1115.626, 28.71777
1116.108, 29.65918
1116.590, 31.60352
1117.072, 22.57422
1117.555, 2.642578
1118.037, 12.27930
1118.519, 24.00781
1119.001, 27.57129
1119.483, 21.54688
1119.965, 13.07910
1120.447, 5.526367
1120.929, 9.481445
1121.411, 40.16016
1121.894, 78.66895
1122.376, 110.8955
1122.858, 134.6426
1123.340, 134.1475
1123.822, 113.1689
1124.304, 92.92383
1124.786, 78.61621
1125.268, 65.88867
1125.750, 52.33887
1126.233, 46.12109
1126.715, 62.41211
1127.197, 86.27148
1127.679, 99.78906
1128.161, 104.8408
1128.643, 100.5508
1129.125, 92.28613
1129.607, 95.12598
1130.090, 108.4180
1130.572, 114.7793
1131.054, 101.5020
1131.536, 85.59180
1132.018, 70.83887
1132.500, 62.03027
1132.982, 71.20117
1133.464, 81.64355
1133.947, 65.37305
1134.429, 31.70801
1134.911, 25.22168
1135.393, 64.13477
1135.875, 85.88281
1136.357, 74.63184
1136.839, 61.16016
1137.321, 43.85938
1137.803, 36.15527
1138.286, 53.02051
1138.768, 74.68457
1139.250, 69.08691
1139.732, 40.64746
1140.214, 34.15820
1140.696, 54.37793
1141.178, 54.70508
1141.660, 28.71973
1142.142, 27.34570
1142.625, 68.92676
1143.107, 101.7500
1143.589, 83.82031
1144.071, 43.16016
1144.553, 24.03613
1145.035, 23.31738
1145.517, 38.80957
1145.999, 63.29395
1146.482, 72.06543
1146.964, 66.62988
1147.446, 67.72363
1147.928, 83.05664
1148.410, 105.4258
1148.892, 137.4512
1149.374, 160.7246
1149.856, 148.8369
1150.339, 129.5186
1150.821, 133.6104
1151.303, 147.1709
1151.785, 141.8691
1152.267, 122.8398
1152.749, 125.4375
1153.231, 165.8916
1153.713, 191.4434
1154.195, 171.6006
1154.677, 162.5322
1155.160, 186.8018
1155.642, 221.5596
1156.124, 274.5840
1156.606, 311.0547
1157.088, 267.1338
1157.570, 153.2090
1158.052, 95.80859
1158.534, 108.1875
1159.017, 118.0859
1159.499, 123.0791
1159.981, 118.6562
1160.463, 102.2432
1160.945, 84.76758
1161.427, 74.43945
1161.909, 66.52051
1162.391, 50.83496
1162.874, 32.05664
1163.356, 25.44629
1163.838, 28.90137
1164.320, 37.21484
1164.802, 48.05273
1165.284, 59.69531
1165.766, 73.54883
1166.248, 93.17188
1166.730, 128.7100
1167.213, 152.6621
1167.695, 137.2246
1168.177, 106.2363
1168.659, 71.54395
1169.141, 41.00098
1169.623, 23.08887
1170.105, 16.14844
1170.587, 12.65625
1171.069, 10.59961
1171.552, 17.41602
1172.034, 55.24316
1172.516, 69.49707
1172.998, 27.10449
1173.480, 3.502930
1173.962, 17.30078
1174.444, 46.56348
1174.926, 32.91699
1175.409, 3.432617
1175.891, 17.32910
1176.373, 104.6816
1176.855, 116.6270
1177.337, 50.25684
1177.819, 0.6425780
1178.301, 14.36133
1178.783, 11.28809
1179.266, 1.798828
1179.748, 17.96191
1180.230, 32.68555
1180.712, 40.67578
1181.194, 24.58398
1181.676, 1.423828
1182.158, 0.5400390
1182.640, 14.82422
1183.122, 45.26562
1183.604, 80.79297
1184.087, 87.41211
1184.569, 48.26270
1185.051, 16.71973
1185.533, 29.30176
1186.015, 38.16406
1186.497, 7.373047
1186.979, 17.41699
1187.461, 8.179688
1187.944, 51.17285
1188.426, 63.02930
1188.908, 48.32520
1189.390, 36.96094
1189.872, 28.31543
1190.354, 25.93945
1190.836, 30.63867
1191.318, 39.73535
1191.801, 54.35059
1192.283, 58.51367
1192.765, 41.12891
1193.247, 25.82324
1193.729, 46.87500
1194.211, 84.68359
1194.693, 89.36035
1195.175, 72.68262
1195.657, 62.16406
1196.140, 59.76562
1196.622, 67.79297
1197.104, 82.83984
1197.586, 87.87402
1198.068, 73.62891
1198.550, 66.26758
1199.032, 98.80371
1199.514, 122.2041
1199.996, 93.26465
1200.479, 59.87305
1200.961, 63.82715
1201.443, 85.08398
1201.925, 90.95410
1202.407, 82.85059
1202.889, 85.20703
1203.371, 104.7881
1203.853, 105.2480
1204.336, 73.44629
1204.818, 57.64648
1205.300, 67.22168
1205.782, 84.60352
1206.264, 107.2471
1206.746, 131.8135
1207.228, 152.8887
1207.710, 160.4580
1208.193, 126.8906
1208.675, 67.33203
1209.157, 22.97363
1209.639, 3.744141
1210.121, 15.53027
1210.603, 7.484375
1211.085, 5.815430
1211.567, 19.12695
1212.049, 40.54395
1212.531, 97.99609
1213.014, 134.3477
1213.496, 99.33496
1213.978, 55.09277
1214.460, 35.21875
1214.942, 37.29199
1215.424, 72.93945
1215.906, 124.2168
1216.388, 124.3691
1216.871, 60.11035
1217.353, 28.91406
1217.835, 40.27441
1218.317, 41.24609
1218.799, 20.68164
1219.281, 20.28320
1219.763, 59.07422
1220.245, 104.2441
1220.728, 128.4756
1221.210, 131.1699
1221.692, 82.42773
1222.174, 28.67383
1222.656, 54.87207
1223.138, 112.2520
1223.620, 96.58203
1224.102, 26.73926
1224.584, 7.567383
1225.067, 15.33789
1225.549, 50.46191
1226.031, 97.60352
1226.513, 116.9199
1226.995, 72.23047
1227.477, 27.95996
1227.959, 7.884766
1228.441, 4.520508
1228.923, 4.306641
1229.406, 23.71777
1229.888, 54.79492
1230.370, 93.95801
1230.852, 99.92383
1231.334, 78.80859
1231.816, 47.75879
1232.298, 10.91895
1232.780, 0.0000000E+00
##END=



