##NAMES=Carrollite
##RRUFFID=R040165
##IDEAL CHEMISTRY=Cu^1+^Co^3+^_2_S_4_
##LOCALITY=Katanga, Democratic Republic of the Congo
##OWNER=RRUFF
##SOURCE=University of Arizona Mineral Museum
##DESCRIPTION=Steel gray octahedral crystals that have a tarnished exterior
##STATUS=The identification of this mineral has been confirmed by X-ray diffraction and chemical analysis
##URL=rruff.info/R040165
##MEASURED CHEMISTRY=(Cu_0.97_Fe_0.03_)Co_1.98_S_4_
153.7966, 0.0000000E+00
154.2787, 1.123810
154.7608, 1.365692
155.2429, 0.3935550
155.7250, 3.2837000E-02
156.2072, 0.3803100
156.6893, 0.8937990
157.1714, 1.975983
157.6535, 2.567749
158.1356, 2.621979
158.6177, 2.234741
159.0999, 1.615448
159.5820, 0.9368590
160.0641, 0.1942440
160.5462, 6.2224999E-02
161.0283, 1.274689
161.5104, 2.605591
161.9926, 3.032257
162.4747, 2.440674
162.9568, 1.722809
163.4389, 1.999634
163.9210, 3.233368
164.4031, 3.893005
164.8853, 3.153717
165.3674, 1.785248
165.8495, 1.046600
166.3316, 1.293488
166.8137, 1.832489
167.2958, 2.039032
167.7780, 2.007599
168.2601, 2.076294
168.7422, 2.493683
169.2243, 3.152954
169.7064, 3.629517
170.1885, 3.864960
170.6707, 4.006927
171.1528, 4.212158
171.6349, 4.410919
172.1170, 4.388580
172.5991, 4.043091
173.0812, 3.385437
173.5634, 2.798584
174.0455, 2.213104
174.5276, 1.829285
175.0097, 1.765961
175.4918, 1.960205
175.9739, 2.416382
176.4561, 2.868866
176.9382, 3.667999
177.4203, 4.080261
177.9024, 2.891479
178.3845, 1.708832
178.8666, 1.245300
179.3488, 1.468536
179.8309, 2.252106
180.3130, 2.921265
180.7951, 3.830597
181.2772, 4.554565
181.7593, 5.267395
182.2415, 5.842926
182.7236, 6.018158
183.2057, 5.515533
183.6878, 4.722168
184.1699, 4.258698
184.6520, 4.671875
185.1342, 4.873291
185.6163, 4.880371
186.0984, 4.677826
186.5805, 4.191681
187.0626, 3.390076
187.5447, 2.478333
188.0269, 1.758789
188.5090, 1.166351
188.9911, 0.9159850
189.4732, 1.228668
189.9553, 1.882751
190.4374, 2.591370
190.9196, 3.336578
191.4017, 3.986877
191.8838, 4.332428
192.3659, 4.369568
192.8480, 4.335449
193.3301, 4.462891
193.8123, 4.633392
194.2944, 4.352448
194.7765, 3.218506
195.2586, 1.918304
195.7407, 1.192841
196.2228, 1.051971
196.7050, 1.030212
197.1871, 0.7347410
197.6692, 0.1879270
198.1513, 0.1040340
198.6334, 0.2739260
199.1155, 0.6745910
199.5977, 0.5384830
200.0798, 0.1302800
200.5619, 0.7369380
201.0440, 0.5336000
201.5261, 0.6756900
202.0082, 1.397766
202.4904, 0.9510800
202.9725, 0.3164060
203.4546, 5.3986002E-02
203.9367, 9.8113999E-02
204.4188, 7.6600001E-03
204.9009, 8.2457997E-02
205.3831, 0.5218510
205.8652, 0.4887080
206.3473, 0.5735470
206.8294, 1.675140
207.3115, 2.246643
207.7936, 2.197968
208.2758, 1.807678
208.7579, 1.459442
209.2400, 1.238220
209.7221, 0.8601680
210.2042, 0.1235050
210.6863, 0.6023560
211.1685, 1.082123
211.6506, 1.181091
212.1327, 1.087128
212.6148, 0.9393920
213.0969, 0.7744450
213.5790, 0.4425660
214.0612, 0.1812130
214.5433, 0.8995360
215.0254, 1.636627
215.5075, 2.350830
215.9896, 2.921722
216.4717, 3.144287
216.9539, 2.774841
217.4360, 2.629761
217.9181, 2.871948
218.4002, 3.268341
218.8823, 3.558044
219.3644, 3.668976
219.8466, 3.821106
220.3287, 4.432861
220.8108, 5.675385
221.2929, 6.393341
221.7750, 6.054260
222.2571, 5.251862
222.7393, 4.794067
223.2214, 4.901184
223.7035, 5.029205
224.1856, 4.199371
224.6677, 2.487335
225.1498, 1.505554
225.6320, 2.262329
226.1141, 3.860840
226.5962, 4.753418
227.0783, 4.525269
227.5604, 4.079468
228.0425, 4.433777
228.5247, 5.393463
229.0068, 6.188690
229.4889, 6.440460
229.9710, 6.326416
230.4531, 6.173340
230.9352, 5.886139
231.4174, 5.841980
231.8995, 6.641144
232.3816, 7.950531
232.8637, 8.825775
233.3458, 8.458710
233.8279, 7.271698
234.3101, 6.640686
234.7922, 6.757843
235.2743, 7.212433
235.7564, 7.786194
236.2385, 8.466278
236.7206, 9.250336
237.2028, 10.24640
237.6849, 11.35822
238.1670, 12.18076
238.6491, 12.69476
239.1312, 12.89993
239.6133, 12.53799
240.0955, 11.94595
240.5776, 11.70560
241.0597, 12.25595
241.5418, 13.40652
242.0239, 14.23364
242.5060, 14.56122
242.9882, 14.78549
243.4703, 14.96460
243.9524, 15.13824
244.4345, 15.33130
244.9166, 15.53186
245.3987, 15.78900
245.8809, 16.36758
246.3630, 17.76431
246.8451, 18.83167
247.3272, 19.10736
247.8093, 19.01431
248.2914, 19.11395
248.7736, 19.72354
249.2557, 20.69153
249.7378, 21.40182
250.2199, 21.75665
250.7020, 21.93378
251.1841, 21.72888
251.6663, 21.44016
252.1484, 21.46997
252.6305, 22.01608
253.1126, 22.86664
253.5947, 23.36621
254.0768, 23.38620
254.5590, 23.16080
255.0411, 22.42932
255.5232, 21.55426
256.0053, 20.97363
256.4874, 20.91086
256.9695, 21.15375
257.4517, 21.19797
257.9338, 20.53006
258.4159, 20.22067
258.8980, 20.77512
259.3801, 21.59064
259.8622, 21.86627
260.3444, 21.34384
260.8265, 20.43793
261.3086, 19.93005
261.7907, 20.12399
262.2728, 20.33765
262.7549, 20.85986
263.2371, 21.21362
263.7192, 20.83051
264.2013, 19.61966
264.6834, 18.11731
265.1655, 17.17819
265.6476, 17.10336
266.1298, 16.91196
266.6119, 16.37579
267.0940, 15.83157
267.5761, 15.78998
268.0582, 16.30869
268.5403, 16.63232
269.0225, 15.84076
269.5046, 13.61154
269.9867, 11.81158
270.4688, 10.49524
270.9509, 9.629272
271.4330, 9.385315
271.9152, 9.752594
272.3973, 10.15948
272.8794, 10.08411
273.3615, 9.472351
273.8436, 8.877594
274.3257, 8.288635
274.8079, 7.722137
275.2900, 7.206635
275.7721, 6.739532
276.2542, 6.287201
276.7363, 5.774872
277.2184, 5.250092
277.7006, 4.953247
278.1827, 5.026855
278.6648, 5.218018
279.1469, 5.378326
279.6290, 5.506042
280.1111, 5.646240
280.5933, 5.912994
281.0754, 6.166046
281.5575, 6.014160
282.0396, 5.230011
282.5217, 4.326263
283.0038, 3.465607
283.4860, 2.703064
283.9681, 2.315277
284.4502, 2.563080
284.9323, 3.156097
285.4144, 3.483063
285.8965, 3.530945
286.3787, 3.376190
286.8608, 2.863892
287.3429, 2.136475
287.8250, 1.725311
288.3071, 1.877411
288.7892, 2.332153
289.2714, 2.720734
289.7535, 3.043427
290.2356, 3.316986
290.7177, 3.669342
291.1998, 3.982941
291.6819, 3.872864
292.1641, 3.092133
292.6462, 2.184448
293.1283, 1.787689
293.6104, 1.839111
294.0925, 1.892548
294.5746, 1.609680
295.0568, 1.238678
295.5389, 1.360626
296.0210, 2.183838
296.5031, 3.076172
296.9852, 3.457733
297.4673, 3.472290
297.9495, 3.463623
298.4316, 3.675751
298.9137, 3.877411
299.3958, 3.617371
299.8779, 2.776520
300.3600, 2.009827
300.8422, 1.843689
301.3243, 2.039917
301.8064, 2.224152
302.2885, 2.303497
302.7706, 2.349091
303.2527, 2.495728
303.7349, 2.761658
304.2170, 2.858978
304.6991, 2.490753
305.1812, 1.949188
305.6633, 1.607880
306.1454, 1.502869
306.6276, 1.630341
307.1097, 2.275848
307.5918, 3.378357
308.0739, 3.789795
308.5560, 2.687469
309.0381, 1.099274
309.5203, 0.2039790
310.0024, 6.9518998E-02
310.4845, 0.1683960
310.9666, 0.1209410
311.4487, 8.7280003E-03
311.9308, 0.1748960
312.4130, 1.015076
312.8951, 1.783051
313.3772, 1.694305
313.8593, 0.8746340
314.3414, 0.1377870
314.8235, 5.3467002E-02
315.3057, 0.1322940
315.7878, 0.2807920
316.2699, 0.3820800
316.7520, 0.3897090
317.2341, 7.3638998E-02
317.7162, 0.3687740
318.1984, 0.4633480
318.6805, 0.2293400
319.1626, 1.249115
319.6447, 1.847839
320.1268, 1.958862
320.6089, 1.994415
321.0911, 2.243744
321.5732, 2.572693
322.0553, 2.756683
322.5374, 2.685089
323.0195, 2.400146
323.5016, 1.831024
323.9838, 0.9668880
324.4659, 0.5992740
324.9480, 1.473541
325.4301, 2.695618
325.9122, 3.098907
326.3943, 2.487274
326.8765, 1.763000
327.3586, 1.565460
327.8407, 1.821350
328.3228, 2.144745
328.8049, 2.479034
329.2870, 2.813782
329.7692, 3.210083
330.2513, 3.651123
330.7334, 3.888855
331.2155, 3.678833
331.6976, 3.189880
332.1797, 2.828796
332.6619, 2.679626
333.1440, 2.540192
333.6261, 2.066437
334.1082, 1.452240
334.5903, 1.214691
335.0724, 1.727631
335.5546, 2.598206
336.0367, 3.400696
336.5188, 4.137756
337.0009, 4.672852
337.4830, 4.843933
337.9651, 4.792175
338.4473, 4.769653
338.9294, 4.779022
339.4115, 4.855499
339.8936, 5.105164
340.3757, 5.475189
340.8578, 5.647034
341.3400, 5.380127
341.8221, 4.991302
342.3042, 5.043518
342.7863, 5.653107
343.2684, 6.038208
343.7505, 5.478699
344.2327, 4.425293
344.7148, 4.081116
345.1969, 4.905792
345.6790, 6.008759
346.1611, 6.251801
346.6432, 5.719025
347.1254, 5.002747
347.6075, 3.962708
348.0896, 2.981110
348.5717, 2.570984
349.0538, 2.787506
349.5359, 3.405853
350.0181, 4.396942
350.5002, 5.520721
350.9823, 6.058533
351.4644, 5.553131
351.9465, 4.878387
352.4286, 4.415955
352.9108, 4.121460
353.3929, 4.030090
353.8750, 4.209198
354.3571, 4.602844
354.8392, 5.057587
355.3214, 5.726685
355.8035, 6.085999
356.2856, 5.636261
356.7677, 4.802795
357.2498, 4.406464
357.7319, 4.738495
358.2141, 5.308838
358.6962, 5.438873
359.1783, 5.086395
359.6604, 4.597137
360.1425, 3.795349
360.6246, 3.000671
361.1068, 2.589722
361.5889, 2.590881
362.0710, 2.629059
362.5531, 2.282349
363.0352, 1.605804
363.5173, 1.301575
363.9995, 1.742645
364.4816, 2.147430
364.9637, 2.053558
365.4458, 1.619324
365.9279, 1.266449
366.4100, 1.209229
366.8922, 1.390839
367.3743, 1.646423
367.8564, 2.156647
368.3385, 2.476807
368.8206, 2.246857
369.3027, 1.925140
369.7849, 2.209747
370.2670, 3.258789
370.7491, 4.386688
371.2312, 4.607574
371.7133, 3.516785
372.1954, 2.690979
372.6776, 2.279633
373.1597, 1.990356
373.6418, 1.593414
374.1239, 1.127411
374.6060, 0.8064880
375.0881, 0.8103030
375.5703, 1.127563
376.0524, 1.434113
376.5345, 2.030609
377.0166, 2.293030
377.4987, 1.884155
377.9808, 1.102844
378.4630, 0.2550350
378.9451, 0.5226750
379.4272, 1.027618
379.9093, 0.6824340
380.3914, 1.641235
380.8735, 2.898499
381.3557, 2.339661
381.8378, 1.253265
382.3199, 0.4061580
382.8020, 2.4400000E-04
383.2841, 1.0559000E-02
383.7662, 0.5060120
384.2484, 1.600830
384.7305, 2.372253
385.2126, 2.719482
385.6947, 2.814575
386.1768, 2.449890
386.6589, 1.881012
387.1411, 1.613251
387.6232, 2.011871
388.1053, 2.833008
388.5874, 3.163788
389.0695, 2.674042
389.5516, 2.309967
390.0338, 2.431671
390.5159, 2.681091
390.9980, 2.762573
391.4801, 2.592072
391.9622, 2.216980
392.4443, 1.585144
392.9265, 0.6430050
393.4086, 5.7069999E-03
393.8907, 7.8583002E-02
394.3728, 1.4618000E-02
394.8549, 4.3152001E-02
395.3370, 0.1548160
395.8192, 0.2637330
396.3013, 0.3514400
396.7834, 0.3932500
397.2655, 0.2810060
397.7476, 4.6599999E-02
398.2297, 0.3695980
398.7119, 0.5254520
399.1940, 0.6206670
399.6761, 0.8216250
400.1582, 1.244019
400.6403, 1.614563
401.1224, 1.653870
401.6046, 1.370514
402.0867, 0.8863830
402.5688, 1.6144000E-02
403.0509, 0.8096010
403.5330, 0.8308720
404.0151, 7.2967999E-02
404.4973, 0.7567750
404.9794, 1.656921
405.4615, 2.342773
405.9436, 2.065002
406.4257, 0.6108700
406.9078, 0.7270810
407.3900, 0.6584780
407.8721, 0.5039670
408.3542, 1.026703
408.8363, 0.1087340
409.3184, 0.8626100
409.8005, 0.8347170
410.2827, 7.1381003E-02
410.7648, 0.4860530
411.2469, 0.3970030
411.7290, 7.7239998E-02
412.2111, 0.3652950
412.6932, 0.4383850
413.1754, 0.4400330
413.6575, 0.4528810
414.1396, 0.3765870
414.6217, 7.9650003E-03
415.1038, 0.6512760
415.5859, 1.257538
416.0681, 1.440979
416.5502, 1.144836
417.0323, 1.033875
417.5144, 1.459137
417.9965, 1.675537
418.4786, 0.9732360
418.9608, 0.1145020
419.4429, 0.4494020
419.9250, 0.5927430
420.4071, 2.428314
420.8892, 3.430206
421.3713, 2.954132
421.8535, 2.563812
422.3356, 2.386230
422.8177, 2.252563
423.2998, 1.982330
423.7819, 1.583740
424.2640, 1.259399
424.7462, 1.244385
425.2283, 1.564392
425.7104, 1.795868
426.1925, 1.770996
426.6746, 1.839874
427.1567, 2.213318
427.6389, 2.719421
428.1210, 3.106964
428.6031, 3.264160
429.0852, 3.212585
429.5673, 2.899445
430.0494, 2.160065
430.5316, 1.751007
431.0137, 2.172760
431.4958, 2.777496
431.9779, 3.264252
432.4600, 3.576721
432.9421, 3.631622
433.4243, 3.085083
433.9064, 2.168488
434.3885, 1.984772
434.8706, 2.876373
435.3527, 3.818939
435.8348, 4.111633
436.3170, 4.014648
436.7991, 3.920532
437.2812, 3.995605
437.7633, 4.058228
438.2454, 3.784973
438.7275, 3.209747
439.2097, 2.918396
439.6918, 3.164764
440.1739, 3.700500
440.6560, 4.203674
441.1381, 4.689392
441.6202, 5.098206
442.1024, 5.286377
442.5845, 5.453827
443.0666, 5.910767
443.5487, 6.660248
444.0308, 7.319794
444.5129, 7.550873
444.9951, 7.422211
445.4772, 7.605835
445.9593, 8.423187
446.4414, 9.130402
446.9235, 9.361816
447.4056, 9.382935
447.8878, 9.616150
448.3699, 10.20303
448.8520, 10.94540
449.3341, 11.55087
449.8162, 11.98691
450.2983, 12.35504
450.7805, 12.43854
451.2626, 12.65033
451.7447, 13.30435
452.2268, 14.29257
452.7089, 15.29327
453.1910, 16.09875
453.6732, 16.72141
454.1553, 17.17279
454.6374, 17.19891
455.1195, 17.51721
455.6016, 18.37506
456.0837, 19.44818
456.5659, 20.53363
457.0480, 21.57474
457.5301, 22.49060
458.0122, 23.11896
458.4943, 23.47028
458.9764, 24.01251
459.4586, 24.81451
459.9407, 25.73172
460.4228, 26.80472
460.9049, 27.85815
461.3870, 28.63977
461.8691, 28.94165
462.3513, 29.20410
462.8334, 30.03601
463.3155, 31.41443
463.7976, 32.81494
464.2797, 34.19543
464.7618, 35.29803
465.2440, 35.83267
465.7261, 35.84344
466.2082, 36.00729
466.6903, 36.68005
467.1724, 37.51413
467.6545, 38.30908
468.1367, 39.06180
468.6188, 39.52878
469.1009, 39.51685
469.5830, 39.05978
470.0651, 38.43900
470.5472, 37.70367
471.0294, 36.81433
471.5115, 35.75223
471.9936, 34.53345
472.4757, 33.21222
472.9578, 31.78659
473.4399, 30.13849
473.9221, 28.10263
474.4042, 25.57278
474.8863, 23.25851
475.3684, 20.83893
475.8505, 18.92026
476.3326, 18.19415
476.8148, 18.00998
477.2969, 17.20956
477.7790, 15.27625
478.2611, 12.88745
478.7432, 11.72134
479.2253, 12.43091
479.7075, 12.54120
480.1896, 11.24597
480.6717, 9.748993
481.1538, 8.588593
481.6359, 7.810577
482.1180, 7.287384
482.6002, 6.965302
483.0823, 6.827576
483.5644, 6.879761
484.0465, 7.207520
484.5286, 7.408173
485.0107, 7.257416
485.4929, 6.899780
485.9750, 6.466553
486.4571, 5.947021
486.9392, 5.498718
487.4213, 5.269257
487.9034, 5.175629
488.3856, 4.993622
488.8677, 4.667816
489.3498, 4.392883
489.8319, 4.395020
490.3140, 4.642914
490.7961, 4.700562
491.2783, 4.436981
491.7604, 4.145721
492.2425, 3.902466
492.7246, 3.737427
493.2067, 3.659729
493.6888, 3.701141
494.1710, 3.797791
494.6531, 3.923004
495.1352, 4.147522
495.6173, 4.254211
496.0994, 4.158630
496.5815, 4.045074
497.0637, 3.941040
497.5458, 3.893616
498.0279, 4.072815
498.5100, 4.624084
498.9921, 5.202393
499.4742, 4.780792
499.9564, 2.712158
500.4385, 1.298431
500.9206, 1.260254
501.4027, 1.626160
501.8848, 1.892670
502.3669, 2.041595
502.8491, 2.271698
503.3312, 2.872711
503.8133, 3.621704
504.2954, 3.895691
504.7775, 3.645630
505.2596, 3.137390
505.7418, 2.214539
506.2239, 1.260742
506.7060, 0.8341370
507.1881, 1.065643
507.6702, 1.489655
508.1523, 1.923218
508.6345, 2.335724
509.1166, 2.747467
509.5987, 3.217590
510.0808, 3.490845
510.5629, 3.263092
511.0450, 2.604919
511.5272, 2.330200
512.0093, 2.643524
512.4914, 3.027588
512.9735, 3.469788
513.4556, 3.847137
513.9377, 4.016113
514.4199, 3.936676
514.9020, 3.635529
515.3841, 3.090149
515.8662, 2.217255
516.3483, 1.670319
516.8304, 1.843384
517.3126, 1.945435
517.7947, 1.514038
518.2768, 0.9879460
518.7589, 1.181793
519.2410, 2.456146
519.7231, 3.826111
520.2053, 3.606323
520.6874, 1.634949
521.1695, 0.5564270
521.6516, 1.219940
522.1337, 2.222229
522.6158, 2.775543
523.0980, 2.892456
523.5801, 2.573730
524.0622, 1.366089
524.5443, 0.1711120
525.0264, 0.1221920
525.5085, 1.031433
525.9907, 1.813263
526.4728, 2.130188
526.9549, 2.070038
527.4370, 1.616669
527.9191, 0.6258540
528.4012, 0.1661680
528.8834, 0.7528080
529.3655, 1.553650
529.8476, 2.093750
530.3297, 2.358124
530.8118, 2.402405
531.2939, 2.240509
531.7761, 1.977448
532.2582, 1.912659
532.7403, 2.386627
533.2224, 2.405701
533.7045, 1.530579
534.1866, 0.6225280
534.6688, 0.2091980
535.1509, 0.2234800
535.6330, 0.2810670
536.1151, 8.6243004E-02
536.5972, 0.1741330
537.0793, 0.1228330
537.5615, 1.198151
538.0436, 1.918915
538.5257, 1.746307
539.0078, 1.237488
539.4899, 0.7553710
539.9720, 0.3363040
540.4542, 0.2066960
540.9363, 0.7398680
541.4184, 1.501160
541.9005, 1.892120
542.3826, 1.893799
542.8647, 1.673431
543.3469, 1.253143
543.8290, 0.7285460
544.3111, 0.3414000
544.7932, 9.7259998E-02
545.2753, 5.1971000E-02
545.7574, 8.3678998E-02
546.2396, 4.8553001E-02
546.7217, 6.7139000E-02
547.2038, 0.2208560
547.6859, 0.2566220
548.1680, 3.6040999E-02
548.6501, 0.3357540
549.1323, 0.3515010
549.6144, 0.4118650
550.0965, 0.7880860
550.5786, 0.1785280
551.0607, 0.4503780
551.5428, 0.2576290
552.0250, 0.6926270
552.5071, 1.606750
552.9892, 1.853088
553.4713, 1.633453
553.9534, 1.533142
554.4355, 1.588287
554.9177, 1.577240
555.3998, 1.388855
555.8819, 1.100189
556.3640, 0.8054200
556.8461, 0.4994810
557.3282, 0.2382510
557.8104, 6.4514004E-02
558.2925, 0.2539060
558.7746, 8.7981999E-02
559.2567, 0.4107060
559.7388, 1.006165
560.2209, 1.609711
560.7031, 2.130585
561.1852, 2.280060
561.6673, 1.724976
562.1494, 1.251648
562.6315, 0.9016720
563.1136, 0.6126100
563.5958, 0.3797910
564.0779, 0.1696170
564.5600, 0.1324770
565.0421, 0.6671450
565.5242, 1.249512
566.0063, 1.173065
566.4885, 0.1615600
566.9706, 0.6994630
567.4527, 1.201599
567.9348, 1.419189
568.4169, 1.148956
568.8990, 0.5137020
569.3812, 0.2698360
569.8633, 1.339905
570.3454, 2.757843
570.8275, 2.993622
571.3096, 2.112885
571.7917, 1.200409
572.2739, 0.6349490
572.7560, 0.3926700
573.2381, 0.5556340
573.7202, 1.374268
574.2023, 1.602875
574.6844, 0.4964600
575.1666, 0.6868290
575.6487, 1.148529
576.1308, 0.9583740
576.6129, 0.3980410
577.0950, 0.4075930
577.5771, 1.251617
578.0593, 1.650970
578.5414, 1.432343
579.0235, 1.235016
579.5056, 0.8729860
579.9877, 0.7505190
580.4698, 1.365601
580.9520, 2.350525
581.4341, 2.842194
581.9162, 2.328156
582.3983, 1.415466
582.8804, 0.8234860
583.3625, 0.5513610
583.8447, 0.6075130
584.3268, 1.061462
584.8089, 1.693787
585.2910, 2.463593
585.7731, 3.307312
586.2552, 3.542236
586.7374, 2.442322
587.2195, 1.428772
587.7016, 1.306641
588.1837, 1.754913
588.6658, 2.300598
589.1479, 2.775269
589.6301, 3.025757
590.1122, 2.801117
590.5943, 2.016479
591.0764, 1.570221
591.5585, 1.824432
592.0406, 1.996368
592.5228, 1.814972
593.0049, 1.496277
593.4870, 1.286224
593.9691, 1.247040
594.4512, 1.296204
594.9333, 1.446747
595.4155, 1.653931
595.8976, 1.714294
596.3797, 1.567963
596.8618, 1.508728
597.3439, 1.862122
597.8260, 2.353943
598.3082, 2.274261
598.7903, 1.268951
599.2724, 0.6024480
599.7545, 1.023315
600.2366, 1.768829
600.7188, 1.900482
601.2009, 1.459473
601.6830, 1.265381
602.1651, 1.926727
602.6472, 3.126709
603.1293, 3.658539
603.6115, 3.062531
604.0936, 2.645691
604.5757, 2.710327
605.0578, 2.775970
605.5399, 2.413483
606.0220, 1.779053
606.5042, 1.410217
606.9863, 1.793732
607.4684, 2.438477
607.9505, 2.428070
608.4326, 1.773956
608.9147, 1.042633
609.3969, 0.3099060
609.8790, 0.1665340
610.3611, 6.3873000E-02
610.8432, 0.9245910
611.3253, 1.468292
611.8074, 1.369141
612.2896, 1.168365
612.7717, 1.159576
613.2538, 1.238953
613.7359, 1.129486
614.2180, 0.7766420
614.7001, 0.5574950
615.1823, 1.001678
615.6644, 2.158569
616.1465, 2.744781
616.6286, 2.348328
617.1107, 1.980957
617.5928, 1.919220
618.0750, 1.986877
618.5571, 1.930756
619.0392, 1.720428
619.5213, 1.716248
620.0034, 2.460632
620.4855, 3.540649
620.9677, 3.988800
621.4498, 3.751526
621.9319, 3.302856
622.4140, 2.761566
622.8961, 2.226929
623.3782, 1.979004
623.8604, 2.141998
624.3425, 2.383942
624.8246, 2.702423
625.3067, 2.948120
625.7888, 2.994080
626.2709, 2.890045
626.7531, 2.738647
627.2352, 2.590485
627.7173, 2.512054
628.1994, 2.701599
628.6815, 3.282562
629.1636, 3.414215
629.6458, 2.679077
630.1279, 1.960876
630.6100, 1.666565
631.0921, 1.693634
631.5742, 1.918030
632.0563, 2.405609
632.5385, 2.770935
633.0206, 2.622009
633.5027, 2.150452
633.9848, 1.655579
634.4669, 1.208923
634.9490, 1.016998
635.4312, 1.254272
635.9133, 1.808533
636.3954, 2.160431
636.8775, 2.082520
637.3596, 2.101196
637.8417, 2.399719
638.3239, 2.666382
638.8060, 2.545624
639.2881, 2.172943
639.7702, 2.067017
640.2523, 2.629913
640.7344, 3.390717
641.2166, 3.310730
641.6987, 2.340027
642.1808, 1.682343
642.6629, 1.600647
643.1450, 1.832642
643.6271, 2.333893
644.1093, 2.991150
644.5914, 3.365356
645.0735, 3.249390
645.5556, 3.008942
646.0377, 2.766724
646.5198, 2.514832
647.0020, 2.237000
647.4841, 1.954224
647.9662, 1.805573
648.4483, 1.932465
648.9304, 2.297546
649.4125, 2.631866
649.8947, 2.911255
650.3768, 3.192108
650.8589, 3.652832
651.3410, 3.983124
651.8231, 3.933472
652.3052, 3.530731
652.7874, 2.987915
653.2695, 2.252380
653.7516, 1.579315
654.2337, 1.351135
654.7158, 1.484802
655.1979, 1.595917
655.6801, 1.562866
656.1622, 1.567108
656.6443, 1.877930
657.1264, 2.534271
657.6085, 2.684265
658.0906, 1.616791
658.5728, 1.001770
659.0549, 1.749725
659.5370, 2.831879
660.0191, 3.077240
660.5012, 2.397034
660.9833, 1.668640
661.4655, 1.722717
661.9476, 2.212067
662.4297, 1.908966
662.9118, 0.6682130
663.3939, 0.1850590
663.8760, 8.5114002E-02
664.3582, 0.3845830
664.8403, 0.5791020
665.3224, 0.5202330
665.8045, 0.3918760
666.2866, 2.1392999E-02
666.7687, 0.2414550
667.2509, 0.1715090
667.7330, 0.8903500
668.2151, 1.419495
668.6972, 1.620270
669.1793, 1.688171
669.6614, 1.779724
670.1436, 1.882111
670.6257, 2.057770
671.1078, 2.446075
671.5899, 2.507690
672.0720, 1.716858
672.5541, 0.8427730
673.0363, 0.5274350
673.5184, 0.7641600
674.0005, 1.057007
674.4826, 1.143555
674.9647, 1.230316
675.4468, 1.723175
675.9290, 2.395752
676.4111, 2.453827
676.8932, 1.641052
677.3753, 0.6315000
677.8574, 0.1838990
678.3395, 0.3156430
678.8217, 0.6466670
679.3038, 1.594818
679.7859, 2.202972
680.2680, 2.086823
680.7501, 1.716980
681.2322, 1.435425
681.7144, 1.320160
682.1965, 1.403656
682.6786, 1.890533
683.1607, 2.464417
683.6428, 2.543457
684.1249, 2.181061
684.6071, 1.814423
685.0892, 1.549805
685.5713, 1.415039
686.0534, 1.479584
686.5355, 1.761353
687.0176, 1.887299
687.4998, 1.646027
687.9819, 1.524719
688.4640, 1.819092
688.9461, 2.228088
689.4282, 2.241699
689.9103, 1.907745
690.3925, 1.635651
690.8746, 1.827820
691.3567, 2.208862
691.8388, 2.021667
692.3209, 1.255981
692.8030, 0.6887210
693.2852, 0.5532840
693.7673, 0.5986630
694.2494, 0.5431210
694.7315, 0.4034420
695.2136, 0.4103090
695.6957, 0.7559510
696.1779, 1.028381
696.6600, 0.8980410
697.1421, 0.7314760
697.6242, 1.097351
698.1063, 1.937408
698.5884, 2.570496
699.0706, 2.452515
699.5527, 1.803436
700.0348, 1.149536
700.5169, 0.4275820
700.9990, 0.1866150
701.4811, 0.8869930
701.9633, 1.596771
702.4454, 1.310730
702.9275, 0.3847050
703.4096, 3.5156000E-02
703.8917, 0.6016540
704.3738, 1.250336
704.8560, 1.551422
705.3381, 1.567749
705.8202, 1.150330
706.3023, 0.4552920
706.7844, 0.1609190
707.2665, 0.7795410
707.7487, 1.945282
708.2308, 2.674072
708.7129, 2.914124
709.1950, 2.954987
709.6771, 2.811615
710.1592, 2.493530
710.6414, 1.805389
711.1235, 0.9864810
711.6056, 0.5930480
712.0877, 0.9065250
712.5698, 1.204407
713.0519, 0.9829710
713.5341, 0.6506960
714.0162, 0.7999880
714.4983, 1.354156
714.9804, 1.743866
715.4625, 1.634705
715.9446, 1.242920
716.4268, 1.000366
716.9089, 0.9043270
717.3910, 0.9755250
717.8731, 1.327698
718.3552, 1.692688
718.8373, 2.058044
719.3195, 2.314636
719.8016, 2.252197
720.2837, 1.784424
720.7658, 1.329742
721.2479, 1.084473
721.7300, 0.9542850
722.2122, 0.7868350
722.6943, 0.6267700
723.1764, 0.7153320
723.6585, 1.168915
724.1406, 1.675201
724.6227, 1.791779
725.1049, 1.504852
725.5870, 1.048309
726.0691, 0.2720030
726.5512, 0.4271240
727.0333, 1.152618
727.5154, 1.594330
727.9976, 1.307220
728.4797, 0.2748110
728.9618, 0.8118590
729.4439, 1.889587
729.9260, 2.699249
730.4081, 2.846008
730.8903, 2.552551
731.3724, 2.370697
731.8545, 2.454010
732.3366, 2.538544
732.8187, 2.342102
733.3008, 1.884674
733.7830, 1.361389
734.2651, 0.5934450
734.7472, 0.1506350
735.2293, 0.3928830
735.7114, 0.8192440
736.1935, 1.143799
736.6757, 1.356720
737.1578, 1.483002
737.6399, 1.487823
738.1220, 1.463989
738.6041, 1.490662
739.0862, 1.522278
739.5684, 1.412506
740.0505, 1.186981
740.5326, 1.124298
741.0147, 1.437958
741.4968, 2.028809
741.9789, 2.692139
742.4611, 3.616364
742.9432, 3.867249
743.4253, 2.742554
743.9074, 1.703247
744.3895, 1.952423
744.8716, 2.758118
745.3538, 2.591431
745.8359, 0.7448730
746.3180, 0.5040590
746.8001, 0.5088500
747.2822, 2.121490
747.7643, 2.737274
748.2465, 2.402985
748.7286, 1.648621
749.2107, 0.7155760
749.6928, 6.2316999E-02
750.1749, 7.6720998E-02
750.6570, 0.7247010
751.1392, 1.161407
751.6213, 1.059570
752.1034, 0.9974670
752.5855, 1.274719
753.0676, 1.656586
753.5497, 1.882080
754.0319, 1.944885
754.5140, 1.871918
754.9961, 1.583160
755.4782, 1.248260
755.9603, 0.8505860
756.4424, 0.5215450
756.9246, 0.5213010
757.4067, 0.8568120
757.8888, 1.224854
758.3709, 1.413086
758.8530, 1.377167
759.3351, 0.7991640
759.8173, 0.4525450
760.2994, 1.066437
760.7815, 0.5139470
761.2636, 0.2869260
761.7457, 0.5963130
762.2278, 0.5092770
762.7100, 0.5627440
763.1921, 0.9744870
763.6742, 1.208954
764.1563, 0.9102780
764.6384, 0.5772710
765.1205, 0.7025450
765.6027, 1.151642
766.0848, 1.445465
766.5669, 1.352722
767.0490, 1.197235
767.5311, 1.567444
768.0132, 2.297729
768.4954, 2.368011
768.9775, 1.635681
769.4596, 0.8898620
769.9417, 0.4665220
770.4238, 0.2984920
770.9059, 0.2588810
771.3881, 0.3052370
771.8702, 0.6846620
772.3523, 2.009216
772.8344, 2.927399
773.3165, 2.705444
773.7986, 1.988251
774.2808, 1.410278
774.7629, 1.112640
775.2450, 1.039520
775.7271, 1.272797
776.2092, 1.597809
776.6913, 1.668152
777.1735, 1.544952
777.6556, 1.494415
778.1377, 1.580200
778.6198, 1.666779
779.1019, 1.654694
779.5840, 1.535278
780.0662, 1.221558
780.5483, 0.2711790
781.0304, 2.4536001E-02
781.5125, 1.253906
781.9946, 2.339172
782.4767, 2.123260
782.9589, 1.161438
783.4410, 0.5306400
783.9231, 0.5010070
784.4052, 0.7109680
784.8873, 1.265167
785.3694, 1.756866
785.8516, 1.581696
786.3337, 0.9448850
786.8158, 0.4125370
787.2979, 0.1961980
787.7800, 0.2323910
788.2621, 0.4703670
788.7443, 0.9035340
789.2264, 1.333954
789.7085, 1.784546
790.1906, 2.171539
790.6727, 2.471680
791.1548, 2.699554
791.6370, 2.863312
792.1191, 2.966278
792.6012, 3.029327
793.0833, 3.088928
793.5654, 3.086639
794.0475, 2.906281
794.5297, 2.715302
795.0118, 2.765045
795.4939, 2.979858
795.9760, 3.045959
796.4581, 2.790268
796.9402, 2.304581
797.4224, 1.502182
797.9045, 0.5117950
798.3866, 0.3793790
798.8687, 1.292786
799.3508, 2.128098
799.8329, 2.315369
800.3151, 2.085373
800.7972, 1.850891
801.2793, 1.628265
801.7614, 1.330460
802.2435, 0.8763890
802.7256, 0.4547880
803.2078, 5.1119998E-03
803.6899, 0.3221440
804.1720, 0.3468930
804.6541, 1.6311999E-02
805.1362, 0.5918120
805.6183, 1.599228
806.1005, 2.445877
806.5826, 2.307129
807.0647, 1.576599
807.5468, 1.147125
808.0289, 1.168610
808.5110, 1.191833
808.9932, 0.8236540
809.4753, 0.3504790
809.9574, 0.6545260
810.4395, 2.037689
810.9216, 2.822479
811.4037, 2.700394
811.8859, 2.348679
812.3680, 2.057190
812.8501, 1.755493
813.3322, 1.226318
813.8143, 0.3601680
814.2964, 2.4994001E-02
814.7786, 0.8506320
815.2607, 1.802429
815.7428, 2.337173
816.2249, 2.588638
816.7070, 2.792709
817.1891, 2.982346
817.6713, 2.956665
818.1534, 2.519989
818.6355, 1.986542
819.1176, 1.822800
819.5997, 1.962723
820.0818, 2.276840
820.5640, 2.769928
821.0461, 3.202759
821.5282, 3.431030
822.0103, 3.451553
822.4924, 3.205200
822.9745, 2.486176
823.4567, 1.956421
823.9388, 1.869232
824.4209, 1.679276
824.9030, 0.9380800
825.3851, 0.1166080
825.8672, 0.1482390
826.3494, 0.2285460
826.8315, 0.7612920
827.3136, 1.588058
827.7957, 2.137848
828.2778, 1.557083
828.7599, 0.4758300
829.2421, 0.1351320
829.7242, 0.6936340
830.2063, 1.326706
830.6884, 1.390808
831.1705, 1.147247
831.6526, 1.292557
832.1348, 1.843018
832.6169, 2.225830
833.0990, 2.383194
833.5811, 2.300507
834.0632, 1.810471
834.5453, 1.186584
835.0275, 1.040833
835.5096, 1.526062
835.9917, 2.052963
836.4738, 3.160065
836.9559, 3.668701
837.4380, 2.413528
837.9202, 0.7855380
838.4023, 0.5170290
838.8844, 1.641754
839.3665, 2.651398
839.8486, 2.722382
840.3307, 2.313934
840.8129, 1.564774
841.2950, 0.7840730
841.7771, 0.7405700
842.2592, 1.434784
842.7413, 2.076218
843.2234, 2.150482
843.7056, 1.970810
844.1877, 2.253952
844.6698, 3.069351
845.1519, 3.433594
845.6340, 3.192581
846.1161, 2.832520
846.5983, 2.411041
847.0804, 2.107697
847.5625, 2.278259
848.0446, 2.990448
848.5267, 3.411636
849.0089, 3.457001
849.4910, 3.211823
849.9731, 2.388168
850.4552, 1.513092
850.9373, 1.058594
851.4194, 0.9882510
851.9016, 1.041443
852.3837, 1.155090
852.8658, 1.176239
853.3479, 0.7589870
853.8300, 0.2484740
854.3121, 0.2959590
854.7943, 0.8653410
855.2764, 1.688782
855.7585, 2.654541
856.2406, 3.268875
856.7227, 2.698639
857.2048, 1.094391
857.6870, 0.4804690
858.1691, 1.081024
858.6512, 1.851105
859.1333, 2.758041
859.6154, 3.400528
860.0975, 3.349564
860.5797, 2.704041
861.0618, 2.052933
861.5439, 1.123032
862.0260, 0.6249240
862.5081, 0.8243100
862.9902, 1.292572
863.4724, 2.073288
863.9545, 2.841629
864.4366, 3.004929
864.9187, 2.442062
865.4008, 1.992188
865.8829, 2.465240
866.3651, 3.134354
866.8472, 3.063721
867.3293, 2.535645
867.8114, 2.260605
868.2935, 2.379517
868.7756, 2.604233
869.2578, 2.714813
869.7399, 2.718719
870.2220, 2.558456
870.7041, 2.215347
871.1862, 2.163879
871.6683, 2.545517
872.1505, 2.838120
872.6326, 2.756653
873.1147, 2.445633
873.5968, 2.084015
874.0789, 1.584915
874.5610, 1.514053
875.0432, 2.524918
875.5253, 3.084808
876.0074, 2.359375
876.4895, 1.438263
876.9716, 1.435638
877.4537, 2.100327
877.9359, 2.206161
878.4180, 1.082809
878.9001, 2.2110000E-02
879.3822, 0.3327940
879.8643, 0.2290040
880.3464, 1.6860999E-02
880.8286, 0.2117310
881.3107, 0.3181300
881.7928, 0.2548680
882.2749, 0.1795810
882.7570, 0.2492980
883.2391, 0.4473420
883.7213, 0.7219090
884.2034, 1.077377
884.6855, 1.515396
885.1676, 2.052826
885.6497, 2.585526
886.1318, 3.105042
886.6140, 3.476181
887.0961, 3.158493
887.5782, 1.640198
888.0603, 0.8100280
888.5424, 1.187927
889.0245, 1.538727
889.5067, 1.277435
889.9888, 0.7750700
890.4709, 0.3686680
890.9530, 7.7895999E-02
891.4351, 0.1060640
891.9172, 0.8851010
892.3994, 1.504745
892.8815, 1.452621
893.3636, 1.202255
893.8457, 1.276016
894.3278, 1.560104
894.8099, 1.556931
895.2921, 1.018753
895.7742, 0.3995510
896.2563, 0.1137240
896.7384, 3.8376000E-02
897.2205, 9.7699999E-04
897.7026, 1.2497000E-02
898.1848, 0.1936040
898.6669, 0.5728760
899.1490, 0.9268950
899.6311, 1.018738
900.1132, 0.9431460
900.5953, 1.114578
901.0775, 1.579742
901.5596, 1.704956
902.0417, 1.278275
902.5238, 0.9294590
903.0059, 1.131638
903.4880, 1.547684
903.9702, 1.451599
904.4523, 0.6637880
904.9344, 7.9131998E-02
905.4165, 0.4894560
905.8986, 0.6135100
906.3807, 0.1454010
906.8629, 1.112396
907.3450, 1.791229
907.8271, 2.158234
908.3092, 2.277573
908.7913, 2.067047
909.2734, 1.813629
909.7556, 1.710495
910.2377, 1.563095
910.7198, 1.011154
911.2019, 0.3329770
911.6840, 0.1437530
912.1661, 0.5923000
912.6483, 1.177994
913.1304, 1.620041
913.6125, 1.828796
914.0946, 1.442902
914.5767, 0.7091830
915.0588, 0.4402470
915.5410, 0.7487950
916.0231, 1.294266
916.5052, 1.896774
916.9873, 2.447006
917.4694, 2.773865
917.9515, 2.844055
918.4337, 2.532990
918.9158, 1.678543
919.3979, 1.265961
919.8800, 1.810562
920.3621, 2.561386
920.8442, 2.769089
921.3264, 2.465729
921.8085, 1.970459
922.2906, 0.9320980
922.7727, 0.2746430
923.2548, 0.2363280
923.7369, 0.3558350
924.2191, 0.5583500
924.7012, 0.7220150
925.1833, 0.6064910
925.6654, 0.1683040
926.1475, 8.0963001E-02
926.6296, 0.1371310
927.1118, 0.4337620
927.5939, 0.6931000
928.0760, 0.8714600
928.5581, 0.8580630
929.0402, 0.7243650
929.5223, 0.6941830
930.0045, 0.8672330
930.4866, 1.157776
930.9687, 1.615967
931.4508, 2.053772
931.9329, 2.140488
932.4150, 1.961914
932.8972, 1.750961
933.3793, 1.599716
933.8614, 1.697159
934.3435, 2.301834
934.8256, 3.056122
935.3077, 2.927734
935.7899, 2.006561
936.2720, 1.721100
936.7541, 2.303192
937.2362, 2.526566
937.7183, 1.704025
938.2004, 0.5285800
938.6826, 2.7283000E-02
939.1647, 0.2130740
939.6468, 0.5211030
940.1289, 1.125031
940.6110, 1.406113
941.0931, 1.010941
941.5753, 0.6072850
942.0574, 0.6726530
942.5395, 1.026581
943.0216, 1.224045
943.5037, 1.296432
943.9858, 1.126465
944.4680, 0.3375550
944.9501, 0.2394100
945.4322, 0.1508790
945.9143, 0.1937100
946.3964, 0.3819580
946.8785, 0.4182890
947.3607, 0.5411380
947.8428, 0.9274900
948.3249, 1.199554
948.8070, 1.152069
949.2891, 0.9276120
949.7712, 0.4220280
950.2534, 0.1591640
950.7355, 0.4095310
951.2176, 0.2619170
951.6997, 0.1119080
952.1818, 0.3297580
952.6639, 0.6096190
953.1461, 0.5476530
953.6282, 0.2241970
954.1103, 0.3152160
954.5924, 0.9722290
955.0745, 1.259140
955.5566, 0.9285280
956.0388, 0.4775090
956.5209, 0.6606600
957.0030, 1.307678
957.4851, 1.511749
957.9672, 1.276825
958.4493, 1.000671
958.9315, 0.7494200
959.4136, 0.6828770
959.8957, 0.9470830
960.3778, 1.414780
960.8599, 1.790466
961.3420, 2.122391
961.8242, 2.051132
962.3063, 1.328522
962.7884, 0.8195190
963.2705, 0.8769230
963.7526, 1.124420
964.2347, 1.228180
964.7169, 1.179520
965.1990, 1.160522
965.6811, 0.8379210
966.1632, 1.067749
966.6453, 2.806976
967.1274, 4.002106
967.6096, 3.224564
968.0917, 1.755295
968.5738, 1.345535
969.0559, 2.047241
969.5380, 2.316956
970.0201, 1.254913
970.5023, 0.4096530
970.9844, 0.5712590
971.4665, 0.9412380
971.9486, 0.7604680
972.4307, 0.3130190
972.9128, 0.3918150
973.3950, 1.184235
973.8771, 1.679550
974.3592, 0.8251340
974.8413, 0.1238100
975.3234, 0.1466980
975.8055, 0.9155120
976.2877, 0.9881900
976.7698, 0.4523470
977.2519, 0.2813260
977.7340, 0.9437260
978.2161, 1.687103
978.6982, 1.536942
979.1804, 0.9949340
979.6625, 1.034088
980.1446, 1.531906
980.6267, 2.084335
981.1088, 2.570419
981.5909, 2.860352
982.0731, 2.854126
982.5552, 2.657715
983.0373, 2.455124
983.5194, 2.236160
984.0015, 1.853180
984.4836, 1.316788
984.9658, 1.115448
985.4479, 1.438980
985.9300, 1.824081
986.4121, 1.858353
986.8942, 1.594284
987.3763, 1.130875
987.8585, 0.3635100
988.3406, 0.1167760
988.8227, 0.5254060
989.3048, 1.201843
989.7869, 2.237839
990.2690, 2.988617
990.7512, 2.504776
991.2333, 0.9369960
991.7154, 0.2297520
992.1975, 0.8885500
992.6796, 1.337982
993.1617, 1.388687
993.6439, 1.332596
994.1260, 1.184082
994.6081, 1.080078
995.0902, 1.352509
995.5723, 2.013763
996.0544, 2.173492
996.5366, 1.380844
997.0187, 0.7359620
997.5008, 0.5082240
997.9829, 0.3791810
998.4650, 1.1749000E-02
998.9471, 0.3378600
999.4293, 0.1064450
999.9114, 0.8171080
1000.393, 1.453064
1000.876, 1.444321
1001.358, 1.203415
1001.840, 0.6834720
1002.322, 0.1872410
1002.804, 4.3442000E-02
1003.286, 2.2751000E-02
1003.768, 0.1466980
1004.250, 0.4299010
1004.733, 0.6381380
1005.215, 0.6995390
1005.697, 0.6205600
1006.179, 0.1055150
1006.661, 0.3581090
1007.143, 5.5649001E-02
1007.625, 1.120316
1008.107, 1.896240
1008.589, 2.001617
1009.072, 1.769516
1009.554, 1.183701
1010.036, 0.6041870
1010.518, 0.5405270
1011.000, 0.8340300
1011.482, 1.212860
1011.964, 1.575104
1012.446, 1.750290
1012.929, 1.640533
1013.411, 1.454559
1013.893, 1.467453
1014.375, 1.575897
1014.857, 1.610565
1015.339, 1.545624
1015.821, 1.177765
1016.303, 0.5458980
1016.785, 0.3461300
1017.268, 1.124252
1017.750, 2.147141
1018.232, 2.040283
1018.714, 1.141510
1019.196, 0.9250640
1019.678, 1.353455
1020.160, 1.606430
1020.642, 1.459412
1021.125, 1.404404
1021.607, 1.881821
1022.089, 2.562317
1022.571, 2.763626
1023.053, 2.512695
1023.535, 2.297043
1024.017, 2.142746
1024.499, 1.830521
1024.981, 1.251373
1025.464, 0.7922970
1025.946, 0.8473050
1026.428, 1.223129
1026.910, 1.289856
1027.392, 1.007019
1027.874, 0.7516170
1028.356, 0.4795230
1028.838, 0.5157930
1029.321, 1.038971
1029.803, 1.734482
1030.285, 2.377197
1030.767, 2.889618
1031.249, 2.840302
1031.731, 1.944366
1032.213, 1.618851
1032.695, 2.187668
1033.177, 2.531906
1033.660, 2.082321
1034.142, 1.451462
1034.624, 1.252136
1035.106, 1.438385
1035.588, 1.768097
1036.070, 2.503433
1036.552, 2.718475
1037.034, 2.059677
1037.516, 1.451416
1037.999, 1.135056
1038.481, 1.141312
1038.963, 1.676758
1039.445, 2.646347
1039.927, 3.172516
1040.409, 2.932816
1040.891, 2.617386
1041.373, 2.134949
1041.855, 1.722565
1042.338, 1.444107
1042.820, 1.299561
1043.302, 1.365280
1043.784, 1.598892
1044.266, 1.663422
1044.748, 1.538651
1045.230, 1.263382
1045.712, 0.5140690
1046.195, 4.1200002E-03
1046.677, 8.1634998E-02
1047.159, 0.5039670
1047.641, 1.155853
1048.123, 1.967087
1048.605, 2.536621
1049.087, 2.918701
1049.569, 2.876022
1050.052, 1.985657
1050.534, 1.134903
1051.016, 0.7817540
1051.498, 0.6395870
1051.980, 0.2649380
1052.462, 0.2539830
1052.944, 0.2928160
1053.426, 0.4045560
1053.908, 1.284210
1054.391, 2.574249
1054.873, 3.615921
1055.355, 4.009720
1055.837, 4.005447
1056.319, 3.772598
1056.801, 3.418945
1057.283, 3.230072
1057.765, 3.341080
1058.248, 3.417862
1058.730, 3.293594
1059.212, 3.180878
1059.694, 3.291702
1060.176, 3.409714
1060.658, 3.285156
1061.140, 2.932663
1061.622, 2.471786
1062.104, 1.857285
1062.587, 1.350189
1063.069, 1.066360
1063.551, 0.8939510
1064.033, 0.7425080
1064.515, 0.6548160
1064.997, 0.8403630
1065.479, 1.202545
1065.961, 1.436066
1066.443, 1.463013
1066.926, 1.323578
1067.408, 0.7813870
1067.890, 0.3631590
1068.372, 0.4592130
1068.854, 0.8189090
1069.336, 1.189667
1069.818, 1.504059
1070.300, 1.600403
1070.782, 1.360855
1071.265, 1.259384
1071.747, 1.777328
1072.229, 2.179138
1072.711, 1.810669
1073.193, 1.253448
1073.675, 1.060501
1074.157, 1.272125
1074.639, 1.929749
1075.122, 3.179977
1075.604, 3.844543
1076.086, 2.866959
1076.568, 1.767105
1077.050, 1.545761
1077.532, 1.563293
1078.014, 0.9867400
1078.496, 8.7067001E-02
1078.979, 0.2440030
1079.461, 0.2496950
1079.943, 0.7230380
1080.425, 0.8134000
1080.907, 0.7506100
1081.389, 0.4844510
1081.871, 0.2748410
1082.353, 0.5199580
1082.835, 0.9707950
1083.318, 1.018829
1083.800, 0.5352330
1084.282, 0.1390230
1084.764, 3.8422000E-02
1085.246, 0.1636510
1085.728, 0.6839140
1086.210, 1.225616
1086.692, 1.414230
1087.175, 1.410645
1087.657, 1.558807
1088.139, 1.906891
1088.621, 2.164688
1089.103, 2.300766
1089.585, 2.204071
1090.067, 1.544357
1090.549, 0.9110720
1091.031, 0.7653810
1091.514, 0.9445500
1091.996, 1.196671
1092.478, 1.474365
1092.960, 1.790634
1093.442, 2.218460
1093.924, 2.554932
1094.406, 2.815094
1094.888, 2.864990
1095.370, 2.641556
1095.853, 2.143951
1096.335, 1.094360
1096.817, 0.2862700
1097.299, 0.9022520
1097.781, 0.1388240
1098.263, 0.5678100
1098.745, 0.7990420
1099.227, 0.8236080
1099.709, 0.4836430
1100.192, 0.2396550
1100.674, 0.7754970
1101.156, 1.826385
1101.638, 2.425735
1102.120, 2.357269
1102.602, 1.956543
1103.084, 0.8800200
1103.566, 2.3163000E-02
1104.049, 0.2545780
1104.531, 0.1779630
1105.013, 0.2601620
1105.495, 0.8353730
1105.977, 1.050583
1106.459, 0.7941740
1106.941, 0.5379180
1107.423, 0.3201290
1107.906, 0.1663210
1108.388, 1.9958001E-02
1108.870, 3.2088999E-02
1109.352, 0.5038150
1109.834, 1.206009
1110.316, 1.371231
1110.798, 0.9593810
1111.280, 0.5673070
1111.762, 7.9360999E-02
1112.245, 0.1914520
1112.727, 7.5928003E-02
1113.209, 0.2451780
1113.691, 0.2832950
1114.173, 0.8962860
1114.655, 0.6862180
1115.137, 0.2668760
1115.619, 0.8583530
1116.102, 0.9396360
1116.584, 0.9102170
1117.066, 0.6871950
1117.548, 0.4721830
1118.030, 0.1918950
1118.512, 0.1054380
1118.994, 0.5804440
1119.476, 1.438553
1119.958, 1.961273
1120.441, 2.076492
1120.923, 2.065796
1121.405, 1.805481
1121.887, 1.713562
1122.369, 2.029068
1122.851, 2.294205
1123.333, 2.125198
1123.815, 1.722366
1124.297, 1.571030
1124.780, 1.726013
1125.262, 1.337173
1125.744, 5.3925000E-02
1126.226, 0.3725130
1126.708, 0.6018070
1127.190, 1.658615
1127.672, 2.105316
1128.154, 2.159195
1128.636, 2.119659
1129.119, 1.982407
1129.601, 1.700958
1130.083, 1.257507
1130.565, 0.7774510
1131.047, 0.2344820
1131.529, 4.6463002E-02
1132.011, 0.4088440
1132.493, 1.012115
1132.976, 1.592117
1133.458, 2.070999
1133.940, 2.176910
1134.422, 1.942032
1134.904, 1.729630
1135.386, 1.562897
1135.868, 1.528870
1136.350, 1.648819
1136.833, 1.955688
1137.315, 2.550217
1137.797, 3.137619
1138.279, 3.138123
1138.761, 2.760254
1139.243, 2.787476
1139.725, 3.102524
1140.207, 3.138641
1140.689, 2.851624
1141.172, 2.654099
1141.654, 2.741089
1142.136, 2.843231
1142.618, 2.636627
1143.100, 2.317078
1143.582, 2.138580
1144.064, 2.131546
1144.546, 2.598328
1145.029, 3.279495
1145.511, 3.208862
1145.993, 2.226944
1146.475, 1.464203
1146.957, 1.740250
1147.439, 2.403214
1147.921, 3.187164
1148.403, 3.681488
1148.885, 3.023697
1149.368, 1.878296
1149.850, 1.433609
1150.332, 1.757904
1150.814, 2.231766
1151.296, 2.665070
1151.778, 2.841003
1152.260, 2.502625
1152.742, 2.012115
1153.224, 1.338821
1153.707, 0.8675990
1154.189, 1.262863
1154.671, 2.082977
1155.153, 2.200378
1155.635, 1.470245
1156.117, 1.071503
1156.599, 1.866058
1157.081, 2.343109
1157.563, 1.589874
1158.046, 0.8614200
1158.528, 1.054184
1159.010, 1.665710
1159.492, 1.978027
1159.974, 2.006607
1160.456, 2.272064
1160.938, 3.167191
1161.420, 3.607803
1161.903, 3.244812
1162.385, 2.852631
1162.867, 2.663208
1163.349, 2.476791
1163.831, 2.076797
1164.313, 1.604462
1164.795, 1.416855
1165.277, 1.541534
1165.760, 1.704422
1166.242, 1.874603
1166.724, 2.204727
1167.206, 2.786453
1167.688, 3.315796
1168.170, 3.622971
1168.652, 3.863693
1169.134, 4.305603
1169.616, 4.790985
1170.099, 4.448166
1170.581, 3.280243
1171.063, 2.318710
1171.545, 1.607452
1172.027, 1.516113
1172.509, 2.223938
1172.991, 3.223343
1173.473, 4.129684
1173.956, 4.703918
1174.438, 4.391068
1174.920, 3.437729
1175.402, 2.460236
1175.884, 1.590851
1176.366, 1.426819
1176.848, 1.891525
1177.330, 2.128998
1177.813, 1.787155
1178.295, 1.385437
1178.777, 1.320129
1179.259, 1.531464
1179.741, 2.339279
1180.223, 3.093842
1180.705, 2.519730
1181.187, 1.249191
1181.669, 0.8170470
1182.151, 1.355377
1182.634, 1.711044
1183.116, 1.260986
1183.598, 0.9503630
1184.080, 1.600754
1184.562, 2.296707
1185.044, 2.248581
1185.526, 1.920258
1186.008, 1.810974
1186.490, 1.949341
1186.973, 2.376022
1187.455, 3.122009
1187.937, 3.444199
1188.419, 2.877747
1188.901, 2.363113
1189.383, 2.023911
1189.865, 1.847977
1190.347, 2.052261
1190.830, 2.234833
1191.312, 1.787079
1191.794, 0.9249570
1192.276, 0.7629550
1192.758, 1.527466
1193.240, 2.271988
1193.722, 3.124908
1194.204, 3.544571
1194.687, 3.333923
1195.169, 2.865891
1195.651, 2.308578
1196.133, 1.834076
1196.615, 1.773483
1197.097, 2.023804
1197.579, 1.932236
1198.061, 1.447510
1198.543, 0.8910520
1199.026, 0.3701930
1199.508, 0.7061610
1199.990, 2.112350
1200.472, 3.226257
1200.954, 2.914139
1201.436, 1.941406
1201.918, 1.197098
1202.400, 0.7965850
1202.883, 1.086502
1203.365, 1.818542
1203.847, 2.511688
1204.329, 3.084564
1204.811, 3.685608
1205.293, 4.350708
1205.775, 4.652481
1206.257, 4.153885
1206.740, 3.390030
1207.222, 2.572723
1207.704, 1.839783
1208.186, 1.207855
1208.668, 0.8115840
1209.150, 1.054199
1209.632, 1.745056
1210.114, 1.815521
1210.596, 0.6496120
1211.078, 0.1275180
1211.561, 1.245239
1212.043, 2.186172
1212.525, 2.249832
1213.007, 2.130066
1213.489, 2.335876
1213.971, 2.594650
1214.453, 2.455231
1214.935, 1.940857
1215.417, 1.453629
1215.900, 0.8408510
1216.382, 0.9399260
1216.864, 2.031647
1217.346, 2.769623
1217.828, 2.700958
1218.310, 2.319839
1218.792, 1.958862
1219.274, 1.695908
1219.757, 1.728470
1220.239, 1.953827
1220.721, 1.890259
1221.203, 1.610565
1221.685, 1.404282
1222.167, 1.313385
1222.649, 1.291763
1223.131, 1.326233
1223.614, 1.470200
1224.096, 1.791092
1224.578, 2.130524
1225.060, 2.100296
1225.542, 2.173325
1226.024, 3.409698
1226.506, 4.837494
1226.988, 4.730087
1227.470, 3.401749
1227.953, 2.361206
1228.435, 2.056473
1228.917, 1.778595
1229.399, 1.215622
1229.881, 0.7092130
1230.363, 0.3274690
1230.845, 7.7239998E-02
1231.327, 4.7699001E-02
1231.810, 3.3890001E-02
1232.292, 0.2600250
1232.774, 0.7069850
1233.256, 0.7742770
1233.738, 0.3086550
1234.220, 0.1318510
1234.702, 0.3280640
1235.184, 0.5383300
1235.667, 0.6866460
1236.149, 0.9321900
1236.631, 1.413742
1237.113, 1.753586
1237.595, 1.449493
1238.077, 0.7397920
1238.559, 0.2934570
1239.041, 8.5662998E-02
1239.523, 3.6102001E-02
1240.005, 9.8663002E-02
1240.488, 9.4420999E-02
1240.970, 8.7890001E-03
1241.452, 0.2240140
1241.934, 0.5646670
1242.416, 0.5866550
1242.898, 0.6296230
1243.380, 1.781799
1243.862, 1.150833
1244.344, 9.8465003E-02
1244.827, 0.3007510
1245.309, 1.152023
1245.791, 1.461365
1246.273, 1.148499
1246.755, 0.8173830
1247.237, 0.6004940
1247.719, 0.4392400
1248.201, 0.2036740
1248.684, 0.1782530
1249.166, 0.5220790
1249.648, 1.048965
1250.130, 1.935272
1250.612, 2.650528
1251.094, 2.300247
1251.576, 1.151123
1252.058, 1.019165
1252.541, 2.109619
1253.023, 2.814041
1253.505, 3.118301
1253.987, 2.439529
1254.469, 0.6109470
1254.951, 0.6433260
1255.433, 0.3070980
1255.915, 0.6129150
1256.397, 0.8958440
1256.880, 0.9336240
1257.362, 1.740753
1257.844, 2.734802
1258.326, 2.631714
1258.808, 1.740463
1259.290, 0.7927550
1259.772, 8.5068002E-02
1260.254, 0.1946110
1260.737, 1.516907
1261.219, 2.541489
1261.701, 2.151978
1262.183, 1.672028
1262.665, 1.601547
1263.147, 1.843155
1263.629, 2.509857
1264.111, 3.096481
1264.594, 3.454010
1265.076, 3.365936
1265.558, 3.141190
1266.040, 2.675674
1266.522, 2.460556
1267.004, 2.536880
1267.486, 2.707794
1267.968, 2.967361
1268.450, 3.362350
1268.932, 3.960922
1269.415, 4.424820
1269.897, 4.335846
1270.379, 3.600723
1270.861, 2.675323
1271.343, 1.814255
1271.825, 1.489563
1272.307, 1.590515
1272.789, 1.835434
1273.271, 2.169617
1273.754, 2.114182
1274.236, 1.444885
1274.718, 1.023499
1275.200, 1.890411
1275.682, 2.461975
1276.164, 1.341110
1276.646, 0.1050260
1277.128, 3.1265002E-02
1277.611, 0.2810360
1278.093, 0.2200010
1278.575, 6.8755999E-02
1279.057, 7.6110996E-02
1279.539, 0.8040620
1280.021, 0.9997860
1280.503, 0.2724460
1280.985, 4.2541999E-02
1281.468, 0.4799350
1281.950, 0.9649810
1282.432, 0.8925170
1282.914, 0.9275210
1283.396, 0.9851070
1283.878, 1.155548
1284.360, 1.053452
1284.842, 0.6791530
1285.324, 0.0000000E+00
##END=



