##NAMES=Cassiterite
##RRUFFID=R040017
##IDEAL CHEMISTRY=SnO_2_
##LOCALITY=Bolivia
##OWNER=RRUFF
##SOURCE=University of Arizona Mineral Museum
##DESCRIPTION=Dark brown short prismatic single crystals
##STATUS=The identification of this mineral has been confirmed by X-ray diffraction and chemical analysis
##URL=rruff.info/R040017
##MEASURED CHEMISTRY=Sn_1.00_O_2_; trace amounts of Fe
58.464, 0.000
59.863, 2.937
61.262, 0.180
62.661, 11.726
64.059, 7.851
65.458, 2.230
66.856, 8.309
68.253, 34.355
69.651, 81.816
71.048, 123.619
72.445, 146.710
73.842, 159.055
75.239, 138.649
76.635, 102.457
78.031, 93.439
79.427, 115.570
80.823, 94.832
82.218, 126.211
83.614, 127.697
85.009, 102.282
86.404, 123.960
87.798, 152.726
89.193, 140.699
90.587, 163.850
91.981, 132.050
93.375, 127.282
94.768, 149.540
96.161, 114.818
97.554, 138.115
98.947, 138.444
100.340, 109.816
101.732, 123.228
103.124, 111.677
104.516, 114.162
105.908, 149.684
107.300, 197.244
108.691, 178.840
110.082, 202.477
111.473, 166.159
112.864, 149.883
114.254, 150.641
115.644, 151.428
117.034, 146.306
118.424, 163.404
119.813, 129.623
121.203, 97.558
122.592, 103.732
123.981, 107.505
125.369, 94.443
126.758, 102.217
128.146, 104.989
129.534, 101.648
130.922, 105.207
132.309, 105.276
133.696, 104.022
135.083, 111.774
136.470, 110.575
137.857, 112.516
139.243, 101.633
140.630, 93.828
142.016, 106.029
143.401, 87.214
144.787, 81.383
146.172, 75.562
147.557, 56.761
148.942, 53.987
150.327, 51.237
151.711, 61.517
153.096, 71.844
154.480, 66.199
155.863, 55.546
157.247, 42.925
158.630, 45.347
160.013, 57.853
161.396, 69.461
162.779, 58.129
164.161, 53.805
165.544, 69.452
166.926, 69.064
168.308, 46.639
169.689, 51.181
171.070, 34.689
172.452, 32.168
173.833, 23.320
175.213, 13.746
176.594, 6.766
177.974, 1.159
179.354, 1.526
180.734, 0.760
182.114, 12.017
183.493, 2.274
184.872, 12.549
186.251, 14.888
187.630, 38.136
189.008, 43.250
190.387, 16.337
191.765, 51.398
193.143, 38.434
194.520, 52.443
195.898, 72.428
197.275, 86.388
198.652, 67.323
200.029, 57.234
201.405, 82.118
202.782, 87.968
204.158, 99.791
205.534, 125.588
206.909, 149.362
208.285, 155.114
209.660, 144.292
211.035, 152.670
212.410, 131.706
213.784, 216.944
215.159, 252.059
216.533, 298.727
217.907, 320.482
219.281, 346.404
220.654, 368.651
222.027, 363.210
223.400, 382.388
224.773, 359.127
226.146, 324.851
227.518, 358.128
228.891, 362.846
230.263, 373.561
231.634, 338.119
233.006, 372.700
234.377, 338.441
235.748, 357.300
237.119, 367.091
238.490, 402.226
239.860, 377.333
241.231, 409.380
242.601, 422.268
243.970, 420.952
245.340, 438.833
246.709, 441.185
248.079, 430.266
249.448, 418.162
250.816, 446.840
252.185, 414.422
253.553, 419.993
254.921, 408.493
256.289, 381.908
257.657, 382.650
259.024, 398.651
260.391, 367.082
261.758, 398.169
263.125, 397.171
264.492, 408.065
265.858, 421.895
267.224, 426.309
268.590, 414.936
269.956, 370.944
271.321, 358.492
272.687, 297.034
274.052, 249.568
275.416, 210.094
276.781, 177.238
278.146, 183.124
279.510, 146.627
280.874, 149.122
282.237, 170.650
283.601, 155.316
284.964, 159.769
286.327, 129.209
287.690, 127.639
289.053, 131.061
290.416, 83.475
291.778, 80.880
293.140, 113.278
294.502, 92.668
295.863, 95.050
297.225, 103.425
298.586, 135.794
299.947, 159.155
301.308, 134.508
302.668, 154.854
304.029, 143.191
305.389, 120.520
306.749, 87.839
308.108, 103.150
309.468, 82.452
310.827, 87.745
312.186, 75.030
313.545, 77.305
314.903, 91.571
316.262, 91.829
317.620, 121.077
318.978, 138.317
320.336, 151.548
321.693, 178.769
323.051, 159.982
324.408, 196.186
325.765, 205.380
327.121, 191.564
328.478, 191.738
329.834, 174.903
331.190, 190.058
332.546, 169.205
333.902, 170.342
335.257, 155.471
336.612, 157.911
337.967, 209.704
339.322, 175.784
340.677, 167.747
342.031, 196.508
343.385, 171.086
344.739, 154.770
346.093, 127.755
347.446, 113.180
348.799, 95.421
350.153, 89.402
351.505, 84.443
352.858, 87.479
354.210, 92.444
355.563, 67.470
356.915, 54.492
358.267, 32.508
359.618, 43.519
360.969, 27.525
362.321, 24.524
363.672, 18.518
365.022, 11.505
366.373, 1.484
367.723, 6.547
369.073, 15.589
370.423, 8.643
371.773, 26.709
373.122, 38.791
374.471, 18.895
375.821, 11.018
377.169, 21.163
378.518, 17.340
379.866, 20.450
381.215, 12.790
382.563, 8.942
383.910, 28.659
385.258, 3.365
386.605, 17.063
387.952, 16.759
389.299, 2.453
390.646, 16.140
391.992, 15.825
393.339, 22.491
394.685, 28.175
396.031, 26.157
397.376, 10.508
398.722, 9.870
400.067, 35.242
401.412, 1.365
402.757, 35.032
404.101, 14.450
405.446, 29.877
406.790, 34.322
408.134, 43.784
409.478, 21.269
410.821, 18.765
412.165, 4.730
413.508, 14.775
414.851, 52.285
416.193, 14.819
417.536, 51.359
418.878, 60.920
420.220, 79.506
421.562, 73.126
422.904, 102.776
424.245, 85.470
425.586, 48.198
426.927, 84.942
428.268, 21.719
429.609, 1.499
430.949, 14.275
432.289, 10.950
433.629, 54.181
434.969, 70.418
436.309, 42.662
437.648, 51.912
438.987, 19.171
440.326, 23.436
441.665, 20.710
443.003, 2.009
444.342, 10.719
445.680, 9.576
447.018, 21.881
448.355, 14.196
449.693, 32.520
451.030, 72.855
452.367, 26.086
453.704, 46.300
455.041, 97.667
456.377, 78.023
457.713, 103.403
459.049, 131.806
460.385, 202.221
461.721, 206.649
463.056, 293.090
464.391, 395.544
465.726, 406.012
467.061, 487.494
468.395, 560.968
469.730, 612.479
471.064, 726.948
472.398, 789.478
473.731, 754.916
475.065, 753.404
476.398, 673.993
477.731, 671.599
479.064, 629.221
480.397, 677.859
481.729, 700.516
483.062, 735.189
484.394, 843.881
485.725, 898.590
487.057, 924.318
488.389, 960.064
489.720, 1020.829
491.051, 1056.613
492.382, 1073.416
493.712, 1210.239
495.043, 1288.081
496.373, 1312.944
497.703, 1365.827
499.032, 1315.730
500.362, 1293.654
501.691, 1241.599
503.020, 1169.568
504.349, 1087.560
505.678, 1041.575
507.007, 1023.614
508.335, 961.675
509.663, 921.760
510.991, 828.868
512.319, 814.998
513.646, 777.151
514.973, 659.328
516.300, 583.529
517.627, 499.735
518.954, 447.591
520.280, 381.488
521.607, 289.539
522.933, 275.314
524.259, 262.940
525.584, 221.332
526.910, 264.267
528.235, 230.794
529.560, 323.854
530.885, 362.384
532.209, 430.921
533.534, 521.815
534.858, 576.940
536.182, 696.595
537.506, 752.724
538.829, 906.147
540.152, 929.497
541.476, 972.330
542.799, 873.388
544.121, 877.096
545.444, 723.025
546.766, 749.582
548.088, 694.192
549.410, 704.280
550.732, 652.000
552.053, 609.775
553.375, 639.716
554.696, 578.718
556.017, 520.603
557.337, 476.411
558.658, 439.427
559.978, 406.403
561.298, 387.616
562.618, 353.389
563.938, 337.359
565.257, 297.567
566.576, 282.612
567.895, 282.221
569.214, 282.137
570.533, 245.270
571.851, 263.656
573.170, 214.171
574.488, 231.730
575.805, 217.393
577.123, 178.173
578.440, 175.519
579.758, 162.915
581.075, 191.774
582.391, 227.010
583.708, 237.364
585.024, 241.858
586.341, 280.490
587.657, 258.488
588.972, 363.348
590.288, 361.864
591.603, 430.878
592.918, 463.941
594.233, 532.060
595.548, 611.229
596.863, 702.453
598.177, 807.712
599.491, 902.078
600.805, 1048.481
602.119, 1193.896
603.432, 1332.215
604.746, 1518.790
606.059, 1706.423
607.372, 1923.115
608.685, 2131.873
609.997, 2383.691
611.309, 2711.570
612.621, 3029.513
613.933, 3526.516
615.245, 4074.580
616.557, 4834.705
617.868, 5673.891
619.179, 6866.134
620.490, 8170.434
621.801, 9984.795
623.111, 12369.218
624.421, 16007.692
625.731, 20180.223
627.041, 26148.814
628.351, 32528.461
629.660, 40874.168
630.970, 46429.934
632.279, 50225.750
633.588, 50499.609
634.896, 45031.535
636.205, 38232.504
637.513, 30043.520
638.821, 23867.578
640.129, 18210.680
641.437, 14451.827
642.744, 11540.016
644.051, 9420.252
645.358, 7692.531
646.665, 6534.850
647.972, 5665.213
649.278, 4852.619
650.584, 4198.068
651.890, 3671.559
653.196, 3271.092
654.502, 2896.668
655.807, 2520.288
657.113, 2333.949
658.418, 2104.654
659.722, 1912.401
661.027, 1768.190
662.331, 1604.022
663.636, 1504.896
664.940, 1374.812
666.244, 1368.771
667.547, 1267.773
668.851, 1216.816
670.154, 1144.901
671.457, 1174.029
672.760, 1083.199
674.062, 1097.410
675.365, 1077.664
676.667, 964.962
677.969, 1009.302
679.271, 980.686
680.572, 975.115
681.874, 955.589
683.175, 1004.109
684.476, 1027.677
685.777, 1108.295
687.077, 1137.966
688.378, 1156.686
689.678, 1221.461
690.978, 1301.292
692.278, 1386.177
693.577, 1447.110
694.877, 1347.095
696.176, 1429.131
697.475, 1222.210
698.774, 1071.337
700.072, 899.509
701.371, 708.720
702.669, 486.976
703.967, 387.273
705.265, 304.612
706.562, 198.995
707.860, 230.418
709.157, 219.881
710.454, 168.394
711.751, 264.945
713.047, 212.545
714.344, 257.190
715.640, 298.879
716.936, 271.618
718.232, 328.399
719.527, 261.229
720.823, 261.102
722.118, 251.024
723.413, 237.993
724.708, 197.012
726.002, 175.075
727.297, 119.182
728.591, 162.326
729.885, 147.513
731.179, 114.749
732.472, 124.026
733.766, 103.353
735.059, 96.730
736.352, 153.162
737.645, 152.646
738.937, 143.191
740.230, 215.790
741.522, 200.435
742.814, 197.134
744.106, 220.872
745.397, 257.428
746.689, 281.391
747.980, 307.986
749.271, 285.161
750.562, 378.430
751.853, 443.376
753.143, 573.823
754.433, 646.240
755.723, 814.381
757.013, 993.908
758.303, 1204.295
759.592, 1531.341
760.881, 1863.162
762.170, 2388.252
763.459, 2954.948
764.748, 3871.479
766.036, 4872.853
767.325, 6067.189
768.613, 7804.238
769.901, 9100.494
771.188, 10910.396
772.476, 11988.651
773.763, 12634.052
775.050, 12988.671
776.337, 12507.575
777.624, 11841.439
778.910, 10767.882
780.196, 9514.981
781.482, 8256.080
782.768, 7080.594
784.054, 6024.761
785.339, 5356.473
786.625, 4800.979
787.910, 4248.946
789.195, 3881.493
790.479, 3540.184
791.764, 3242.162
793.048, 3028.608
794.332, 2809.612
795.616, 2592.571
796.900, 2504.432
798.183, 2379.660
799.467, 2279.554
800.750, 2135.466
802.033, 2093.394
803.316, 1974.338
804.598, 1774.297
805.880, 1728.272
807.163, 1506.262
808.445, 1472.266
809.726, 1332.284
811.008, 1200.317
812.289, 1109.363
813.570, 1002.422
814.851, 899.493
816.132, 820.578
817.413, 747.674
818.693, 642.782
819.973, 570.902
821.253, 495.041
822.533, 423.290
823.813, 357.328
825.092, 303.492
826.371, 243.666
827.650, 193.849
828.929, 179.042
830.208, 149.846
831.486, 193.456
832.764, 137.676
834.042, 130.904
835.320, 143.140
836.598, 119.384
837.875, 134.636
839.152, 150.895
840.429, 141.160
841.706, 198.439
842.983, 208.752
844.259, 249.036
845.536, 314.333
846.812, 340.627
848.088, 383.926
849.363, 392.230
850.639, 410.237
851.914, 386.894
853.189, 419.209
854.464, 398.527
855.739, 387.848
857.013, 420.171
858.288, 435.497
859.562, 481.826
860.836, 465.156
862.110, 501.489
863.383, 487.822
864.656, 448.158
865.930, 425.494
867.203, 410.831
868.475, 390.016
869.748, 380.507
871.020, 367.844
872.292, 364.181
873.564, 357.517
874.836, 373.851
876.108, 356.185
877.379, 340.517
878.650, 313.846
879.922, 303.173
881.192, 231.498
882.463, 192.819
883.733, 193.137
885.004, 146.451
886.274, 125.760
887.544, 74.066
888.813, 64.887
890.083, 95.663
891.352, 41.954
892.621, 52.239
893.890, 38.518
895.159, 23.790
896.427, 5.056
897.695, 12.686
898.964, 18.445
900.232, 27.770
901.499, 53.026
902.767, 35.868
904.034, 45.740
905.301, 52.648
906.568, 82.503
907.835, 60.416
909.102, 32.151
910.368, 45.005
911.634, 69.768
912.900, 48.611
914.166, 51.254
915.432, 75.273
916.697, 55.162
917.962, 51.137
919.227, 64.961
920.492, 43.026
921.757, 60.715
923.021, 37.717
924.285, 57.960
925.550, 27.033
926.813, 29.177
928.077, 48.310
929.341, 46.403
930.604, 22.456
931.867, 15.686
933.130, 14.279
934.393, 35.511
935.655, 28.855
936.918, 20.457
938.180, 16.110
939.442, 10.176
940.703, 14.683
941.965, 18.490
943.226, 41.486
944.488, 27.426
945.749, 44.398
947.009, 49.245
948.270, 79.069
949.530, 41.030
950.791, 77.777
952.051, 94.523
953.311, 84.275
954.570, 111.967
955.830, 120.646
957.089, 130.221
958.348, 149.800
959.607, 184.404
960.866, 182.907
962.124, 209.438
963.383, 217.856
964.641, 219.250
965.899, 255.624
967.156, 259.979
968.414, 281.315
969.671, 299.630
970.928, 335.925
972.185, 336.200
973.442, 327.455
974.699, 368.689
975.955, 320.904
977.211, 332.097
978.468, 297.270
979.723, 271.422
980.979, 249.554
982.234, 227.665
983.490, 218.754
984.745, 213.823
986.000, 146.870
987.254, 156.896
988.509, 120.901
989.763, 125.884
991.017, 141.846
992.271, 115.785
993.525, 110.703
994.779, 123.599
996.032, 120.472
997.285, 137.323
998.538, 142.152
999.791, 143.959
1001.044, 117.743
1002.296, 157.505
1003.548, 145.287
1004.800, 147.004
1006.052, 173.743
1007.304, 163.508
1008.555, 155.254
1009.807, 179.930
1011.058, 183.656
1012.309, 171.380
1013.559, 205.084
1014.810, 194.822
1016.060, 217.503
1017.310, 195.192
1018.560, 224.795
1019.810, 251.419
1021.060, 228.024
1022.309, 249.574
1023.558, 261.038
1024.807, 251.611
1026.056, 265.188
1027.305, 266.692
1028.553, 266.158
1029.801, 278.574
1031.049, 314.046
1032.297, 289.442
1033.545, 329.681
1034.793, 335.049
1036.040, 333.301
1037.287, 312.629
1038.534, 379.987
1039.781, 441.867
1041.027, 389.012
1042.274, 391.822
1043.520, 309.950
1044.766, 308.131
1046.012, 277.266
1047.257, 267.456
1048.503, 255.750
1049.748, 254.739
1050.993, 218.059
1052.238, 208.838
1053.483, 189.498
1054.727, 176.546
1055.971, 142.064
1057.216, 137.657
1058.459, 99.503
1059.703, 107.924
1060.947, 89.544
1062.190, 88.464
1063.433, 64.626
1064.676, 92.502
1065.919, 67.754
1067.162, 67.165
1068.404, 48.711
1069.646, 58.300
1070.888, 29.127
1072.130, 38.732
1073.372, 50.659
1074.613, 30.232
1075.855, 29.663
1077.096, 23.879
1078.337, 15.830
1079.578, 8.889
1080.818, 12.363
1082.059, 4.897
1083.299, 5.555
1084.539, 5.153
1085.779, 13.815
1087.018, 11.934
1088.258, 11.256
1089.497, 20.119
1090.736, 11.398
1091.975, 26.532
1093.213, 30.684
1094.452, 23.753
1095.690, 36.570
1096.928, 37.428
1098.166, 18.386
1099.404, 46.973
1100.642, 42.892
1101.879, 37.792
1103.116, 47.674
1104.353, 46.642
1105.590, 67.384
1106.827, 62.213
1108.063, 52.027
1109.299, 71.829
1110.536, 60.620
1111.771, 83.399
1113.007, 114.164
1114.243, 111.917
1115.478, 108.655
1116.713, 131.380
1117.948, 122.094
1119.183, 130.801
1120.418, 153.502
1121.652, 146.190
1122.886, 160.153
1124.120, 193.531
1125.354, 165.190
1126.588, 157.845
1127.821, 142.490
1129.055, 113.126
1130.288, 134.745
1131.521, 129.354
1132.753, 147.948
1133.986, 112.529
1135.218, 119.097
1136.450, 102.654
1137.682, 132.199
1138.914, 100.730
1140.146, 105.246
1141.377, 100.741
1142.609, 105.191
1143.840, 113.661
1145.071, 91.108
1146.301, 93.548
1147.532, 95.973
1148.762, 100.383
1149.992, 98.061
1151.222, 79.111
1152.452, 90.474
1153.682, 78.821
1154.911, 67.152
1156.140, 66.466
1157.369, 77.763
1158.598, 60.043
1159.827, 55.306
1161.055, 54.551
1162.284, 40.779
1163.512, 48.990
1164.740, 41.182
1165.967, 56.356
1167.195, 45.512
1168.422, 44.650
1169.650, 51.781
1170.877, 66.885
1172.103, 34.975
1173.330, 28.091
1174.557, 40.230
1175.783, 43.481
1177.009, 49.583
1178.235, 30.675
1179.461, 42.856
1180.686, 74.974
1181.912, 38.148
1183.137, 60.299
1184.362, 36.461
1185.587, 23.646
1186.811, 31.846
1188.036, 34.043
1189.260, 37.184
1190.484, 46.294
1191.708, 37.499
1192.932, 42.618
1194.155, 23.790
1195.378, 44.923
1196.602, 24.102
1197.825, 35.297
1199.047, 28.377
1200.270, 36.590
1201.492, 23.675
1202.715, 32.959
1203.937, 24.051
1205.159, 32.178
1206.380, 43.002
1207.602, 31.011
1208.823, 43.034
1210.044, 41.354
1211.265, 47.055
1212.486, 53.253
1213.707, 56.034
1214.927, 63.215
1216.147, 64.818
1217.367, 77.603
1218.587, 81.962
1219.807, 91.496
1221.027, 96.113
1222.246, 102.585
1223.465, 96.240
1224.684, 86.634
1225.903, 69.920
1227.121, 71.011
1228.340, 105.379
1229.558, 118.914
1230.776, 101.021
1231.994, 106.141
1233.212, 108.434
1234.429, 98.808
1235.646, 89.108
1236.864, 111.594
1238.081, 92.942
1239.297, 108.322
1240.514, 95.811
1241.730, 95.292
1242.947, 119.860
1244.163, 111.523
1245.378, 134.928
1246.594, 102.751
1247.810, 100.383
1249.025, 130.968
1250.240, 140.816
1251.455, 116.564
1252.670, 137.536
1253.885, 131.595
1255.099, 126.790
1256.313, 123.770
1257.527, 154.911
1258.741, 116.258
1259.955, 146.041
1261.168, 141.168
1262.382, 138.694
1263.595, 147.534
1264.808, 129.568
1266.021, 151.670
1267.233, 159.966
1268.446, 154.175
1269.658, 150.489
1270.870, 151.750
1272.082, 155.148
1273.294, 151.308
1274.505, 152.330
1275.716, 158.107
1276.928, 148.755
1278.139, 146.635
1279.349, 151.964
1280.560, 174.942
1281.770, 158.928
1282.981, 162.125
1284.191, 184.101
1285.401, 158.758
1286.610, 168.290
1287.820, 152.745
1289.029, 150.759
1290.239, 158.875
1291.448, 154.361
1292.656, 167.044
1293.865, 182.473
1295.073, 165.836
1296.282, 170.150
1297.490, 156.309
1298.698, 159.484
1299.906, 178.552
1301.113, 163.589
1302.320, 167.530
1303.528, 146.495
1304.735, 153.385
1305.942, 159.172
1307.148, 164.971
1308.355, 146.638
1309.561, 173.327
1310.767, 146.825
1311.973, 159.559
1313.179, 135.022
1314.384, 131.445
1315.590, 133.952
1316.795, 133.425
1318.000, 122.744
1319.205, 113.111
1320.410, 82.361
1321.614, 113.584
1322.819, 111.810
1324.023, 85.882
1325.227, 96.945
1326.431, 79.079
1327.634, 79.980
1328.838, 72.908
1330.041, 62.689
1331.244, 54.367
1332.447, 50.020
1333.650, 58.686
1334.852, 61.301
1336.055, 38.956
1337.257, 49.561
1338.459, 38.128
1339.661, 40.514
1340.862, 32.963
1342.064, 29.264
1343.265, 41.618
1344.466, 24.906
1345.667, 39.184
1346.868, 14.332
1348.068, 25.478
1349.269, 21.510
1350.469, 30.465
1351.669, 17.498
1352.869, 4.348
1354.069, 4.802
1355.268, 12.155
1356.468, 0.073
1357.667, 17.678
1358.866, 0.395
1360.065, 15.860
1361.263, 18.785
1362.462, 18.436
1363.660, 28.055
1364.858, 34.661
1366.056, 37.216
1367.254, 12.724
1368.451, 35.187
1369.649, 36.580
1370.846, 52.861
1372.043, 30.101
1373.240, 51.378
1374.436, 55.618
1375.633, 65.820
1376.829, 72.986
1378.025, 53.121
1379.221, 73.232
1380.417, 52.328
1381.613, 65.442
1382.808, 93.222
1384.003, 73.989
1385.199, 61.741
1386.393, 64.477
1387.588, 43.195
1388.783, 63.894
1389.977, 27.569
1391.171, 48.203
1392.365, 51.793
1393.559, 22.346
1394.753, 32.861
1395.946, 17.314
1397.140, 8.721
1398.333, 14.932
1399.526, 10.144
1400.719, 13.427
1401.911, 0.759
1403.104, 6.094
1404.296, 8.002
1405.488, 1.941
1406.680, 6.916
1407.872, 25.923
1409.063, 26.965
1410.255, 1.960
1411.446, 3.855
1412.637, 30.279
1413.828, 12.440
1415.018, 32.626
1416.209, 11.836
1417.399, 9.615
1418.589, 26.679
1419.779, 3.609
1420.969, 17.089
1422.159, 1.580
1423.348, 10.807
1424.537, 8.984
1425.726, 4.066
1426.915, 9.948
1428.104, 29.582
1429.293, 42.136
1430.481, 49.575
1431.669, 30.895
1432.857, 37.033
1434.045, 40.104
1435.233, 21.051
1436.420, 42.635
1437.608, 48.350
1438.795, 51.540
1439.982, 62.132
1441.169, 63.104
1442.355, 68.010
1443.542, 59.343
1444.728, 75.983
1445.914, 76.392
1447.100, 72.137
1448.286, 87.984
1449.472, 80.129
1450.657, 94.542
1451.842, 93.871
1453.027, 128.145
1454.212, 83.765
1455.397, 133.934
1456.581, 139.801
1457.766, 121.115
1458.950, 139.214
1460.134, 138.707
1461.318, 107.456
1462.501, 133.964
1463.685, 129.666
1464.868, 122.119
1466.051, 133.710
1467.234, 133.858
1468.417, 141.052
1469.600, 99.575
1470.782, 89.198
1471.965, 87.908
1473.147, 90.658
1474.329, 76.871
1475.510, 55.266
1476.692, 58.192
1477.873, 45.443
1479.055, 35.317
1480.236, 34.725
1481.416, 45.915
1482.597, 39.489
1483.778, 40.884
1484.958, 26.302
1486.138, 21.434
1487.318, 18.228
1488.498, 22.478
1489.678, 17.017
1490.857, 20.771
1492.037, 32.381
1493.216, 8.246
1494.395, 34.424
1495.574, 20.769
1496.752, 4.535
1497.931, 51.529
1499.109, 28.699
1500.287, 29.449
1501.465, 1.549
1502.643, 24.653
1503.820, 5.968
1504.998, 29.401
1506.175, 27.749
1507.352, 51.251
1508.529, 19.272
1509.706, 61.132
1510.882, 50.162
1512.059, 45.816
1513.235, 81.846
1514.411, 74.656
1515.587, 86.873
1516.762, 48.457
1517.938, 72.752
1519.113, 32.050
1520.288, 45.799
1521.463, 56.122
1522.638, 0.000
##END=



