##NAMES=Cassiterite
##RRUFFID=R040017
##IDEAL CHEMISTRY=SnO_2_
##LOCALITY=Bolivia
##OWNER=RRUFF
##SOURCE=University of Arizona Mineral Museum
##DESCRIPTION=Dark brown short prismatic single crystals
##STATUS=The identification of this mineral has been confirmed by X-ray diffraction and chemical analysis
##URL=rruff.info/R040017
##MEASURED CHEMISTRY=Sn_1.00_O_2_; trace amounts of Fe
139.3607, 0.0000000E+00
139.8428, 2.943695
140.3250, 4.075195
140.8071, 1.146027
141.2892, 0.1544800
141.7713, 1.692993
142.2534, 5.814148
142.7355, 7.356110
143.2177, 4.421997
143.6998, 1.166901
144.1819, 1.868439
144.6640, 8.559479
145.1461, 14.69662
145.6283, 19.14267
146.1104, 22.03366
146.5925, 23.69229
147.0746, 24.02463
147.5567, 23.26553
148.0388, 22.61533
148.5210, 20.16437
149.0031, 16.02225
149.4852, 13.91968
149.9673, 15.37589
150.4494, 15.85864
150.9315, 15.07556
151.4136, 13.34497
151.8958, 11.39395
152.3779, 6.984467
152.8600, 4.066772
153.3421, 4.311005
153.8242, 12.50049
154.3063, 18.63177
154.7885, 22.10150
155.2706, 22.70779
155.7527, 20.56158
156.2348, 9.433777
156.7169, 1.014221
157.1990, 4.223572
157.6812, 10.84863
158.1633, 25.24744
158.6454, 29.94901
159.1275, 25.81842
159.6096, 23.90189
160.0917, 29.12210
160.5739, 37.12833
161.0560, 43.41498
161.5381, 46.62003
162.0202, 47.82620
162.5023, 46.64444
162.9844, 42.88150
163.4666, 39.08972
163.9487, 36.09912
164.4308, 34.16391
164.9129, 32.07565
165.3950, 30.18561
165.8771, 28.22397
166.3593, 25.50912
166.8414, 21.50467
167.3235, 18.06900
167.8056, 15.92075
168.2877, 15.74362
168.7698, 18.56998
169.2519, 24.91046
169.7341, 31.84772
170.2162, 35.74918
170.6983, 39.27917
171.1804, 41.20840
171.6625, 38.83194
172.1446, 33.06604
172.6268, 27.53400
173.1089, 25.13309
173.5910, 24.45111
174.0731, 23.06113
174.5552, 20.00415
175.0373, 15.95834
175.5195, 10.81082
176.0016, 4.600006
176.4837, 5.4290999E-02
176.9658, 1.197784
177.4479, 5.864044
177.9300, 9.243225
178.4122, 7.857605
178.8943, 4.369080
179.3764, 2.990570
179.8585, 3.845184
180.3406, 6.166779
180.8227, 9.925507
181.3049, 14.70636
181.7870, 19.08548
182.2691, 23.57675
182.7512, 27.06836
183.2333, 25.61081
183.7154, 17.61411
184.1976, 8.735443
184.6797, 8.285461
185.1618, 15.30936
185.6439, 21.28876
186.1260, 19.53107
186.6081, 12.08606
187.0903, 7.521851
187.5724, 7.631866
188.0545, 9.744537
188.5366, 8.212097
189.0187, 3.016571
189.5008, 1.158569
189.9829, 0.6094360
190.4651, 7.356781
190.9472, 11.63544
191.4293, 11.33896
191.9114, 8.229797
192.3935, 7.087372
192.8756, 8.146912
193.3578, 9.412231
193.8399, 8.950867
194.3220, 6.808228
194.8041, 4.965210
195.2862, 4.218201
195.7683, 4.140442
196.2505, 2.560211
196.7326, 0.7627870
197.2147, 4.440552
197.6968, 7.785278
198.1789, 10.84186
198.6610, 12.85931
199.1432, 13.89697
199.6253, 13.82867
200.1074, 10.61569
200.5895, 3.088684
201.0716, 4.983612
201.5537, 7.767944
202.0359, 4.290894
202.5180, 1.336182
203.0001, 2.094269
203.4822, 6.966980
203.9643, 8.334442
204.4464, 4.698456
204.9286, 0.4867860
205.4107, 0.9406130
205.8928, 4.422729
206.3749, 10.63861
206.8570, 16.14130
207.3391, 21.18817
207.8212, 23.49176
208.3034, 21.52127
208.7855, 18.01465
209.2676, 19.97708
209.7497, 29.60223
210.2318, 38.89435
210.7139, 43.03909
211.1961, 40.13983
211.6782, 40.13223
212.1603, 44.33582
212.6424, 51.43808
213.1245, 56.78479
213.6066, 58.73767
214.0888, 62.19501
214.5709, 70.32022
215.0530, 84.63367
215.5351, 99.72983
216.0172, 115.5820
216.4993, 131.4402
216.9815, 144.1317
217.4636, 152.3861
217.9457, 159.2700
218.4278, 167.3393
218.9099, 178.1174
219.3920, 185.7355
219.8742, 188.8027
220.3563, 187.6928
220.8384, 186.5359
221.3205, 185.6096
221.8026, 184.3018
222.2847, 181.8027
222.7669, 176.8957
223.2490, 173.6451
223.7311, 173.2054
224.2132, 175.5689
224.6953, 177.4096
225.1774, 179.4843
225.6596, 180.2676
226.1417, 177.6290
226.6238, 168.4468
227.1059, 162.1430
227.5880, 161.4029
228.0701, 166.7352
228.5522, 170.2743
229.0344, 171.0638
229.5165, 170.9125
229.9986, 172.1123
230.4807, 176.1445
230.9628, 178.6777
231.4449, 177.6208
231.9271, 171.8788
232.4092, 170.9482
232.8913, 177.9789
233.3734, 187.3549
233.8555, 191.3164
234.3376, 186.4215
234.8198, 182.0156
235.3019, 181.0370
235.7840, 184.3989
236.2661, 185.9512
236.7482, 184.8276
237.2303, 182.4152
237.7125, 180.5866
238.1946, 178.5188
238.6767, 178.4391
239.1588, 181.3795
239.6409, 187.9133
240.1230, 194.7178
240.6052, 201.7307
241.0873, 209.0190
241.5694, 217.3155
242.0515, 230.1667
242.5336, 238.3190
243.0157, 237.3044
243.4979, 222.4957
243.9800, 212.1674
244.4621, 207.2764
244.9442, 206.4383
245.4263, 206.9490
245.9084, 209.1137
246.3905, 212.1179
246.8727, 215.9882
247.3548, 221.8741
247.8369, 225.3806
248.3190, 225.7396
248.8011, 223.8974
249.2832, 222.3617
249.7654, 222.6873
250.2475, 220.9015
250.7296, 214.3557
251.2117, 198.2555
251.6938, 189.3860
252.1759, 191.0081
252.6581, 198.8860
253.1402, 201.8712
253.6223, 196.5058
254.1044, 191.9491
254.5865, 193.4182
255.0686, 205.5316
255.5508, 210.8606
256.0329, 206.5828
256.5150, 196.0760
256.9971, 188.6953
257.4792, 185.7341
257.9613, 183.9026
258.4435, 181.8300
258.9256, 179.0095
259.4077, 175.8188
259.8898, 171.4043
260.3719, 166.7921
260.8540, 165.6871
261.3362, 170.2870
261.8183, 174.2617
262.3004, 173.4737
262.7825, 165.2612
263.2646, 160.8682
263.7467, 162.1191
264.2289, 167.2067
264.7110, 170.3015
265.1931, 170.2937
265.6752, 170.6661
266.1573, 174.1105
266.6394, 182.2529
267.1216, 186.8692
267.6037, 186.1141
268.0858, 182.0579
268.5679, 181.2901
269.0500, 185.0269
269.5321, 189.0117
270.0143, 191.4677
270.4964, 192.8032
270.9785, 190.5306
271.4606, 184.3239
271.9427, 174.4678
272.4248, 161.0449
272.9070, 143.0729
273.3891, 124.5966
273.8712, 107.6578
274.3533, 92.27356
274.8354, 78.33047
275.3175, 65.16806
275.7997, 54.01917
276.2818, 49.09052
276.7639, 51.47821
277.2460, 55.59076
277.7281, 59.15616
278.2102, 62.39670
278.6924, 61.00751
279.1745, 52.81549
279.6566, 41.54800
280.1387, 36.60178
280.6208, 38.67291
281.1029, 42.84518
281.5851, 47.36948
282.0672, 52.24490
282.5493, 53.20551
283.0314, 48.87085
283.5135, 41.66278
283.9956, 36.72763
284.4778, 34.17853
284.9599, 32.70416
285.4420, 31.75027
285.9241, 31.28415
286.4062, 31.25955
286.8883, 32.24341
287.3705, 32.69101
287.8526, 28.58221
288.3347, 19.88403
288.8168, 11.86017
289.2989, 8.084686
289.7810, 7.920776
290.2632, 8.437408
290.7453, 9.736084
291.2274, 10.75269
291.7095, 8.806458
292.1916, 4.173859
292.6737, 0.6661990
293.1558, 1.099457
293.6379, 4.536743
294.1201, 8.679413
294.6022, 14.06006
295.0843, 18.02008
295.5664, 14.20648
296.0485, 4.158997
296.5306, 2.313538
297.0128, 3.940277
297.4949, 17.46439
297.9770, 25.46207
298.4591, 26.21625
298.9412, 24.22748
299.4233, 23.08694
299.9055, 23.21051
300.3876, 25.73337
300.8697, 33.60184
301.3518, 43.51764
301.8339, 50.31943
302.3160, 53.28989
302.7982, 54.55539
303.2803, 56.55139
303.7624, 58.55997
304.2445, 58.82413
304.7266, 54.40933
305.2087, 48.67316
305.6909, 45.42358
306.1730, 45.15417
306.6551, 45.91846
307.1372, 47.14914
307.6193, 48.30173
308.1014, 48.29944
308.5836, 45.91330
309.0657, 43.25528
309.5478, 41.05185
310.0299, 39.10922
310.5120, 39.11133
310.9941, 43.24805
311.4763, 49.98105
311.9584, 57.13171
312.4405, 65.13611
312.9226, 72.16919
313.4047, 77.15097
313.8868, 80.06458
314.3690, 80.94449
314.8511, 77.88086
315.3332, 73.28751
315.8153, 69.90543
316.2974, 68.08823
316.7795, 68.25461
317.2617, 71.56863
317.7438, 78.01932
318.2259, 84.12985
318.7080, 87.29492
319.1901, 90.23523
319.6722, 95.25153
320.1544, 106.5658
320.6365, 116.6188
321.1186, 122.1719
321.6007, 123.5681
322.0828, 125.7797
322.5649, 132.2328
323.0471, 138.6631
323.5292, 142.0187
324.0113, 139.1604
324.4934, 136.0522
324.9755, 134.5507
325.4576, 134.3758
325.9398, 131.4932
326.4219, 120.0279
326.9040, 109.6821
327.3861, 105.5308
327.8682, 115.8501
328.3503, 122.6844
328.8325, 122.7235
329.3146, 118.2410
329.7967, 118.5409
330.2788, 129.6172
330.7609, 139.6591
331.2430, 143.0811
331.7251, 134.5785
332.2072, 128.8607
332.6894, 127.9718
333.1715, 129.4957
333.6536, 126.8832
334.1357, 117.6351
334.6178, 108.2545
335.0999, 101.3019
335.5821, 97.17664
336.0642, 94.27478
336.5463, 92.50171
337.0284, 92.26746
337.5105, 94.78217
337.9926, 101.3199
338.4748, 107.6786
338.9569, 113.1010
339.4390, 117.8149
339.9211, 117.1429
340.4032, 109.6507
340.8853, 99.43140
341.3675, 92.18921
341.8496, 88.13501
342.3317, 86.31927
342.8138, 86.84351
343.2959, 89.33588
343.7780, 92.57635
344.2602, 96.93945
344.7423, 100.4785
345.2244, 100.8828
345.7065, 98.37146
346.1886, 94.57855
346.6707, 89.27271
347.1529, 83.36963
347.6350, 79.65527
348.1171, 77.96539
348.5992, 76.45709
349.0813, 73.49561
349.5634, 69.73315
350.0456, 66.60168
350.5277, 64.48187
351.0098, 63.12952
351.4919, 63.08075
351.9740, 63.99127
352.4561, 63.34515
352.9383, 57.57495
353.4204, 49.51605
353.9025, 44.04462
354.3846, 43.26196
354.8667, 42.95294
355.3488, 36.45490
355.8310, 26.43390
356.3131, 20.85602
356.7952, 30.51764
357.2773, 43.49561
357.7594, 48.01636
358.2415, 40.47565
358.7237, 31.04346
359.2058, 24.84235
359.6879, 21.05615
360.1700, 18.22223
360.6521, 16.35626
361.1342, 14.78754
361.6164, 12.71228
362.0985, 9.719788
362.5806, 8.415283
363.0627, 11.34766
363.5448, 15.91058
364.0269, 19.06824
364.5091, 21.77234
364.9912, 21.34216
365.4733, 15.00092
365.9554, 2.347839
366.4375, 6.773865
366.9196, 8.284790
367.4018, 7.154724
367.8839, 7.244446
368.3660, 10.42560
368.8481, 12.98993
369.3302, 14.42120
369.8123, 14.82739
370.2944, 15.19379
370.7766, 16.11395
371.2587, 16.42010
371.7408, 15.44013
372.2229, 12.89557
372.7050, 9.578491
373.1871, 4.759033
373.6693, 0.5792240
374.1514, 4.016663
374.6335, 5.357788
375.1156, 5.163757
375.5977, 2.917542
376.0798, 2.459595
376.5620, 4.197388
377.0441, 1.039185
377.5262, 4.104126
378.0083, 6.071533
378.4904, 4.414917
378.9725, 3.290100
379.4547, 4.656006
379.9368, 8.159729
380.4189, 11.51965
380.9010, 15.06482
381.3831, 16.89850
381.8652, 12.71338
382.3474, 3.651306
382.8295, 1.914307
383.3116, 0.1893310
383.7937, 6.449036
384.2758, 9.521667
384.7579, 9.434265
385.2401, 8.622742
385.7222, 8.864136
386.2043, 9.805237
386.6864, 10.70062
387.1685, 11.24573
387.6506, 11.89728
388.1328, 12.95264
388.6149, 14.50006
389.0970, 16.73016
389.5791, 22.32294
390.0612, 27.41504
390.5433, 27.27179
391.0255, 19.57355
391.5076, 12.06274
391.9897, 10.89020
392.4718, 12.92621
392.9539, 12.54993
393.4360, 2.815369
393.9182, 5.982727
394.4003, 7.713501
394.8824, 0.9579470
395.3645, 4.788330
395.8466, 7.226135
396.3287, 7.087158
396.8109, 5.091858
397.2930, 2.446655
397.7751, 7.841980
398.2572, 7.499573
398.7393, 1.749939
399.2214, 0.7406620
399.7036, 10.29016
400.1857, 20.48126
400.6678, 25.64429
401.1499, 22.66052
401.6320, 19.58191
402.1141, 16.24268
402.5963, 13.05273
403.0784, 11.32288
403.5605, 11.34253
404.0426, 12.28040
404.5247, 14.56799
405.0068, 19.31018
405.4890, 19.34216
405.9711, 13.06976
406.4532, 4.434082
406.9353, 0.4109500
407.4174, 0.9851070
407.8995, 1.962769
408.3816, 5.496094
408.8637, 10.89423
409.3459, 14.56165
409.8280, 16.48303
410.3101, 17.07648
410.7922, 15.04840
411.2743, 11.49847
411.7564, 11.51935
412.2386, 17.55377
412.7207, 26.53369
413.2028, 34.94434
413.6849, 42.49872
414.1670, 47.01843
414.6491, 45.80011
415.1313, 41.32556
415.6134, 37.06720
416.0955, 33.47644
416.5776, 30.43280
417.0597, 27.69989
417.5418, 25.37836
418.0240, 23.68866
418.5061, 23.86847
418.9882, 23.89020
419.4703, 21.43292
419.9524, 15.93018
420.4345, 13.13068
420.9167, 18.26184
421.3988, 26.15009
421.8809, 31.70691
422.3630, 26.80737
422.8451, 26.61792
423.3272, 38.69086
423.8094, 60.75720
424.2915, 74.95264
424.7736, 74.35248
425.2557, 70.38928
425.7378, 68.29077
426.2199, 67.13788
426.7021, 68.85529
427.1842, 73.90582
427.6663, 81.86316
428.1484, 92.06860
428.6305, 106.0789
429.1126, 119.4612
429.5948, 131.0426
430.0769, 140.8524
430.5590, 148.5428
431.0411, 152.9192
431.5232, 157.8963
432.0053, 167.6594
432.4875, 182.1522
432.9696, 200.0805
433.4517, 223.6803
433.9338, 248.6974
434.4159, 262.3408
434.8980, 264.9095
435.3802, 265.9269
435.8623, 274.5734
436.3444, 286.8362
436.8265, 291.9366
437.3086, 287.5033
437.7907, 278.4271
438.2729, 268.2242
438.7550, 257.3766
439.2371, 247.2126
439.7192, 243.2698
440.2013, 237.2603
440.6834, 218.0255
441.1656, 184.5724
441.6477, 155.5853
442.1298, 142.9972
442.6119, 139.5499
443.0940, 137.4266
443.5761, 139.9023
444.0583, 137.6572
444.5403, 123.4501
445.0225, 100.0992
445.5046, 82.85461
445.9867, 79.08148
446.4688, 78.82056
446.9509, 77.09265
447.4330, 71.37415
447.9152, 68.15704
448.3973, 67.83075
448.8794, 69.87000
449.3615, 73.89355
449.8436, 82.06812
450.3257, 88.27997
450.8079, 89.80823
451.2900, 86.51727
451.7721, 86.35730
452.2542, 89.77075
452.7363, 96.14062
453.2184, 105.6259
453.7006, 118.4379
454.1827, 128.0787
454.6648, 132.6803
455.1469, 134.0823
455.6290, 135.4874
456.1111, 137.1650
456.5933, 140.6720
457.0754, 147.8853
457.5575, 156.9438
458.0396, 162.8389
458.5217, 164.8860
459.0038, 168.5253
459.4860, 180.2222
459.9681, 197.0985
460.4502, 213.1601
460.9323, 218.2447
461.4144, 227.2223
461.8965, 253.0052
462.3787, 294.1649
462.8608, 339.1743
463.3429, 383.9421
463.8250, 430.5966
464.3071, 480.4800
464.7892, 532.4815
465.2714, 589.5715
465.7535, 653.2435
466.2356, 722.6629
466.7177, 794.8528
467.1998, 864.8027
467.6819, 941.8431
468.1641, 1027.954
468.6462, 1122.597
469.1283, 1229.764
469.6104, 1348.358
470.0925, 1480.722
470.5746, 1632.315
471.0568, 1807.089
471.5389, 1985.915
472.0210, 2165.041
472.5031, 2347.632
472.9852, 2552.251
473.4673, 2787.198
473.9495, 2989.001
474.4316, 3136.832
474.9137, 3225.756
475.3958, 3222.782
475.8779, 3124.222
476.3600, 2946.246
476.8422, 2674.023
477.3243, 2334.407
477.8064, 2008.138
478.2885, 1719.245
478.7706, 1466.810
479.2527, 1254.828
479.7349, 1081.483
480.2170, 935.7524
480.6991, 819.0747
481.1812, 723.9882
481.6633, 645.1352
482.1454, 582.4700
482.6275, 533.2299
483.1096, 500.0839
483.5918, 479.2346
484.0739, 464.9908
484.5560, 462.6464
485.0381, 460.3891
485.5202, 452.8614
486.0023, 439.0840
486.4845, 433.3607
486.9666, 439.3208
487.4487, 450.1362
487.9308, 463.1884
488.4129, 485.1121
488.8951, 492.5577
489.3772, 479.6547
489.8593, 455.1589
490.3414, 437.9989
490.8235, 428.2222
491.3056, 424.9481
491.7878, 428.1190
492.2699, 437.6233
492.7520, 454.7010
493.2341, 480.2156
493.7162, 505.2401
494.1983, 515.8719
494.6805, 518.1240
495.1626, 531.4854
495.6447, 567.3905
496.1268, 605.3488
496.6089, 620.9213
497.0910, 619.1979
497.5732, 616.9138
498.0553, 626.6238
498.5374, 637.1352
499.0195, 640.1103
499.5016, 634.6224
499.9837, 623.1693
500.4659, 601.1285
500.9480, 576.4580
501.4301, 556.6288
501.9122, 543.3428
502.3943, 535.0773
502.8764, 535.7766
503.3586, 542.5411
503.8407, 542.7488
504.3228, 534.8192
504.8049, 522.1027
505.2870, 504.5182
505.7691, 480.0497
506.2513, 460.8838
506.7334, 448.2368
507.2155, 439.2335
507.6976, 430.3948
508.1797, 421.5958
508.6618, 415.2465
509.1440, 413.3065
509.6261, 413.0492
510.1082, 408.1909
510.5903, 398.6018
511.0724, 385.7025
511.5545, 368.7330
512.0366, 350.5463
512.5187, 335.5619
513.0009, 324.2836
513.4830, 315.2919
513.9651, 308.2047
514.4472, 301.2484
514.9293, 292.7299
515.4114, 283.4270
515.8936, 272.0307
516.3757, 256.7889
516.8578, 238.2124
517.3399, 219.2296
517.8220, 200.4456
518.3041, 182.2384
518.7863, 164.0765
519.2684, 144.1569
519.7505, 126.7403
520.2326, 113.3490
520.7147, 102.5409
521.1968, 92.37708
521.6790, 82.35022
522.1611, 73.88519
522.6432, 68.06836
523.1253, 64.17877
523.6074, 57.20740
524.0895, 45.86298
524.5717, 36.90204
525.0538, 36.75671
525.5359, 43.92743
526.0180, 47.34863
526.5001, 44.91522
526.9822, 44.71167
527.4644, 61.58887
527.9465, 87.73315
528.4286, 104.4128
528.9107, 100.1338
529.3928, 90.18951
529.8749, 85.93524
530.3571, 86.93933
530.8392, 91.77472
531.3213, 102.7665
531.8034, 115.1079
532.2855, 125.6932
532.7676, 133.3470
533.2498, 142.7313
533.7319, 152.8571
534.2140, 166.1193
534.6961, 185.5269
535.1782, 217.5447
535.6603, 246.0690
536.1425, 270.4062
536.6246, 290.1917
537.1067, 303.3291
537.5888, 306.4575
538.0709, 311.9568
538.5530, 327.5219
539.0352, 352.7930
539.5173, 374.5360
539.9994, 392.9467
540.4815, 405.2119
540.9636, 406.5059
541.4457, 398.6722
541.9279, 387.9640
542.4100, 374.6090
542.8921, 361.2524
543.3742, 352.9049
543.8563, 347.6956
544.3384, 340.2402
544.8206, 325.6398
545.3027, 309.3140
545.7848, 295.5522
546.2669, 284.8358
546.7490, 273.2301
547.2311, 258.6081
547.7133, 243.0953
548.1954, 227.9972
548.6775, 211.9243
549.1596, 198.4637
549.6417, 186.9674
550.1238, 178.3262
550.6060, 174.9172
551.0881, 179.1172
551.5702, 183.7161
552.0523, 188.3661
552.5344, 192.2988
553.0165, 184.5865
553.4987, 163.0910
553.9808, 141.1862
554.4629, 130.4819
554.9450, 128.9468
555.4271, 127.8082
555.9092, 126.6332
556.3914, 123.1620
556.8735, 112.0870
557.3556, 96.74109
557.8377, 84.64374
558.3198, 81.48511
558.8019, 80.76379
559.2841, 78.37128
559.7662, 74.44470
560.2483, 69.89301
560.7304, 64.21704
561.2125, 58.64935
561.6946, 53.59235
562.1768, 48.40234
562.6589, 45.88593
563.1410, 51.80304
563.6231, 56.95593
564.1052, 50.20868
564.5873, 22.19873
565.0695, 4.575195
565.5516, 5.559509
566.0337, 18.36658
566.5158, 20.00885
566.9979, 9.054565
567.4800, 1.203796
567.9622, 1.564209
568.4443, 4.665527
568.9264, 4.501404
569.4085, 2.352295
569.8906, 11.58777
570.3727, 22.92902
570.8549, 33.21924
571.3370, 37.05963
571.8191, 30.29041
572.3012, 22.79608
572.7833, 21.45074
573.2654, 23.86493
573.7476, 25.67236
574.2297, 23.87268
574.7118, 22.77148
575.1939, 25.32788
575.6760, 31.51855
576.1581, 33.04498
576.6403, 25.32410
577.1223, 17.60382
577.6044, 14.84943
578.0865, 18.79462
578.5687, 21.75006
579.0508, 23.25897
579.5329, 24.51721
580.0150, 28.09009
580.4971, 33.87585
580.9792, 36.22406
581.4614, 32.27502
581.9435, 25.80615
582.4256, 25.01080
582.9077, 28.59680
583.3898, 30.33057
583.8719, 25.49591
584.3541, 17.72583
584.8362, 9.739014
585.3183, 1.732605
585.8004, 4.596558
586.2825, 6.740662
586.7646, 7.762146
587.2468, 10.28821
587.7289, 16.49976
588.2110, 21.68854
588.6931, 23.47620
589.1752, 24.50378
589.6573, 29.21692
590.1395, 40.06775
590.6216, 49.67950
591.1037, 55.50256
591.5858, 58.70447
592.0679, 66.61987
592.5500, 80.03473
593.0322, 93.17224
593.5143, 100.9981
593.9964, 105.2419
594.4785, 114.0016
594.9606, 128.2722
595.4427, 141.4592
595.9249, 143.2037
596.4070, 140.7197
596.8891, 146.2593
597.3712, 167.6042
597.8533, 191.1753
598.3354, 209.5505
598.8176, 224.3810
599.2997, 239.0176
599.7818, 252.3185
600.2639, 267.4008
600.7460, 285.9972
601.2281, 308.2170
601.7103, 329.0932
602.1924, 345.3647
602.6745, 364.8077
603.1566, 393.3190
603.6387, 433.5289
604.1208, 467.1884
604.6030, 492.8940
605.0851, 515.5966
605.5672, 541.4945
606.0493, 570.1963
606.5314, 596.3727
607.0135, 616.9714
607.4957, 637.9922
607.9778, 668.2516
608.4599, 705.5780
608.9420, 744.5473
609.4241, 779.0872
609.9063, 816.5370
610.3884, 861.7220
610.8705, 915.1409
611.3526, 972.2690
611.8347, 1041.563
612.3168, 1107.720
612.7990, 1159.134
613.2811, 1179.670
613.7632, 1223.740
614.2453, 1297.449
614.7274, 1387.742
615.2095, 1474.353
615.6917, 1553.453
616.1738, 1654.785
616.6559, 1789.383
617.1380, 1941.936
617.6201, 2076.857
618.1022, 2196.548
618.5844, 2333.246
619.0665, 2510.356
619.5486, 2709.685
620.0307, 2906.086
620.5128, 3100.146
620.9949, 3318.075
621.4771, 3576.738
621.9592, 3861.745
622.4413, 4158.698
622.9234, 4461.299
623.4055, 4794.662
623.8876, 5157.735
624.3698, 5557.809
624.8519, 6000.871
625.3340, 6491.104
625.8161, 7017.269
626.2982, 7580.298
626.7803, 8180.877
627.2625, 8819.529
627.7446, 9495.412
628.2267, 10216.38
628.7088, 10989.10
629.1909, 11812.18
629.6730, 12690.20
630.1552, 13620.46
630.6373, 14527.37
631.1194, 15378.58
631.6015, 16156.32
632.0836, 16862.26
632.5657, 17516.44
633.0479, 17980.23
633.5300, 18235.05
634.0121, 18241.62
634.4942, 17958.81
634.9763, 17221.09
635.4584, 16387.89
635.9406, 15458.60
636.4227, 14460.42
636.9048, 13408.69
637.3869, 12282.99
637.8690, 11191.61
638.3511, 10165.99
638.8333, 9207.490
639.3154, 8340.819
639.7975, 7573.000
640.2796, 6866.103
640.7617, 6193.707
641.2438, 5577.335
641.7260, 5052.949
642.2081, 4628.102
642.6902, 4254.958
643.1723, 3909.217
643.6544, 3597.355
644.1365, 3321.631
644.6187, 3093.965
645.1008, 2885.066
645.5829, 2689.169
646.0650, 2508.034
646.5471, 2346.893
647.0292, 2212.297
647.5114, 2082.822
647.9935, 1955.117
648.4756, 1829.205
648.9577, 1709.674
649.4398, 1594.075
649.9219, 1493.740
650.4041, 1419.148
650.8862, 1362.297
651.3683, 1304.943
651.8504, 1247.395
652.3325, 1189.549
652.8146, 1135.621
653.2967, 1081.779
653.7788, 1018.268
654.2609, 938.6138
654.7430, 873.1008
655.2252, 846.9614
655.7073, 834.5227
656.1894, 811.7371
656.6715, 765.8140
657.1536, 723.4710
657.6357, 684.6389
658.1179, 650.1417
658.6000, 623.5834
659.0821, 606.7880
659.5642, 588.7374
660.0463, 565.8361
660.5284, 540.0256
661.0106, 515.7594
661.4927, 493.1721
661.9748, 474.1798
662.4569, 462.5555
662.9390, 453.7107
663.4211, 441.9087
663.9033, 427.0591
664.3854, 413.3025
664.8675, 400.7549
665.3496, 391.4958
665.8317, 388.2018
666.3138, 395.8849
666.7960, 397.0056
667.2781, 385.9402
667.7602, 371.5123
668.2423, 362.1367
668.7244, 358.5355
669.2065, 358.7469
669.6887, 363.3544
670.1708, 368.1017
670.6529, 364.8894
671.1350, 354.8325
671.6171, 345.8530
672.0992, 341.3179
672.5814, 339.2992
673.0635, 338.0506
673.5456, 337.5350
674.0277, 337.1604
674.5098, 336.2218
674.9919, 334.6937
675.4741, 332.4543
675.9562, 330.1323
676.4383, 328.1714
676.9204, 320.2946
677.4025, 318.0172
677.8846, 328.9884
678.3668, 359.6182
678.8489, 379.2111
679.3310, 385.0491
679.8131, 384.8909
680.2952, 385.3082
680.7773, 386.5964
681.2595, 391.3763
681.7416, 400.8013
682.2237, 411.2079
682.7058, 416.3193
683.1879, 420.0521
683.6700, 429.6912
684.1522, 452.2684
684.6343, 476.5620
685.1164, 500.9940
685.5985, 523.9489
686.0806, 541.2018
686.5627, 545.5059
687.0449, 550.9600
687.5270, 560.5078
688.0091, 573.8600
688.4912, 589.1896
688.9733, 607.2968
689.4554, 624.9720
689.9376, 641.0031
690.4197, 655.4819
690.9018, 665.4841
691.3839, 670.7331
691.8660, 677.0916
692.3481, 690.0496
692.8303, 706.7369
693.3124, 725.0590
693.7945, 746.7247
694.2766, 761.6711
694.7587, 765.3320
695.2408, 760.1652
695.7230, 748.8898
696.2051, 729.1793
696.6872, 707.8138
697.1693, 684.9097
697.6514, 660.6693
698.1335, 637.0432
698.6157, 615.3990
699.0978, 584.7446
699.5799, 540.6714
700.0620, 487.5738
700.5441, 430.6832
701.0262, 371.6630
701.5084, 318.7153
701.9905, 279.4038
702.4726, 246.3260
702.9547, 215.1930
703.4368, 185.3530
703.9189, 154.4801
704.4011, 112.4804
704.8832, 77.03955
705.3653, 59.46008
705.8474, 62.29205
706.3295, 64.94366
706.8116, 70.44556
707.2938, 70.69788
707.7759, 56.36169
708.2580, 27.19562
708.7401, 8.115906
709.2222, 1.776550
709.7043, 0.8325810
710.1865, 13.01025
710.6686, 28.17963
711.1507, 31.05414
711.6328, 13.22260
712.1149, 5.008057
712.5970, 9.359985
713.0792, 5.908752
713.5613, 3.156921
714.0434, 2.538635
714.5255, 3.645447
715.0076, 6.877991
715.4897, 11.54974
715.9719, 16.20325
716.4540, 20.75970
716.9361, 25.32422
717.4182, 29.50287
717.9003, 33.93890
718.3824, 43.00714
718.8646, 55.70026
719.3467, 63.64526
719.8288, 58.73627
720.3109, 48.30176
720.7930, 39.83984
721.2751, 33.53418
721.7573, 28.01312
722.2394, 21.32721
722.7215, 16.47015
723.2036, 16.03534
723.6857, 21.53632
724.1678, 25.15344
724.6500, 28.30591
725.1321, 27.53296
725.6142, 17.24530
726.0963, 3.273804
726.5784, 12.81433
727.0605, 9.006104
727.5427, 1.077332
728.0248, 1.844055
728.5069, 1.043762
728.9890, 0.8630980
729.4711, 3.350708
729.9532, 6.610779
730.4353, 14.22638
730.9174, 21.51257
731.3995, 22.41046
731.8817, 4.492798
732.3638, 5.922424
732.8459, 0.7691040
733.3280, 11.57434
733.8101, 12.49176
734.2922, 2.062744
734.7744, 9.581848
735.2565, 1.644043
735.7386, 14.62793
736.2207, 22.41956
736.7028, 22.72485
737.1849, 21.41193
737.6671, 21.55054
738.1492, 21.49872
738.6313, 18.41150
739.1134, 13.22235
739.5955, 10.80005
740.0776, 18.38782
740.5598, 24.09845
741.0419, 20.50714
741.5240, 7.530212
742.0061, 0.1373900
742.4882, 1.302307
742.9703, 0.4095460
743.4525, 4.265259
743.9346, 9.893188
744.4167, 11.38196
744.8988, 8.491882
745.3809, 4.720825
745.8630, 3.957581
746.3452, 3.868774
746.8273, 0.9132690
747.3094, 5.841003
747.7915, 12.93420
748.2736, 20.94006
748.7557, 27.40704
749.2379, 29.85358
749.7200, 26.37390
750.2021, 22.12152
750.6842, 16.69617
751.1663, 11.12482
751.6484, 5.275513
752.1306, 0.9672240
752.6127, 0.8029170
753.0948, 7.087708
753.5769, 21.23602
754.0590, 43.63965
754.5411, 70.49219
755.0233, 92.54303
755.5054, 102.3946
755.9875, 112.4457
756.4696, 129.6516
756.9517, 151.6779
757.4338, 174.4438
757.9160, 196.7589
758.3981, 220.2438
758.8802, 244.7974
759.3623, 270.5841
759.8444, 297.6455
760.3265, 325.4207
760.8087, 359.3734
761.2908, 404.2037
761.7729, 454.4677
762.2550, 496.2640
762.7371, 532.8560
763.2192, 579.5658
763.7014, 650.9938
764.1835, 730.6647
764.6656, 803.5911
765.1477, 871.2729
765.6298, 951.1373
766.1119, 1053.834
766.5941, 1162.259
767.0762, 1268.723
767.5583, 1373.448
768.0404, 1497.053
768.5225, 1640.165
769.0046, 1786.897
769.4868, 1924.546
769.9689, 2056.286
770.4510, 2195.192
770.9331, 2341.347
771.4152, 2477.151
771.8973, 2584.177
772.3795, 2678.010
772.8616, 2775.182
773.3437, 2884.740
773.8258, 2964.174
774.3079, 2998.176
774.7900, 3009.603
775.2722, 3011.498
775.7543, 3004.045
776.2364, 2988.281
776.7185, 2966.158
777.2006, 2928.030
777.6827, 2859.594
778.1649, 2767.474
778.6470, 2666.292
779.1291, 2557.083
779.6112, 2444.036
780.0933, 2323.524
780.5754, 2202.107
781.0576, 2088.854
781.5397, 1991.606
782.0218, 1891.007
782.5039, 1781.083
782.9860, 1670.445
783.4681, 1565.343
783.9503, 1465.298
784.4324, 1378.980
784.9145, 1311.424
785.3966, 1253.539
785.8787, 1192.433
786.3608, 1130.258
786.8430, 1070.782
787.3251, 1013.492
787.8072, 963.5128
788.2893, 927.3336
788.7714, 899.3694
789.2535, 870.0807
789.7357, 837.2992
790.2178, 805.2842
790.6999, 772.6573
791.1820, 740.9869
791.6641, 714.2698
792.1462, 693.7703
792.6284, 675.6473
793.1105, 659.4140
793.5926, 643.0779
794.0747, 624.9194
794.5568, 605.7275
795.0389, 586.4312
795.5211, 565.8353
796.0032, 546.7806
796.4853, 531.9572
796.9674, 520.2255
797.4495, 506.8684
797.9316, 487.3156
798.4138, 471.0560
798.8959, 461.6389
799.3780, 457.8113
799.8601, 453.6575
800.3422, 448.8141
800.8243, 444.2112
801.3065, 441.8919
801.7886, 438.5648
802.2707, 427.5476
802.7528, 411.3695
803.2349, 397.6422
803.7170, 396.3180
804.1992, 392.0695
804.6813, 373.9875
805.1633, 344.3419
805.6454, 324.5447
806.1276, 318.2880
806.6097, 314.9856
807.0918, 311.4426
807.5739, 307.6581
808.0560, 304.4657
808.5381, 301.6878
809.0203, 295.7973
809.5024, 279.8414
809.9845, 262.5229
810.4666, 256.5807
810.9487, 260.2953
811.4308, 259.8780
811.9130, 244.1043
812.3951, 228.7891
812.8772, 221.5284
813.3593, 221.7638
813.8414, 220.6385
814.3235, 219.0394
814.8057, 213.1906
815.2878, 197.7892
815.7699, 176.7368
816.2520, 166.8431
816.7341, 166.9678
817.2162, 166.5689
817.6984, 156.4161
818.1805, 144.4996
818.6626, 137.9554
819.1447, 136.9480
819.6268, 135.0783
820.1089, 133.3672
820.5911, 127.8509
821.0732, 114.9475
821.5553, 95.01532
822.0374, 83.09210
822.5195, 79.71918
823.0016, 79.28387
823.4838, 80.09070
823.9659, 80.52490
824.4480, 76.21039
824.9301, 67.44983
825.4122, 59.99829
825.8943, 57.71680
826.3765, 57.03967
826.8586, 56.26428
827.3407, 55.32190
827.8228, 52.66516
828.3049, 47.77222
828.7870, 42.13092
829.2692, 36.38306
829.7513, 30.57043
830.2334, 24.38916
830.7155, 17.82043
831.1976, 13.40161
831.6797, 16.51801
832.1619, 20.54529
832.6440, 15.71729
833.1261, 2.127258
833.6082, 6.360657
834.0903, 2.019592
834.5724, 6.090027
835.0546, 14.92383
835.5367, 24.58215
836.0188, 28.14386
836.5009, 23.96838
836.9830, 20.27954
837.4651, 23.36194
837.9473, 30.65472
838.4294, 33.18835
838.9115, 31.71722
839.3936, 35.73767
839.8757, 58.24707
840.3578, 82.92896
840.8400, 98.43024
841.3221, 103.7677
841.8042, 106.3245
842.2863, 105.0339
842.7684, 103.4430
843.2505, 102.1271
843.7327, 101.5807
844.2148, 107.7650
844.6969, 120.5892
845.1790, 134.9910
845.6611, 149.4542
846.1432, 163.5062
846.6254, 176.3949
847.1075, 187.9805
847.5896, 198.5440
848.0717, 211.0061
848.5538, 219.7433
849.0359, 220.8802
849.5181, 215.2667
850.0002, 213.2198
850.4823, 215.2433
850.9644, 218.1508
851.4465, 221.7637
851.9286, 225.1646
852.4108, 225.5226
852.8929, 223.4211
853.3750, 220.6315
853.8571, 213.9579
854.3392, 209.2332
854.8214, 213.4801
855.3035, 226.0191
855.7856, 231.4448
856.2677, 222.1076
856.7498, 216.2568
857.2319, 221.5536
857.7141, 235.1577
858.1962, 244.8613
858.6783, 250.8103
859.1604, 255.3029
859.6425, 260.1401
860.1246, 263.4768
860.6068, 260.9610
861.0889, 254.8895
861.5710, 253.1075
862.0531, 264.9129
862.5352, 273.4114
863.0173, 272.5604
863.4995, 265.3146
863.9816, 262.1242
864.4637, 263.8560
864.9458, 262.8787
865.4279, 254.9650
865.9100, 244.5388
866.3922, 239.8917
866.8743, 239.4528
867.3564, 238.6942
867.8385, 235.0504
868.3206, 231.3544
868.8027, 228.9730
869.2849, 227.3624
869.7670, 225.2222
870.2491, 222.1917
870.7312, 220.0496
871.2133, 219.2780
871.6954, 218.7736
872.1776, 217.5242
872.6597, 215.1386
873.1418, 209.2805
873.6239, 195.8373
874.1060, 184.4181
874.5881, 186.2683
875.0703, 193.7365
875.5524, 195.1528
876.0345, 179.8582
876.5166, 170.4892
876.9987, 171.2769
877.4808, 175.0587
877.9630, 169.8120
878.4451, 156.2651
878.9272, 149.0994
879.4093, 152.1279
879.8914, 157.0402
880.3735, 156.6313
880.8557, 152.0999
881.3377, 144.6768
881.8198, 132.7058
882.3019, 121.7648
882.7841, 112.4072
883.2662, 104.8591
883.7483, 99.58502
884.2304, 96.80859
884.7125, 94.82361
885.1946, 93.79889
885.6768, 92.31647
886.1589, 88.58893
886.6410, 83.53021
887.1231, 78.25095
887.6052, 72.77490
888.0873, 68.42096
888.5695, 67.19104
889.0516, 66.16647
889.5337, 62.60394
890.0158, 55.48462
890.4979, 53.21689
890.9800, 57.01212
891.4622, 61.12677
891.9443, 61.51367
892.4264, 59.03345
892.9085, 56.03012
893.3906, 52.50903
893.8727, 47.27032
894.3549, 35.24771
894.8370, 24.88303
895.3191, 23.54465
895.8012, 31.62842
896.2833, 33.36853
896.7654, 25.93661
897.2476, 18.99796
897.7297, 18.02350
898.2118, 20.51898
898.6939, 16.56644
899.1760, 7.476593
899.6581, 1.277191
900.1403, 7.603302
900.6224, 13.59683
901.1045, 7.448853
901.5866, 7.030945
902.0687, 14.20633
902.5508, 8.036957
903.0330, 3.100098
903.5151, 2.902649
903.9972, 5.410248
904.4793, 5.596313
904.9614, 3.785828
905.4435, 2.316772
905.9257, 2.084656
906.4078, 2.346008
906.8899, 3.206116
907.3720, 3.926117
907.8541, 3.313446
908.3362, 1.638489
908.8184, 4.143860
909.3005, 3.508759
909.7826, 0.5583500
910.2647, 5.298553
910.7468, 13.61395
911.2289, 15.66074
911.7111, 8.816437
912.1932, 2.034790
912.6753, 6.737732
913.1574, 15.27313
913.6395, 18.04709
914.1216, 10.92975
914.6038, 5.223358
915.0859, 3.281403
915.5680, 2.533142
916.0501, 1.807404
916.5322, 1.181793
917.0143, 3.209686
917.4965, 11.74585
917.9786, 17.87863
918.4607, 13.55783
918.9428, 5.581238
919.4249, 1.950226
919.9070, 3.134247
920.3892, 4.457214
920.8713, 4.440369
921.3534, 4.362488
921.8355, 4.291565
922.3176, 4.465271
922.7997, 7.270660
923.2819, 12.82440
923.7640, 17.50421
924.2461, 19.81616
924.7282, 19.87582
925.2103, 16.10406
925.6924, 10.10553
926.1746, 6.401886
926.6567, 9.883667
927.1388, 11.86526
927.6209, 8.234406
928.1030, 2.961975
928.5851, 5.334229
929.0673, 16.04065
929.5494, 23.65717
930.0315, 25.48331
930.5136, 23.82684
930.9957, 18.76773
931.4778, 13.10617
931.9600, 11.92310
932.4421, 20.67999
932.9242, 25.35809
933.4063, 17.75024
933.8884, 8.793396
934.3705, 8.360565
934.8527, 17.81335
935.3348, 21.83865
935.8169, 19.14124
936.2990, 16.36987
936.7811, 22.13358
937.2632, 30.34381
937.7454, 31.58102
938.2275, 24.70264
938.7096, 20.26266
939.1917, 24.47302
939.6738, 29.06860
940.1559, 30.13840
940.6381, 28.14145
941.1202, 29.21771
941.6023, 33.58395
942.0844, 36.36163
942.5665, 33.40939
943.0486, 28.33340
943.5308, 25.73422
944.0129, 25.23349
944.4950, 25.30630
944.9771, 22.36035
945.4592, 24.17480
945.9413, 35.06842
946.4235, 49.79651
946.9056, 57.84723
947.3877, 59.24133
947.8698, 57.68039
948.3519, 52.72128
948.8340, 49.13324
949.3162, 54.38010
949.7983, 63.80469
950.2804, 70.73206
950.7625, 73.02014
951.2446, 73.98694
951.7267, 73.45251
952.2089, 72.55283
952.6910, 72.25989
953.1731, 72.56747
953.6552, 72.47388
954.1373, 71.94482
954.6194, 71.18210
955.1016, 67.73660
955.5837, 65.96671
956.0658, 71.97702
956.5479, 85.87524
957.0300, 96.22382
957.5121, 98.54300
957.9942, 100.8950
958.4763, 106.1793
958.9584, 113.3074
959.4406, 118.6505
959.9227, 122.1698
960.4048, 123.4465
960.8869, 118.4462
961.3690, 114.4138
961.8511, 120.1066
962.3333, 130.6418
962.8154, 136.0220
963.2975, 130.3482
963.7796, 126.3221
964.2617, 124.4310
964.7438, 125.1953
965.2260, 130.7774
965.7081, 140.0099
966.1902, 148.1406
966.6723, 154.2349
967.1544, 157.5241
967.6365, 154.5876
968.1187, 150.0475
968.6008, 148.1418
969.0829, 150.2119
969.5650, 153.5267
970.0471, 158.9933
970.5292, 162.1943
971.0114, 159.3036
971.4935, 152.8679
971.9756, 150.2507
972.4577, 151.0000
972.9398, 152.5707
973.4219, 154.8012
973.9041, 157.3201
974.3862, 159.9060
974.8683, 161.4430
975.3504, 160.6082
975.8325, 157.0213
976.3146, 152.2735
976.7968, 146.4715
977.2789, 140.8457
977.7610, 138.1706
978.2431, 136.3805
978.7252, 131.8033
979.2073, 122.0414
979.6895, 112.2567
980.1716, 104.0376
980.6537, 96.58398
981.1358, 89.45908
981.6179, 82.99222
982.1000, 76.70151
982.5822, 70.61801
983.0643, 66.22662
983.5464, 66.00269
984.0285, 67.00757
984.5106, 64.73373
984.9927, 59.63110
985.4749, 55.71075
985.9570, 57.73260
986.4391, 56.42450
986.9212, 47.84125
987.4033, 34.97189
987.8854, 25.68011
988.3676, 20.18945
988.8497, 20.07068
989.3318, 29.12930
989.8139, 37.01254
990.2960, 32.52396
990.7781, 21.92776
991.2603, 14.11142
991.7424, 12.03494
992.2245, 9.853088
992.7066, 7.250214
993.1887, 5.183075
993.6708, 4.742828
994.1530, 5.596100
994.6351, 6.419403
995.1172, 7.183258
995.5993, 8.679230
996.0814, 14.02084
996.5635, 17.84882
997.0457, 15.35559
997.5278, 7.619324
998.0099, 3.440033
998.4920, 3.629883
998.9741, 3.281525
999.4562, 8.7219000E-02
999.9384, 3.744476
1000.420, 2.341217
1000.903, 2.198792
1001.385, 5.697937
1001.867, 6.183380
1002.349, 6.114807
1002.831, 4.778595
1003.313, 4.221466
1003.795, 7.463562
1004.277, 14.82718
1004.760, 17.55121
1005.242, 14.94138
1005.724, 11.36575
1006.206, 9.792572
1006.688, 9.670898
1007.170, 10.76144
1007.652, 13.00815
1008.134, 15.34555
1008.616, 18.63748
1009.099, 20.10391
1009.581, 17.65631
1010.063, 13.71957
1010.545, 16.28445
1011.027, 23.33557
1011.509, 26.93893
1011.991, 21.95605
1012.473, 16.47937
1012.956, 15.03381
1013.438, 15.82263
1013.920, 16.10806
1014.402, 16.06085
1014.884, 13.08823
1015.366, 4.643951
1015.848, 0.3239750
1016.330, 5.354065
1016.812, 14.76169
1017.295, 15.52518
1017.777, 7.443268
1018.259, 1.229095
1018.741, 2.219788
1019.223, 4.975281
1019.705, 8.236511
1020.187, 11.31860
1020.669, 11.14590
1021.151, 7.975586
1021.634, 5.822601
1022.116, 6.065308
1022.598, 7.682526
1023.080, 11.25580
1023.562, 15.21033
1024.044, 15.25595
1024.526, 5.575897
1025.008, 1.965424
1025.490, 6.307129
1025.973, 10.84436
1026.455, 7.252625
1026.937, 0.4049070
1027.419, 0.1114500
1027.901, 7.960693
1028.383, 14.99631
1028.865, 7.968292
1029.347, 2.059845
1029.830, 0.0000000E+00
##END=



