##NAMES=Catapleiite
##RRUFFID=R040005
##IDEAL CHEMISTRY=Na_2_Zr^4+^Si_3_O_9_&#183;2H_2_O
##LOCALITY=Langesundsfjord Eikaholmen Vestfold, Norway
##OWNER=RRUFF
##SOURCE=University of Arizona Mineral Museum
##DESCRIPTION=Brown thin tabular crystal
##STATUS=The identification of this mineral has been confirmed by X-ray diffraction and chemical analysis
##URL=rruff.info/R040005
##MEASURED CHEMISTRY=(Na_1.28_Ca_0.36_[box]_0.36_)_Σ=2_Zr_1.00_Si_3.00_O_9_·2H_2_O
160.5730, 0.0000000E+00
161.0550, 15.30371
161.5380, 49.37012
162.0200, 84.21875
162.5020, 115.8584
162.9840, 141.5078
163.4660, 157.8877
163.9480, 165.1270
164.4300, 167.0605
164.9120, 147.1982
165.3940, 127.5283
165.8760, 127.5732
166.3590, 165.3184
166.8410, 194.0645
167.3230, 178.6289
167.8050, 145.4697
168.2870, 104.9883
168.7690, 80.69238
169.2510, 70.69727
169.7330, 67.48242
170.2160, 74.98535
170.6980, 83.17773
171.1800, 85.70898
171.6620, 83.48145
172.1440, 81.04199
172.6260, 90.50000
173.1080, 100.4141
173.5900, 93.95410
174.0720, 81.81321
174.5550, 16.86621
175.0370, 39.31836
175.5190, 24.92676
176.0010, 2.476563
176.4830, 29.50293
176.9650, 54.12402
177.4470, 70.87012
177.9290, 76.33887
178.4120, 72.58887
178.8940, 55.10742
179.3760, 19.22656
179.8580, 6.143555
180.3400, 31.58984
180.8220, 115.5957
181.3040, 176.2393
181.7860, 147.7490
182.2680, 69.93555
182.7510, 36.20410
183.2330, 64.88281
183.7150, 118.9805
184.1970, 145.7852
184.6790, 147.6416
185.1610, 145.2891
185.6430, 156.9414
186.1250, 176.4307
186.6070, 181.3916
187.0900, 162.3125
187.5720, 133.2930
188.0540, 119.4717
188.5360, 120.8096
189.0180, 134.5488
189.5000, 171.5586
189.9820, 225.2656
190.4640, 253.0771
190.9470, 234.9531
191.4290, 188.3213
191.9110, 169.1826
192.3930, 180.9092
192.8750, 197.8916
193.3570, 193.8057
193.8390, 169.1846
194.3210, 145.2480
194.8030, 125.3408
195.2860, 110.8311
195.7680, 111.1914
196.2500, 129.1016
196.7320, 153.6445
197.2140, 176.4766
197.6960, 198.6621
198.1780, 207.1201
198.6610, 190.2402
199.1430, 149.5010
199.6250, 126.8271
200.1070, 125.8955
200.5890, 136.4658
201.0710, 143.4307
201.5530, 146.6699
202.0350, 147.2441
202.5170, 138.1035
202.9990, 115.7471
203.4820, 69.34570
203.9640, 128.5693
204.4460, 162.1387
204.9280, 171.4434
205.4100, 83.82031
205.8920, 121.3535
206.3740, 108.7109
206.8570, 94.02246
207.3390, 149.1484
207.8210, 75.58691
208.3030, 129.6006
208.7850, 133.0977
209.2670, 161.4863
209.7490, 139.3838
210.2310, 140.2314
210.7130, 189.9287
211.1950, 203.7275
211.6780, 173.8408
212.1600, 201.4844
212.6420, 125.8994
213.1240, 140.8691
213.6060, 194.9043
214.0880, 167.2842
214.5700, 195.8369
215.0520, 205.7783
215.5350, 116.6191
216.0170, 196.1807
216.4990, 203.1943
216.9810, 135.3447
217.4630, 210.5674
217.9450, 159.2754
218.4270, 152.0625
218.9090, 178.1934
219.3910, 165.2432
219.8740, 210.3574
220.3560, 199.4521
220.8380, 183.5547
221.3200, 189.4385
221.8020, 175.1387
222.2840, 192.1768
222.7660, 172.4824
223.2480, 191.8770
223.7310, 220.1299
224.2130, 180.5811
224.6950, 213.1533
225.1770, 134.6191
225.6590, 183.7139
226.1410, 198.0518
226.6230, 214.2021
227.1050, 228.2617
227.5870, 239.9209
228.0700, 251.6230
228.5520, 267.0029
229.0340, 279.1279
229.5160, 273.4990
229.9980, 230.6758
230.4800, 203.7158
230.9620, 215.6904
231.4440, 283.3184
231.9260, 319.6895
232.4090, 306.2744
232.8910, 269.9375
233.3730, 264.0654
233.8550, 313.3311
234.3370, 353.4590
234.8190, 359.3047
235.3010, 315.3115
235.7830, 283.9180
236.2660, 270.0723
236.7480, 267.1758
237.2300, 260.3682
237.7120, 244.2168
238.1940, 232.8438
238.6760, 234.0898
239.1580, 259.3145
239.6400, 268.5879
240.1220, 250.7383
240.6050, 220.1250
241.0870, 217.5986
241.5690, 270.3154
242.0510, 312.9277
242.5330, 310.4395
243.0150, 228.1465
243.4970, 179.7305
243.9800, 179.5361
244.4620, 212.6094
244.9440, 232.2246
245.4260, 230.5068
245.9080, 225.1367
246.3900, 225.5869
246.8720, 237.0625
247.3540, 240.4121
247.8360, 232.5166
248.3180, 215.1826
248.8010, 193.9834
249.2830, 160.7070
249.7650, 134.5547
250.2470, 129.3545
250.7290, 159.9688
251.2110, 176.8965
251.6930, 172.2559
252.1760, 152.1113
252.6580, 141.7500
253.1400, 148.1836
253.6220, 156.1602
254.1040, 158.5098
254.5860, 158.6230
255.0680, 145.7715
255.5500, 114.1816
256.0320, 69.11719
256.5140, 35.44922
256.9970, 15.64258
257.4790, 3.820313
257.9610, 2.000000
258.4430, 3.408203
258.9250, 1.423828
259.4070, 29.11719
259.8890, 70.76758
260.3710, 71.12695
260.8540, 86.47147
261.3360, 58.91211
261.8180, 83.57617
262.3000, 43.26367
262.7820, 26.15430
263.2640, 48.43750
263.7460, 102.5273
264.2280, 147.1055
264.7110, 186.1016
265.1930, 208.6016
265.6750, 201.7070
266.1570, 154.0059
266.6390, 117.4648
267.1210, 104.8496
267.6030, 109.6191
268.0850, 93.88281
268.5670, 48.16211
269.0500, 3.519531
269.5320, 12.23828
270.0140, 8.853516
270.4960, 24.01758
270.9780, 25.75586
271.4600, 17.01953
271.9420, 11.21680
272.4240, 9.562500
272.9060, 8.501953
273.3890, 6.697266
273.8710, 5.121094
274.3530, 3.988281
274.8350, 28.01367
275.3170, 18.59548
275.7990, 60.45703
276.2810, 24.19141
276.7630, 17.55859
277.2460, 36.18750
277.7280, 28.57422
278.2100, 29.45117
278.6920, 46.03320
279.1740, 74.36914
279.6560, 107.6719
280.1380, 150.2988
280.6200, 176.4102
281.1030, 151.2363
281.5850, 73.05469
282.0670, 21.09180
282.5490, 11.65234
283.0310, 35.56836
283.5130, 73.10352
283.9950, 126.8223
284.4770, 174.4961
284.9590, 198.0762
285.4410, 198.5312
285.9240, 188.8594
286.4060, 167.8223
286.8880, 141.4453
287.3700, 126.4023
287.8520, 123.3242
288.3340, 122.0020
288.8160, 107.0039
289.2980, 83.16992
289.7810, 85.22266
290.2630, 129.8691
290.7450, 191.9492
291.2270, 213.6035
291.7090, 195.5469
292.1910, 172.1465
292.6730, 173.4902
293.1550, 191.4648
293.6380, 192.9688
294.1200, 165.3672
294.6020, 128.6895
295.0840, 118.1055
295.5660, 132.1582
296.0480, 151.9062
296.5300, 159.3008
297.0120, 163.1484
297.4940, 191.7383
297.9770, 265.7656
298.4590, 339.1270
298.9410, 334.7812
299.4230, 268.3809
299.9050, 208.5195
300.3870, 193.3301
300.8690, 216.0352
301.3510, 261.1953
301.8330, 335.4707
302.3160, 412.0215
302.7980, 452.8281
303.2800, 464.3164
303.7620, 470.1504
304.2440, 478.7109
304.7260, 490.3125
305.2080, 507.8125
305.6900, 534.9668
306.1730, 555.8340
306.6550, 549.2852
307.1370, 523.2129
307.6190, 499.7363
308.1010, 483.5117
308.5830, 479.5371
309.0650, 502.0059
309.5470, 565.4199
310.0300, 612.1270
310.5120, 581.9492
310.9940, 506.3887
311.4760, 449.0547
311.9580, 452.8340
312.4400, 477.6094
312.9220, 496.7402
313.4040, 506.7324
313.8860, 513.2715
314.3690, 526.8145
314.8510, 538.2070
315.3330, 531.9277
315.8150, 485.9805
316.2970, 434.3848
316.7790, 391.9980
317.2610, 358.6797
317.7430, 333.7148
318.2250, 332.9668
318.7080, 344.2207
319.1900, 343.7676
319.6720, 296.2910
320.1540, 259.8613
320.6360, 268.0996
321.1180, 331.7246
321.6000, 369.3887
322.0820, 334.7891
322.5650, 275.6270
323.0470, 241.1113
323.5290, 257.1855
324.0110, 280.1895
324.4930, 305.8281
324.9750, 334.7656
325.4570, 345.0566
325.9390, 313.6836
326.4220, 273.8672
326.9040, 251.3164
327.3860, 255.0742
327.8680, 268.7148
328.3500, 294.8770
328.8320, 332.6855
329.3140, 359.9277
329.7960, 365.2188
330.2780, 368.8145
330.7600, 387.1797
331.2430, 457.3789
331.7250, 481.7559
332.2070, 426.3359
332.6890, 306.9082
333.1710, 240.4746
333.6530, 258.6191
334.1350, 295.4473
334.6170, 310.1543
335.1000, 293.3418
335.5820, 270.8867
336.0640, 238.9961
336.5460, 204.7227
337.0280, 193.6895
337.5100, 214.0742
337.9920, 238.1348
338.4740, 249.1953
338.9570, 243.2148
339.4390, 246.5176
339.9210, 266.9395
340.4030, 288.3457
340.8850, 268.9082
341.3670, 198.1387
341.8490, 135.6445
342.3310, 116.0566
342.8130, 138.6816
343.2960, 152.1875
343.7780, 156.6484
344.2600, 150.2012
344.7420, 117.9707
345.2240, 61.04688
345.7060, 23.77344
346.1880, 45.86328
346.6700, 108.5449
347.1520, 122.8789
347.6350, 83.48633
348.1170, 31.10547
348.5990, 9.146484
349.0810, 12.62109
349.5630, 21.34766
350.0450, 20.88672
350.5270, 22.45898
351.0090, 55.59375
351.4910, 119.7109
351.9740, 176.4102
352.4560, 181.1836
352.9380, 155.4199
353.4200, 144.1387
353.9020, 182.4492
354.3840, 221.9629
354.8660, 204.5000
355.3490, 136.6406
355.8310, 62.04297
356.3130, 16.29883
356.7950, 75.39844
357.2770, 82.46289
357.7590, 11.08398
358.2410, 98.79297
358.7230, 94.35742
359.2050, 23.42578
359.6880, 30.47461
360.1700, 8.644531
360.6520, 32.16211
361.1340, 50.31250
361.6160, 26.86523
362.0980, 6.292969
362.5800, 3.365234
363.0620, 14.33203
363.5440, 32.17188
364.0270, 62.61523
364.5090, 92.53516
364.9910, 117.7051
365.4730, 139.5215
365.9550, 149.8926
366.4370, 139.3379
366.9190, 119.3984
367.4010, 105.0938
367.8840, 107.8496
368.3660, 106.8340
368.8480, 97.20117
369.3300, 78.31250
369.8120, 57.64844
370.2940, 21.32031
370.7760, 6.923828
371.2580, 2.814453
371.7410, 64.83008
372.2230, 110.7754
372.7050, 114.0605
373.1870, 79.82227
373.6690, 64.53320
374.1510, 76.31055
374.6330, 93.31250
375.1150, 95.93945
375.5970, 73.80664
376.0790, 79.27930
376.5620, 129.2578
377.0440, 202.5176
377.5260, 233.4160
378.0080, 215.2891
378.4900, 187.1699
378.9720, 172.2422
379.4540, 170.1777
379.9360, 160.3164
380.4190, 141.1387
380.9010, 116.0566
381.3830, 88.98242
381.8650, 60.41211
382.3470, 33.73828
382.8290, 7.761719
383.3110, 14.53125
383.7930, 25.35156
384.2760, 24.33984
384.7580, 12.81641
385.2400, 20.61523
385.7220, 64.29492
386.2040, 87.19336
386.6860, 53.75586
387.1680, 7.486328
387.6500, 4.765625
388.1320, 42.31055
388.6150, 85.35547
389.0970, 114.6699
389.5790, 133.0547
390.0610, 144.5117
390.5430, 149.7266
391.0250, 147.9082
391.5070, 136.0449
391.9890, 116.2715
392.4710, 95.59375
392.9540, 69.63477
393.4360, 49.77344
393.9180, 47.18945
394.4000, 75.28516
394.8820, 94.59766
395.3640, 87.17383
395.8460, 64.56250
396.3280, 45.29883
396.8100, 32.39258
397.2930, 24.80273
397.7750, 13.50000
398.2570, 13.17578
398.7390, -25.49817
399.2210, 19.91978
399.7030, 47.09237
400.1850, 57.00002
400.6680, -2.059883
401.1500, 27.93983
401.6320, 22.24538
402.1140, 15.08754
402.5960, 57.62317
403.0780, 8.587860
403.5600, 74.99609
404.0420, 80.88672
404.5240, 48.50195
405.0070, 29.61328
405.4890, 33.23438
405.9710, 50.46875
406.4530, 57.11523
406.9350, 51.63281
407.4170, 43.41797
407.8990, 35.22852
408.3810, 27.34570
408.8630, 24.18750
409.3460, 24.34180
409.8280, 33.63867
410.3100, 71.28125
410.7920, 132.2617
411.2740, 175.5938
411.7560, 168.3652
412.2380, 137.2656
412.7200, 143.7930
413.2030, 188.0840
413.6850, 232.4629
414.1670, 236.3906
414.6490, 214.8379
415.1310, 203.1836
415.6130, 218.3086
416.0950, 243.5332
416.5770, 277.7109
417.0600, 315.6289
417.5420, 337.2520
418.0240, 309.0605
418.5060, 276.8984
418.9880, 285.7344
419.4700, 364.1934
419.9520, 425.2520
420.4340, 414.9395
420.9160, 367.0137
421.3980, 337.6543
421.8810, 356.1133
422.3630, 384.5781
422.8450, 412.1797
423.3270, 439.1777
423.8090, 461.9043
424.2910, 472.4453
424.7730, 483.1895
425.2550, 505.7461
425.7380, 571.4434
426.2200, 605.6387
426.7020, 581.4902
427.1840, 512.4902
427.6660, 483.5352
428.1480, 508.6797
428.6300, 551.8633
429.1120, 594.8027
429.5950, 637.5684
430.0770, 679.3613
430.5590, 719.3516
431.0410, 758.2871
431.5230, 801.8809
432.0050, 851.0430
432.4870, 892.7637
432.9690, 914.7363
433.4510, 922.4668
433.9340, 954.9980
434.4160, 1014.721
434.8980, 1081.178
435.3800, 1133.207
435.8620, 1174.635
436.3440, 1219.324
436.8260, 1281.291
437.3080, 1336.871
437.7900, 1341.477
438.2730, 1303.590
438.7550, 1272.572
439.2370, 1290.408
439.7190, 1329.379
440.2010, 1358.582
440.6830, 1371.455
441.1650, 1376.518
441.6470, 1375.664
442.1290, 1371.564
442.6120, 1368.555
443.0940, 1368.656
443.5760, 1373.508
444.0580, 1387.102
444.5400, 1412.393
445.0220, 1405.523
445.5040, 1311.680
445.9870, 1207.072
446.4690, 1152.490
446.9510, 1233.582
447.4330, 1271.795
447.9150, 1229.383
448.3970, 1128.244
448.8790, 1066.859
449.3610, 1073.506
449.8430, 1087.227
450.3260, 1083.439
450.8080, 1062.436
451.2900, 1018.607
451.7720, 940.6113
452.2540, 855.2070
452.7360, 807.2109
453.2180, 802.7734
453.7000, 789.6094
454.1820, 739.3516
454.6650, 666.8848
455.1470, 655.4863
455.6290, 709.4688
456.1110, 757.4473
456.5930, 731.5020
457.0750, 648.4316
457.5570, 559.8535
458.0390, 464.9688
458.5220, 389.2910
459.0040, 376.6426
459.4860, 411.4844
459.9680, 441.4434
460.4500, 437.6445
460.9320, 416.5098
461.4140, 390.6113
461.8960, 360.4531
462.3790, 334.0918
462.8610, 318.3320
463.3430, 308.0156
463.8250, 297.3125
464.3070, 285.2344
464.7890, 271.8008
465.2710, 253.1777
465.7530, 231.3203
466.2350, 218.6680
466.7170, 231.3379
467.2000, 242.4727
467.6820, 237.4980
468.1640, 201.1191
468.6460, 179.7129
469.1280, 184.4531
469.6100, 197.8574
470.0920, 187.6738
470.5740, 134.3340
471.0570, 103.5117
471.5390, 122.3984
472.0210, 184.6074
472.5030, 217.2285
472.9850, 217.1660
473.4670, 195.5039
473.9490, 148.9512
474.4310, 80.69727
474.9140, 41.73047
475.3960, 46.90430
475.8780, 70.45703
476.3600, 69.18164
476.8420, 47.90430
477.3240, 30.31641
477.8060, 32.44727
478.2880, 45.81055
478.7700, 63.79883
479.2530, 87.17188
479.7350, 100.1562
480.2170, 75.58789
480.6990, 39.48633
481.1810, 24.97461
481.6630, 62.67188
482.1450, 101.3945
482.6270, 114.7266
483.1090, 109.8379
483.5920, 110.2988
484.0740, 129.8770
484.5560, 148.7598
485.0380, 156.6152
485.5200, 146.8574
486.0020, 137.1035
486.4840, 116.9277
486.9660, 101.6074
487.4480, 114.2500
487.9310, 190.3496
488.4130, 225.5918
488.8950, 187.3398
489.3770, 89.62305
489.8590, 26.20312
490.3410, 3.535156
490.8230, 3.222656
491.3060, 4.945313
491.7880, 1.361328
492.2700, 8.373047
492.7520, 29.96289
493.2340, 51.78516
493.7160, 50.96484
494.1980, 30.84961
494.6800, 10.51172
495.1620, 5.949219
495.6450, 1.332031
496.1270, 38.74414
496.6090, 109.0254
497.0910, 161.5527
497.5730, 141.9727
498.0550, 95.89258
498.5370, 76.26953
499.0190, 114.3555
499.5010, 134.3008
499.9840, 75.03906
500.4660, 22.84375
500.9480, 86.33789
501.4300, 59.30859
501.9120, 28.97070
502.3940, 29.14062
502.8760, 64.55469
503.3580, 81.07617
503.8410, 64.14453
504.3230, 39.89062
504.8050, 27.24219
505.2870, 40.41602
505.7690, 30.90234
506.2510, 15.10156
506.7330, 75.80078
507.2150, 103.7969
507.6980, 94.75391
508.1800, 72.43555
508.6620, 37.14844
509.1440, 5.283203
509.6260, 18.02539
510.1080, 1.083984
510.5900, 30.80273
511.0720, 57.35938
511.5540, 79.83398
512.0360, 95.56055
512.5190, 104.1836
513.0010, 106.4688
513.4830, 96.34375
513.9650, 80.17578
514.4470, 73.83203
514.9290, 89.64648
515.4110, 114.4043
515.8930, 146.0078
516.3750, 185.0625
516.8580, 205.6289
517.3400, 170.0938
517.8220, 127.9961
518.3040, 117.9043
518.7860, 193.6016
519.2680, 240.4219
519.7500, 231.8730
520.2320, 192.4043
520.7150, 185.4258
521.1970, 237.0684
521.6790, 273.8926
522.1610, 257.9902
522.6430, 188.1758
523.1250, 182.8125
523.6070, 260.0820
524.0890, 347.5996
524.5710, 376.0039
525.0540, 349.4590
525.5360, 303.3418
526.0180, 232.8086
526.5000, 168.2871
526.9820, 167.5488
527.4640, 217.3516
527.9460, 262.1094
528.4290, 273.2949
528.9110, 264.4941
529.3930, 246.8164
529.8750, 220.8418
530.3570, 194.6309
530.8390, 164.6602
531.3210, 140.6016
531.8030, 132.5684
532.2860, 163.0059
532.7680, 179.3184
533.2500, 160.5801
533.7320, 119.8066
534.2140, 84.53516
534.6960, 47.52148
535.1780, 28.57812
535.6600, 41.77734
536.1420, 88.47070
536.6250, 109.0879
537.1070, 98.11133
537.5890, 71.21680
538.0710, 31.49805
538.5530, 24.04883
539.0350, 12.32510
539.5170, 27.80664
539.9990, 12.08789
540.4810, 31.96680
540.9640, 35.26172
541.4460, 50.25195
541.9280, 107.3262
542.4100, 173.5078
542.8920, 186.6543
543.3740, 152.4180
543.8560, 124.2422
544.3380, 144.6074
544.8200, 185.4375
545.3030, 219.0625
545.7850, 239.0957
546.2670, 255.4219
546.7490, 284.7344
547.2310, 308.8438
547.7130, 302.5859
548.1950, 219.8906
548.6770, 150.6914
549.1590, 114.6445
549.6420, 109.7109
550.1240, 118.9707
550.6060, 152.3125
551.0880, 183.0645
551.5700, 196.5000
552.0520, 189.4648
552.5340, 192.1973
553.0160, 205.8887
553.4990, 224.0859
553.9810, 237.8750
554.4630, 247.5312
554.9450, 263.5723
555.4270, 294.1777
555.9090, 325.6465
556.3910, 327.8301
556.8730, 307.9785
557.3560, 299.7871
557.8380, 328.2051
558.3200, 373.2520
558.8020, 422.2910
559.2840, 481.4766
559.7660, 526.7598
560.2480, 525.6016
560.7300, 511.7891
561.2130, 518.3477
561.6950, 571.3809
562.1770, 625.9785
562.6590, 668.5332
563.1410, 707.6406
563.6230, 769.9453
564.1050, 879.0449
564.5870, 972.6621
565.0690, 1025.129
565.5520, 1039.406
566.0340, 1082.715
566.5160, 1161.512
566.9980, 1244.266
567.4800, 1302.248
567.9620, 1341.238
568.4440, 1387.684
568.9260, 1447.291
569.4080, 1507.652
569.8910, 1552.771
570.3730, 1588.088
570.8550, 1628.348
571.3370, 1681.568
571.8190, 1740.160
572.3010, 1809.785
572.7830, 1883.455
573.2650, 1928.479
573.7470, 1895.436
574.2300, 1858.533
574.7120, 1860.809
575.1940, 1918.844
575.6760, 1974.312
576.1580, 2042.523
576.6400, 2093.979
577.1220, 2097.877
577.6040, 2027.646
578.0860, 1977.100
578.5690, 1966.275
579.0510, 1975.004
579.5330, 1954.885
580.0150, 1905.430
580.4970, 1836.268
580.9790, 1739.326
581.4610, 1627.672
581.9430, 1541.867
582.4260, 1481.801
582.9080, 1435.430
583.3900, 1408.545
583.8720, 1384.225
584.3540, 1335.455
584.8360, 1250.152
585.3180, 1162.254
585.8000, 1087.238
586.2820, 1022.438
586.7650, 965.4062
587.2470, 929.9219
587.7290, 886.0293
588.2110, 816.5703
588.6930, 728.4727
589.1750, 660.9180
589.6570, 628.7871
590.1400, 596.3809
590.6220, 544.1270
591.1040, 467.6016
591.5860, 427.5977
592.0680, 435.1113
592.5500, 448.0547
593.0320, 420.3691
593.5140, 358.1582
593.9960, 303.1602
594.4790, 261.9434
594.9610, 232.3809
595.4430, 217.3887
595.9250, 212.3828
596.4070, 204.2266
596.8890, 171.7285
597.3710, 147.4258
597.8530, 168.2949
598.3350, 224.7363
598.8180, 255.1016
599.3000, 217.8008
599.7820, 161.9004
600.2640, 110.3887
600.7460, 59.56836
601.2280, 31.25977
601.7100, 31.86133
602.1920, 49.29883
602.6740, 75.86523
603.1570, 118.1152
603.6390, 143.5391
604.1210, 140.8633
604.6030, 127.4395
605.0850, 147.3984
605.5670, 198.9883
606.0490, 237.4746
606.5310, 224.2676
607.0130, 193.1250
607.4960, 140.0458
607.9780, 232.2928
608.4600, 288.3014
608.9420, 310.0202
609.4240, 194.7473
609.9060, 256.3707
610.3880, 247.1021
610.8700, 234.9265
611.3530, 321.4677
611.8350, 226.1199
612.3170, 311.0755
612.7990, 324.0572
613.2810, 369.9796
613.7630, 344.5721
614.2450, 341.1961
614.7270, 409.1729
615.2090, 378.5723
615.6920, 407.2363
616.1740, 428.4766
616.6560, 444.0898
617.1380, 457.7520
617.6200, 469.5117
618.1020, 486.1719
618.5840, 522.8203
619.0670, 565.8672
619.5490, 578.6016
620.0310, 550.5098
620.5130, 546.5020
620.9950, 635.7090
621.4770, 766.6406
621.9590, 878.4492
622.4410, 932.4336
622.9230, 993.6016
623.4060, 1074.762
623.8880, 1168.758
624.3700, 1264.229
624.8520, 1371.852
625.3340, 1466.547
625.8160, 1538.000
626.2980, 1588.688
626.7800, 1645.191
627.2630, 1711.129
627.7450, 1768.646
628.2270, 1799.064
628.7090, 1809.938
629.1910, 1838.697
629.6730, 1888.648
630.1550, 1944.746
630.6370, 2002.705
631.1190, 2054.338
631.6020, 2088.377
632.0840, 2096.861
632.5660, 2097.043
633.0480, 2092.635
633.5300, 2087.682
634.0120, 2089.289
634.4940, 2131.590
634.9760, 2145.607
635.4580, 2101.148
635.9410, 2009.041
636.4230, 1936.107
636.9050, 1896.025
637.3870, 1847.365
637.8690, 1765.877
638.3510, 1651.102
638.8330, 1543.430
639.3150, 1443.006
639.7970, 1348.102
640.2800, 1269.535
640.7620, 1195.561
641.2440, 1090.848
641.7260, 941.2285
642.2080, 793.4785
642.6900, 692.1719
643.1720, 620.7012
643.6540, 558.3828
644.1370, 496.3672
644.6190, 445.9414
645.1010, 401.8145
645.5830, 371.3789
646.0650, 386.0859
646.5470, 522.2422
647.0290, 600.4746
647.5110, 542.6191
647.9940, 356.3418
648.4760, 264.5547
648.9580, 283.4668
649.4400, 327.8711
649.9220, 340.4180
650.4040, 324.4043
650.8860, 300.7559
651.3680, 269.5371
651.8510, 239.9258
652.3330, 221.3945
652.8150, 211.2012
653.2970, 204.7734
653.7790, 196.1758
654.2610, 189.8848
654.7430, 196.1035
655.2250, 205.5898
655.7070, 202.4688
656.1900, 163.4336
656.6720, 137.8965
657.1540, 144.6191
657.6360, 174.2988
658.1180, 177.9668
658.6000, 148.2461
659.0820, 113.5781
659.5640, 80.74414
660.0460, 51.85352
660.5290, 50.14648
661.0110, 76.74414
661.4930, 103.1133
661.9750, 106.6758
662.4570, 93.81250
662.9390, 73.82812
663.4210, 47.43164
663.9030, 20.98438
664.3850, 9.271484
664.8680, -1.003398
665.3500, 1.467516
665.8320, 5.539063
666.3140, 25.70898
666.7960, 56.88672
667.2780, 81.14453
667.7600, 82.35938
668.2420, 45.07031
668.7240, 17.84570
669.2070, 10.58789
669.6890, 20.72070
670.1710, 48.21484
670.6530, 92.39844
671.1350, 122.8418
671.6170, 101.7852
672.0990, 60.67188
672.5810, 69.80469
673.0640, 127.4785
673.5460, 168.2812
674.0280, 127.5996
674.5100, 66.51953
674.9920, 41.16406
675.4740, 77.80078
675.9560, 96.18359
676.4380, 64.98047
676.9200, 18.52930
677.4030, 11.57617
677.8850, 16.28125
678.3670, 21.21875
678.8490, 25.60352
679.3310, 33.52539
679.8130, 62.51758
680.2950, 112.0293
680.7780, 134.1270
681.2600, 108.1992
681.7420, 55.25195
682.2240, 1.546875
682.7060, 58.17969
683.1880, 104.5488
683.6700, 133.4531
684.1520, 149.5312
684.6340, 149.2617
685.1170, 134.1406
685.5990, 129.1543
686.0810, 173.4609
686.5630, 200.1074
687.0450, 167.6816
687.5270, 56.42578
688.0090, 0.7304690
688.4910, 18.38672
688.9730, 59.47656
689.4560, 83.02344
689.9380, 90.41992
690.4200, 94.45117
690.9020, 94.94727
691.3840, 99.34961
691.8660, 125.9316
692.3480, 160.8711
692.8300, 174.8379
693.3120, 138.4902
693.7950, 109.2402
694.2770, 134.5078
694.7590, 187.0176
695.2410, 214.7188
695.7230, 173.1543
696.2050, 143.6172
696.6870, 150.8965
697.1690, 183.4512
697.6520, 193.3477
698.1340, 178.7773
698.6160, 148.1094
699.0980, 92.54297
699.5800, 24.69922
700.0620, 5.802734
700.5440, 35.43555
701.0260, 75.19531
701.5080, 107.4316
701.9910, 129.4492
702.4730, 134.9648
702.9550, 122.4883
703.4370, 107.7109
703.9190, 101.4043
704.4010, 93.78125
704.8830, 76.00781
705.3650, 33.50000
705.8470, 3.894531
706.3300, 11.72070
706.8120, 16.20898
707.2940, 11.84570
707.7760, 2.095703
708.2580, 25.16016
708.7400, 66.23242
709.2220, 100.3438
709.7050, 72.18945
710.1870, 89.50572
710.6690, 57.45508
711.1510, 67.76758
711.6330, 58.16406
712.1150, 44.35352
712.5970, 27.97461
713.0790, 13.51758
713.5610, 10.62305
714.0440, 19.38272
714.5260, 21.47656
715.0080, 57.74219
715.4900, 90.94922
715.9720, 122.5020
716.4540, 146.2676
716.9360, 157.5684
717.4180, 157.0215
717.9010, 154.5879
718.3830, 149.8301
718.8650, 148.4121
719.3470, 154.6582
719.8290, 167.4961
720.3110, 189.3867
720.7930, 223.1738
721.2750, 244.0273
721.7570, 216.9922
722.2400, 182.3008
722.7220, 176.6055
723.2040, 232.9512
723.6860, 275.6719
724.1680, 300.4160
724.6500, 307.8574
725.1320, 293.7227
725.6140, 252.6855
726.0960, 219.8770
726.5790, 197.0664
727.0610, 191.8066
727.5430, 228.9121
728.0250, 297.0293
728.5070, 354.5469
728.9890, 387.5449
729.4710, 402.3086
729.9530, 395.7598
730.4350, 375.0215
730.9180, 358.6797
731.4000, 361.9258
731.8820, 361.8984
732.3640, 351.8672
732.8460, 332.7832
733.3280, 304.0156
733.8100, 252.3574
734.2920, 223.5430
734.7750, 249.7578
735.2570, 316.3574
735.7390, 328.3457
736.2210, 286.6230
736.7030, 256.2617
737.1850, 315.6992
737.6670, 396.6973
738.1490, 401.2188
738.6310, 323.1250
739.1140, 244.8711
739.5960, 193.2656
740.0780, 169.4297
740.5600, 176.3262
741.0420, 233.4062
741.5240, 271.9043
742.0060, 288.4375
742.4890, 291.6602
742.9710, 282.5645
743.4530, 259.7070
743.9350, 257.1992
744.4170, 279.1953
744.8990, 315.5039
745.3810, 371.3750
745.8630, 428.0117
746.3450, 446.5273
746.8280, 392.2305
747.3100, 345.2070
747.7920, 363.7188
748.2740, 416.5664
748.7560, 457.2051
749.2380, 479.5938
749.7200, 485.2637
750.2020, 472.0117
750.6840, 443.8848
751.1670, 408.1855
751.6490, 364.1523
752.1310, 326.7988
752.6130, 304.5020
753.0950, 290.2852
753.5770, 267.6094
754.0590, 233.4414
754.5410, 209.4980
755.0230, 217.7695
755.5060, 231.7031
755.9880, 221.3770
756.4700, 194.9102
756.9520, 194.5605
757.4340, 271.4297
757.9160, 331.4980
758.3980, 339.8086
758.8800, 298.3750
759.3620, 260.5332
759.8450, 226.6309
760.3270, 195.4844
760.8090, 165.8203
761.2910, 138.8457
761.7730, 121.2676
762.2550, 113.8770
762.7370, 108.4961
763.2190, 106.9219
763.7020, 99.56641
764.1840, 71.21680
764.6660, 17.43164
765.1480, 11.84375
765.6300, 19.40234
766.1120, 63.57031
766.5940, 84.67773
767.0760, 65.10938
767.5580, 99.28906
768.0410, 203.3047
768.5230, 304.6699
769.0050, 332.1992
769.4870, 297.7168
769.9690, 244.0605
770.4510, 170.2891
770.9330, 118.5059
771.4160, 132.1582
771.8980, 186.6836
772.3800, 257.5371
772.8620, 364.5566
773.3440, 434.3438
773.8260, 447.7070
774.3080, 413.1953
774.7900, 329.4512
775.2720, 157.9023
775.7550, 55.00195
776.2370, 49.42578
776.7190, 92.85938
777.2010, 118.0293
777.6830, 127.4316
778.1650, 131.2793
778.6470, 133.5176
779.1290, 129.0098
779.6120, 107.2754
780.0940, 76.13477
780.5760, 49.19531
781.0580, 19.20898
781.5400, 6.576172
782.0220, 28.10742
782.5040, 66.29688
782.9860, 89.29688
783.4680, 94.52148
783.9510, 89.07422
784.4330, 69.80273
784.9150, 45.91016
785.3970, 42.59961
785.8790, 55.98047
786.3610, 65.79883
786.8430, 46.91211
787.3250, 35.06836
787.8070, 79.90234
788.2900, 160.0312
788.7720, 210.1230
789.2540, 184.1914
789.7360, 150.6934
790.2180, 124.5723
790.7000, 106.6289
791.1820, 99.23047
791.6640, 100.7969
792.1460, 119.0605
792.6290, 171.4883
793.1110, 235.6777
793.5930, 235.3262
794.0750, 180.8770
794.5570, 141.8398
795.0390, 176.9883
795.5210, 230.8457
796.0030, 268.2520
796.4850, 286.6387
796.9680, 280.6562
797.4500, 219.9941
797.9320, 167.6504
798.4140, 145.9336
798.8960, 153.7070
799.3780, 159.6035
799.8600, 164.7070
800.3430, 168.0137
800.8250, 178.4238
801.3070, 183.9922
801.7890, 139.4746
802.2710, 51.03711
802.7530, 10.99609
803.2350, 12.98242
803.7170, 67.15430
804.1990, 124.3965
804.6820, 184.9668
805.1640, 203.3633
805.6460, 153.3691
806.1280, 93.27148
806.6100, 44.65820
807.0920, 7.267578
807.5740, 15.83203
808.0560, 74.88672
808.5390, 136.8086
809.0210, 182.5625
809.5030, 200.3223
809.9850, 146.4473
810.4670, 18.83203
810.9490, 69.13281
811.4310, 17.30273
811.9130, 66.31445
812.3950, 104.6719
812.8780, 80.95703
813.3600, 69.66016
813.8420, 72.08594
814.3240, 85.76953
814.8060, 113.0312
815.2880, 151.5273
815.7700, 185.6973
816.2520, 214.4727
816.7340, 218.1934
817.2170, 151.8145
817.6990, 74.39062
818.1810, 67.33203
818.6630, 154.3066
819.1450, 209.7734
819.6270, 153.0117
820.1090, 76.74414
820.5910, 40.67969
821.0730, 57.22852
821.5560, 62.74219
822.0380, 53.78906
822.5200, 43.61328
823.0020, 49.52539
823.4840, 67.78906
823.9660, 60.67969
824.4480, 22.21484
824.9300, -52.60933
825.4130, 46.09307
825.8950, 108.5395
826.3770, 136.7105
826.8590, 27.94788
827.3410, 96.00681
827.8230, 93.20371
828.3050, 87.49493
828.7870, 180.4408
829.2690, 91.59506
829.7520, 183.0108
830.2340, 202.4489
830.7160, 254.8138
831.1980, 179.9609
831.6800, 164.4336
832.1620, 161.7949
832.6440, 174.1191
833.1270, 187.4219
833.6090, 211.2773
834.0910, 222.8281
834.5730, 196.6660
835.0550, 116.1719
835.5370, 68.62109
836.0190, 59.67969
836.5010, 72.63477
836.9830, 106.1738
837.4660, 153.0059
837.9480, 165.3184
838.4300, 138.5859
838.9120, 107.4746
839.3940, 94.46484
839.8760, 94.45508
840.3580, 107.7832
840.8400, 140.1523
841.3220, 152.5703
841.8050, 107.9355
842.2870, 70.06641
842.7690, 85.81055
843.2510, 165.9805
843.7330, 187.5781
844.2150, 141.9961
844.6970, 93.16602
845.1790, 107.2891
845.6610, 152.3867
846.1440, 163.7090
846.6260, 134.9473
847.1080, 119.0645
847.5900, 165.0332
848.0720, 217.0352
848.5540, 238.1426
849.0360, 224.6602
849.5180, 186.9512
850.0000, 104.4844
850.4830, 43.09180
850.9650, 69.56445
851.4470, 161.1895
851.9290, 182.9980
852.4110, 134.5488
852.8930, 81.26758
853.3750, 79.88672
853.8570, 91.09180
854.3400, 76.26562
854.8220, 31.03516
855.3040, 1.734375
855.7860, 3.972656
856.2680, 2.695313
856.7500, 12.36523
857.2320, 32.32422
857.7140, 29.61719
858.1960, 40.64109
858.6790, 52.54227
859.1610, 52.86133
859.6430, 73.05469
860.1250, 85.48438
860.6070, 91.47070
861.0890, 112.7891
861.5710, 184.3906
862.0540, 247.3594
862.5360, 268.5332
863.0180, 251.3789
863.5000, 234.1992
863.9820, 218.8926
864.4640, 196.3633
864.9460, 157.7285
865.4280, 111.2461
865.9100, 75.90820
866.3930, 51.80859
866.8750, 41.61133
867.3570, 67.97656
867.8390, 90.15625
868.3210, 73.17969
868.8030, 20.98242
869.2850, 8.953125
869.7670, 0.4238280
870.2500, 4.117188
870.7320, 11.29102
871.2140, 39.12891
871.6960, 61.15820
872.1780, 76.90430
872.6600, 83.46484
873.1420, 85.19922
873.6240, 71.18555
874.1060, 6.126953
874.5890, 82.64844
875.0710, 128.5801
875.5530, 66.29492
876.0350, 10.38477
876.5170, 17.12695
876.9990, 23.64844
877.4810, 19.45898
877.9630, 3.689453
878.4450, 2.951172
878.9280, 9.283203
879.4100, 21.99023
879.8920, 10.40430
880.3740, 21.16406
880.8560, 66.33594
881.3380, 152.7441
881.8200, 210.6074
882.3020, 193.8418
882.7840, 144.6836
883.2670, 127.3184
883.7490, 99.81611
884.2310, 66.83225
884.7130, 54.79492
885.1950, 39.00195
885.6770, 22.66211
886.1590, 70.55078
886.6410, 163.6230
887.1230, 249.1270
887.6060, 297.5195
888.0880, 252.0430
888.5700, 181.2695
889.0520, 153.8867
889.5340, 196.9961
890.0160, 230.0137
890.4980, 246.5137
890.9810, 267.4180
891.4630, 324.0742
891.9450, 403.8340
892.4270, 445.4414
892.9090, 442.7051
893.3910, 440.6055
893.8730, 459.1250
894.3550, 503.0723
894.8370, 592.1719
895.3200, 741.8789
895.8020, 824.5820
896.2840, 798.5312
896.7660, 758.6836
897.2480, 753.1094
897.7300, 779.5156
898.2120, 824.0273
898.6940, 886.5430
899.1770, 930.3145
899.6590, 923.0508
900.1410, 894.1309
900.6230, 862.9102
901.1050, 834.3594
901.5870, 827.5977
902.0690, 878.1504
902.5510, 917.6035
903.0330, 922.0137
903.5160, 902.8906
903.9980, 902.2832
904.4800, 920.1562
904.9620, 962.3496
905.4440, 1043.729
905.9260, 1135.359
906.4080, 1203.324
906.8900, 1251.156
907.3720, 1290.508
907.8550, 1318.441
908.3370, 1343.891
908.8190, 1360.828
909.3010, 1382.133
909.7830, 1438.988
910.2650, 1536.797
910.7470, 1609.480
911.2290, 1637.125
911.7110, 1653.738
912.1940, 1708.391
912.6760, 1780.965
913.1580, 1833.855
913.6400, 1849.877
914.1220, 1866.086
914.6040, 1905.025
915.0860, 1938.887
915.5680, 1940.602
916.0500, 1898.508
916.5330, 1888.162
917.0150, 1913.541
917.4970, 1959.150
917.9790, 2021.885
918.4610, 2090.402
918.9430, 2136.496
919.4250, 2156.250
919.9070, 2201.766
920.3900, 2337.709
920.8720, 2468.857
921.3540, 2524.156
921.8360, 2501.061
922.3180, 2568.555
922.8000, 2740.088
923.2820, 2926.797
923.7650, 3071.752
924.2470, 3193.535
924.7290, 3330.229
925.2110, 3477.461
925.6930, 3610.207
926.1750, 3717.033
926.6570, 3808.367
927.1390, 3868.531
927.6210, 3917.842
928.1040, 4018.840
928.5860, 4186.143
929.0680, 4335.193
929.5500, 4440.896
930.0320, 4524.080
930.5140, 4615.180
930.9960, 4711.029
931.4780, 4803.998
931.9600, 4927.254
932.4430, 4998.270
932.9250, 4926.420
933.4070, 4816.006
933.8890, 4801.025
934.3710, 4919.086
934.8530, 4976.451
935.3350, 4953.486
935.8170, 4894.617
936.2990, 4827.785
936.7820, 4763.979
937.2640, 4732.836
937.7460, 4742.807
938.2280, 4750.527
938.7100, 4775.227
939.1920, 4751.420
939.6740, 4616.473
940.1560, 4360.594
940.6380, 4198.473
941.1210, 4147.535
941.6030, 4094.924
942.0850, 3958.328
942.5670, 3777.156
943.0490, 3632.834
943.5310, 3516.896
944.0130, 3368.660
944.4950, 3114.770
944.9780, 2870.541
945.4600, 2686.543
945.9420, 2545.238
946.4240, 2396.627
946.9060, 2236.613
947.3880, 2107.234
947.8700, 2035.484
948.3520, 1966.893
948.8340, 1799.010
949.3170, 1578.408
949.7990, 1394.340
950.2810, 1285.244
950.7630, 1195.391
951.2450, 1103.863
951.7270, 1028.008
952.2090, 997.4961
952.6920, 1025.686
953.1740, 983.3320
953.6560, 855.1445
954.1380, 716.4355
954.6200, 645.6836
955.1020, 604.4688
955.5840, 534.1758
956.0660, 428.2793
956.5480, 343.6367
957.0310, 309.3145
957.5130, 292.9004
957.9950, 289.1680
958.4770, 294.4043
958.9590, 268.6113
959.4410, 211.6035
959.9230, 160.3242
960.4050, 141.0586
960.8880, 129.7598
961.3700, 91.89844
961.8520, 39.81445
962.3340, 3.783203
962.8160, 4.031250
963.2980, 2.115234
963.7800, 26.60938
964.2620, 56.13281
964.7440, 71.70508
965.2270, 73.25586
965.7090, 56.10938
966.1910, 69.51080
966.6730, 27.59180
967.1550, 75.11328
967.6370, 110.6953
968.1190, 114.0469
968.6010, 70.02930
969.0830, 31.25586
969.5660, 4.949219
970.0480, -6.274833
970.5300, -13.49999
971.0120, 4.148438
971.4940, 1.181641
971.9760, 34.47070
972.4580, 54.54297
972.9400, 32.59766
973.4220, 102.4004
973.9050, 183.5098
974.3870, 213.6211
974.8690, 39.94727
975.3510, 129.4824
975.8330, 113.5684
976.3150, 93.33398
976.7970, 219.9707
977.2790, 173.9297
977.7610, 236.7461
978.2440, 327.1445
978.7260, 457.7852
979.2080, 541.9141
979.6900, 472.7949
980.1720, 372.0859
980.6540, 368.4277
981.1360, 506.1406
981.6190, 589.1445
982.1010, 610.2559
982.5830, 606.3613
983.0650, 582.3887
983.5470, 565.9980
984.0290, 623.8477
984.5110, 749.6562
984.9930, 852.1973
985.4750, 860.4668
985.9580, 870.9707
986.4400, 931.7539
986.9220, 1023.346
987.4040, 1059.660
987.8860, 1038.670
988.3680, 1025.742
988.8500, 1042.973
989.3320, 1079.084
989.8150, 1123.938
990.2970, 1177.791
990.7790, 1242.012
991.2610, 1346.434
991.7430, 1410.482
992.2250, 1403.969
992.7070, 1390.357
993.1890, 1444.994
993.6710, 1555.357
994.1540, 1618.990
994.6360, 1629.688
995.1180, 1633.613
995.6000, 1667.195
996.0820, 1706.637
996.5640, 1719.982
997.0460, 1709.387
997.5280, 1763.939
998.0100, 1923.896
998.4930, 2048.316
998.9750, 2083.346
999.4570, 2060.324
999.9390, 2035.088
1000.421, 2011.477
1000.903, 2002.939
1001.385, 2039.324
1001.867, 2052.998
1002.349, 1997.705
1002.832, 1913.090
1003.314, 1843.773
1003.796, 1788.176
1004.278, 1759.689
1004.760, 1764.414
1005.242, 1757.594
1005.724, 1674.604
1006.206, 1567.613
1006.689, 1521.994
1007.171, 1541.230
1007.653, 1524.527
1008.135, 1410.619
1008.617, 1292.348
1009.099, 1183.768
1009.581, 1093.199
1010.063, 1065.967
1010.545, 1095.971
1011.028, 1112.783
1011.510, 1081.705
1011.992, 1038.123
1012.474, 1004.883
1012.956, 981.1953
1013.438, 966.2324
1013.920, 961.3164
1014.402, 960.3320
1014.885, 967.2363
1015.367, 961.8223
1015.849, 915.9336
1016.331, 841.4258
1016.813, 762.4277
1017.295, 682.0957
1017.777, 617.0371
1018.259, 590.5254
1018.741, 567.1230
1019.224, 523.6094
1019.706, 469.9648
1020.188, 453.7266
1020.670, 478.9668
1021.152, 483.5176
1021.634, 438.9395
1022.116, 384.3047
1022.598, 369.2539
1023.081, 375.3828
1023.563, 374.9648
1024.045, 352.5586
1024.527, 344.8750
1025.009, 355.2344
1025.491, 363.6602
1025.973, 343.7383
1026.455, 304.8594
1026.938, 309.0391
1027.420, 351.7773
1027.902, 378.0820
1028.384, 341.5898
1028.866, 288.9375
1029.348, 231.8477
1029.830, 182.5391
1030.312, 190.5000
1030.794, 277.2500
1031.276, 328.4258
1031.759, 312.9453
1032.241, 267.0195
1032.723, 235.2852
1033.205, 211.8516
1033.687, 185.4180
1034.169, 152.5938
1034.651, 121.4414
1035.133, 79.41797
1035.616, 55.66406
1036.098, 76.64844
1036.580, 136.7578
1037.062, 152.7109
1037.544, 127.9375
1038.026, 118.4961
1038.508, 180.5039
1038.990, 246.4336
1039.473, 267.5195
1039.955, 254.7891
1040.437, 242.1367
1040.919, 229.4453
1041.401, 223.3516
1041.883, 227.5078
1042.365, 232.0977
1042.847, 225.5547
1043.329, 211.5547
1043.812, 194.0703
1044.294, 173.4961
1044.776, 162.0742
1045.258, 187.5039
1045.740, 199.7070
1046.222, 170.4805
1046.704, 109.3672
1047.186, 61.57812
1047.668, 29.17969
1048.151, 44.26953
1048.633, 172.9453
1049.115, 280.0352
1049.597, 212.6172
1050.079, 64.48828
1050.561, 7.820313
1051.043, 44.67188
1051.525, 80.58594
1052.008, 93.94531
1052.490, 98.39844
1052.972, 94.49219
1053.454, 95.51172
1053.936, 147.7578
1054.418, 244.7227
1054.900, 294.5469
1055.382, 191.6484
1055.865, 112.0586
1056.347, 123.8047
1056.829, 192.1992
1057.311, 239.2031
1057.793, 267.6562
1058.275, 291.8242
1058.757, 323.8320
1059.239, 330.1992
1059.721, 249.8516
1060.203, 154.0664
1060.686, 131.0938
1061.168, 215.9492
1061.650, 219.6523
1062.132, 122.4531
1062.614, 25.98047
1063.096, 0.4609380
1063.578, 14.88281
1064.060, 30.53516
1064.543, 42.96484
1065.025, 40.99219
1065.507, 5.0781000E-02
1065.989, 27.24219
1066.471, 24.26562
1066.953, 14.12109
1067.435, 30.73828
1067.917, 68.19141
1068.400, 82.78516
1068.882, 69.07812
1069.364, 54.20312
1069.846, 59.41406
1070.328, 69.04688
1070.810, 79.93359
1071.292, 88.66016
1071.774, 84.32666
1072.256, 14.45703
1072.739, 66.41797
1073.221, 61.08594
1073.703, 42.33594
1074.185, 78.76172
1074.667, 140.1133
1075.149, 177.3555
1075.631, 164.7188
1076.113, 163.6094
1076.596, 195.6094
1077.078, 211.7734
1077.560, 153.2188
1078.042, 48.20703
1078.524, 33.60938
1079.006, 96.73438
1079.488, 165.7695
1079.970, 249.5938
1080.453, 279.8242
1080.935, 167.5859
1081.417, 11.01172
1081.899, 27.92188
1082.381, 57.01172
1082.863, 109.6602
1083.345, 105.8828
1083.827, 99.48047
1084.309, 139.2734
1084.792, 199.1719
1085.274, 255.3008
1085.756, 303.9688
1086.238, 369.9219
1086.720, 473.8438
1087.202, 528.2070
1087.684, 486.9375
1088.166, 404.1523
1088.648, 378.7852
1089.131, 386.0234
1089.613, 372.0742
1090.095, 296.7461
1090.577, 264.6992
1091.059, 318.7617
1091.541, 394.9570
1092.023, 459.4883
1092.505, 510.6406
1092.988, 537.3477
1093.470, 539.8555
1093.952, 519.5703
1094.434, 431.9102
1094.916, 369.5898
1095.398, 406.2500
1095.880, 490.9961
1096.362, 533.2539
1096.844, 525.8516
1097.327, 525.2500
1097.809, 537.6953
1098.291, 550.6836
1098.773, 570.4531
1099.255, 571.8672
1099.737, 510.1875
1100.219, 387.1914
1100.701, 319.8008
1101.183, 334.3984
1101.666, 348.3555
1102.148, 332.9492
1102.630, 315.1172
1103.112, 358.7734
1103.594, 431.5547
1104.076, 461.9219
1104.558, 414.3906
1105.040, 387.4258
1105.523, 426.7969
1106.005, 465.1836
1106.487, 469.4180
1106.969, 441.3906
1107.451, 371.9766
1107.933, 274.6445
1108.415, 217.8789
1108.897, 284.4609
1109.380, 347.6914
1109.862, 343.6133
1110.344, 304.3867
1110.826, 266.0977
1111.308, 228.2891
1111.790, 244.3789
1112.272, 317.5820
1112.754, 347.8242
1113.236, 176.9648
1113.719, 6.179688
1114.201, 5.027344
1114.683, 173.2969
1115.165, 220.9766
1115.647, 80.87891
1116.129, 2.664063
1116.611, 22.23047
1117.093, 92.21875
1117.575, 142.8320
1118.058, 175.1016
1118.540, 188.3516
1119.022, 180.2031
1119.504, 170.4570
1119.986, 161.0547
1120.468, 154.1367
1120.950, 151.7383
1121.432, 152.3359
1121.915, 153.1172
1122.397, 150.9961
1122.879, 132.6055
1123.361, 74.78906
1123.843, 42.40234
1124.325, 97.90234
1124.807, 157.6328
1125.289, 154.5391
1125.771, 93.69531
1126.254, 89.92578
1126.736, 139.7266
1127.218, 193.0352
1127.700, 222.2773
1128.182, 240.6836
1128.664, 250.9922
1129.146, 255.9688
1129.628, 264.0625
1130.110, 278.3203
1130.593, 270.3281
1131.075, 233.2070
1131.557, 222.6680
1132.039, 325.8047
1132.521, 443.8438
1133.003, 487.1680
1133.485, 459.4492
1133.967, 415.7852
1134.450, 352.0273
1134.932, 299.7578
1135.414, 264.4102
1135.896, 250.2422
1136.378, 282.5859
1136.860, 332.1836
1137.342, 355.4688
1137.824, 346.8828
1138.307, 322.5312
1138.789, 272.8906
1139.271, 232.1953
1139.753, 204.8086
1140.235, 204.1406
1140.717, 270.1719
1141.199, 369.1250
1141.681, 419.0117
1142.163, 382.5938
1142.646, 332.2930
1143.128, 265.4297
1143.610, 215.3086
1144.092, 216.1680
1144.574, 250.7617
1145.056, 210.7148
1145.538, 115.2422
1146.020, 52.05469
1146.502, 91.09375
1146.985, 139.4766
1147.467, 185.4062
1147.949, 208.2852
1148.431, 170.5234
1148.913, 74.02734
1149.395, 42.55859
1149.877, 77.64844
1150.359, 120.9609
1150.842, 139.0547
1151.324, 145.1836
1151.806, 118.5781
1152.288, 93.09766
1152.770, 157.5664
1153.252, 326.6328
1153.734, 417.0195
1154.216, 400.6055
1154.698, 357.5312
1155.181, 346.0000
1155.663, 352.1992
1156.145, 372.7031
1156.627, 403.8438
1157.109, 404.2305
1157.591, 420.5229
1158.073, 349.8759
1158.555, 375.1648
1159.037, 365.5063
1159.520, 216.1569
1160.002, 247.1739
1160.484, 205.9225
1160.966, 161.7132
1161.448, 138.2891
1161.930, 156.4297
1162.412, 177.4336
1162.894, 166.3086
1163.377, 148.9453
1163.859, 179.9961
1164.341, 232.3906
1164.823, 260.7539
1165.305, 255.2344
1165.787, 217.3047
1166.269, 132.1992
1166.751, 56.75391
1167.234, 34.64453
1167.716, 42.29688
1168.198, 11.87109
1168.680, 38.01562
1169.162, 58.06641
1169.644, 3.437500
1170.126, 48.96484
1170.608, 107.3516
1171.090, 132.2109
1171.573, 36.39844
1172.055, 119.6992
1172.537, 79.81641
1173.019, 120.9961
1173.501, 277.8672
1173.983, 262.0156
1174.465, 225.0117
1174.947, 188.2773
1175.430, 166.7812
1175.912, 199.7695
1176.394, 270.0312
1176.876, 284.3125
1177.358, 238.4297
1177.840, 191.6562
1178.322, 162.3789
1178.804, 156.4336
1179.286, 184.7188
1179.769, 228.5742
1180.251, 258.8711
1180.733, 272.4844
1181.215, 251.6523
1181.697, 188.9531
1182.179, 148.6289
1182.661, 202.9102
1183.143, 257.5117
1183.625, 244.4609
1184.108, 283.8711
1184.590, 315.1445
1185.072, 303.4375
1185.554, 362.1133
1186.036, 364.0234
1186.518, 340.8008
1187.000, 297.0898
1187.482, 252.0547
1187.965, 220.4805
1188.447, 201.2812
1188.929, 183.0977
1189.411, 166.3281
1189.893, 153.4023
1190.375, 148.0039
1190.857, 141.4102
1191.339, 114.7500
1191.822, 96.46484
1192.304, 127.9922
1192.786, 98.18359
1193.268, 206.0586
1193.750, 99.31641
1194.232, 21.79297
1194.714, 59.85156
1195.196, 119.7422
1195.678, 125.7812
1196.161, 110.8125
1196.643, 122.0000
1197.125, 168.9531
1197.607, 189.6680
1198.089, 183.3789
1198.571, 163.3828
1199.053, 119.0898
1199.535, 83.98438
1200.017, 100.6328
1200.500, 139.8242
1200.982, 144.2031
1201.464, 102.1875
1201.946, 72.39062
1202.428, 62.32031
1202.910, 34.05579
1203.392, 25.78156
1203.874, 11.37891
1204.357, 13.97266
1204.839, 27.21484
1205.321, 32.96875
1205.803, 26.58594
1206.285, 38.40234
1206.767, 74.55078
1207.249, 102.1328
1207.731, 76.89844
1208.214, 43.44531
1208.696, 47.24219
1209.178, 79.93750
1209.660, 90.77734
1210.142, 72.08984
1210.624, 9.191406
1211.106, 87.86719
1211.588, 132.1172
1212.070, 143.7773
1212.552, 25.39844
1213.035, 74.83203
1213.517, 56.85156
1213.999, 36.09766
1214.481, 108.9219
1214.963, 6.476563
1215.445, 77.64062
1215.927, 80.43750
1216.409, 114.3906
1216.892, 80.59375
1217.374, 67.27734
1217.856, 121.7461
1218.338, 138.6836
1218.820, 96.33203
1219.302, 131.4297
1219.784, 27.46875
1220.266, 46.11719
1220.749, 117.1953
1221.231, 79.72656
1221.713, 117.2305
1222.195, 126.0664
1222.677, 4.773438
1223.159, 108.5117
1223.641, 115.6836
1224.123, 21.46875
1224.605, 118.3867
1225.088, 37.08594
1225.570, 20.57812
1226.052, 51.63281
1226.534, 33.17969
1227.016, 92.96875
1227.498, 77.24609
1227.980, 55.29297
1228.462, 62.72266
1228.944, 14.89062
1229.427, 63.70312
1229.909, 36.30859
1230.391, 61.44531
1230.873, 99.16016
1231.355, 46.14844
1231.837, 89.51562
1232.319, 19.70312
1232.801, 22.42578
1233.284, 31.93750
1233.766, 21.55078
1234.248, 7.359375
1234.730, 0.0000000E+00
##END=



