##NAMES=Chalcophanite
##RRUFFID=R060271
##IDEAL CHEMISTRY=Zn^2+^Mn^4+^_3_O_7_&#183;3H_2_O
##LOCALITY=&#34;Glory Hole&#34;, Gold Hill mine, Tooele County, Utah, USA
##OWNER=RRUFF
##SOURCE=Michael Scott
##DESCRIPTION=Black hexagonal plates
##STATUS=The identification of this mineral has been confirmed by X-ray diffraction and chemical analysis
##URL=rruff.info/R060271
##MEASURED CHEMISTRY=(Zn_0.97_Mn^2+^_0.03_)_Σ=1_Mn^4+^_3.00_O_7_·3(H_2_O)
149.9194, 0.0000000E+00
150.4015, 0.3286840
150.8836, 1.058249
151.3657, 1.898504
151.8479, 2.749489
152.3300, 2.109568
152.8121, 0.4310230
153.2942, 0.1377240
153.7763, 1.321764
154.2584, 2.846035
154.7406, 3.415817
155.2227, 2.983578
155.7048, 2.141773
156.1869, 1.469156
156.6690, 0.9553390
157.1511, 0.8502660
157.6333, 1.613192
158.1154, 2.599981
158.5975, 2.941046
159.0796, 2.511877
159.5617, 1.905796
160.0438, 1.953358
160.5260, 2.696123
161.0081, 3.302258
161.4902, 3.524942
161.9723, 3.471088
162.4544, 3.266392
162.9365, 2.905605
163.4187, 2.463043
163.9008, 2.014137
164.3829, 1.566324
164.8650, 1.143070
165.3471, 0.6072370
165.8292, 5.1075000E-02
166.3113, 2.0896999E-02
166.7935, 0.3953460
167.2756, 1.035875
167.7577, 1.722296
168.2398, 2.430639
168.7219, 3.004358
169.2040, 3.266109
169.6862, 3.224112
170.1683, 2.895407
170.6504, 1.679008
171.1325, 0.5901740
171.6146, 0.2078290
172.0967, 0.6487390
172.5789, 1.574093
173.0610, 2.578466
173.5431, 4.087955
174.0252, 4.814396
174.5073, 4.025013
174.9894, 2.952375
175.4716, 2.611120
175.9537, 3.300234
176.4358, 4.428934
176.9179, 4.796782
177.4000, 3.790895
177.8821, 2.819920
178.3643, 1.686594
178.8464, 0.7029340
179.3285, 0.3064350
179.8106, 0.6735780
180.2927, 1.458239
180.7748, 1.714434
181.2570, 0.8559420
181.7391, 0.2000500
182.2212, 0.1974510
182.7033, 0.2941280
183.1854, 5.8270000E-02
183.6675, 0.9873730
184.1497, 2.273232
184.6318, 3.247190
185.1139, 4.191324
185.5960, 4.546747
186.0781, 3.636158
186.5602, 1.904594
187.0423, 0.7007980
187.5245, 0.6220300
188.0066, 1.280834
188.4887, 1.646347
188.9708, 1.691973
189.4529, 1.664063
189.9350, 1.775408
190.4172, 1.999306
190.8993, 2.032307
191.3814, 1.588533
191.8635, 0.9495220
192.3456, 0.5259020
192.8277, 0.4113430
193.3099, 0.4124810
193.7920, 0.2882330
194.2741, 2.9340000E-03
194.7562, 0.1039890
195.2383, 0.4633560
195.7204, 1.131222
196.2026, 1.477285
196.6847, 1.344994
197.1668, 0.9805640
197.6489, 0.7000200
198.1310, 0.4447310
198.6131, 0.4619370
199.0953, 1.181179
199.5774, 2.194508
200.0595, 2.753328
200.5416, 2.469419
201.0237, 1.777245
201.5058, 1.205221
201.9880, 0.5756890
202.4701, 0.4446560
202.9522, 1.185083
203.4343, 2.267349
203.9164, 3.204498
204.3985, 3.781593
204.8807, 4.044802
205.3628, 4.116505
205.8449, 3.852036
206.3270, 3.562378
206.8091, 3.161085
207.2912, 2.795338
207.7733, 2.700237
208.2555, 2.993916
208.7376, 3.552177
209.2197, 3.839998
209.7018, 3.240086
210.1839, 2.940132
210.6660, 3.473480
211.1482, 4.339760
211.6303, 4.779295
212.1124, 4.308294
212.5945, 3.299883
213.0766, 3.324682
213.5587, 5.812052
214.0409, 7.572832
214.5230, 7.624189
215.0051, 6.552170
215.4872, 5.317690
215.9693, 4.329395
216.4514, 3.631393
216.9336, 3.455608
217.4157, 4.217781
217.8978, 4.836775
218.3799, 4.915276
218.8620, 4.579235
219.3441, 4.059069
219.8263, 3.315317
220.3084, 2.636930
220.7905, 2.866867
221.2726, 4.842794
221.7547, 6.222452
222.2368, 5.308048
222.7190, 2.641006
223.2011, 0.4361610
223.6832, 0.2889370
224.1653, 2.4494000E-02
224.6474, 5.6772001E-02
225.1295, 0.2691800
225.6117, 0.2664950
226.0938, 0.9856620
226.5759, 3.284575
227.0580, 4.832607
227.5401, 4.554977
228.0222, 3.462887
228.5043, 2.875856
228.9865, 2.928123
229.4686, 3.195606
229.9507, 3.393032
230.4328, 3.519386
230.9149, 3.575876
231.3970, 3.579506
231.8792, 3.488478
232.3613, 3.200785
232.8434, 2.685867
233.3255, 2.230272
233.8076, 2.201498
234.2897, 2.650253
234.7719, 2.925949
235.2540, 2.527832
235.7361, 2.153811
236.2182, 2.287043
236.7003, 2.985666
237.1824, 3.893766
237.6646, 4.896786
238.1467, 6.202400
238.6288, 6.426731
239.1109, 3.747593
239.5930, 1.062807
240.0751, 3.4593999E-02
240.5573, 0.6098840
241.0394, 2.016020
241.5215, 3.094809
242.0036, 3.794941
242.4857, 4.356197
242.9678, 5.013676
243.4500, 5.365517
243.9321, 4.968546
244.4142, 3.911093
244.8963, 2.809284
245.3784, 2.440519
245.8605, 3.095001
246.3427, 3.434328
246.8248, 3.557053
247.3069, 3.315928
247.7890, 2.341019
248.2711, 0.7957610
248.7532, 0.6660270
249.2354, 1.375315
249.7175, 1.235432
250.1996, 0.6922230
250.6817, 0.9252050
251.1638, 2.310509
251.6459, 2.657024
252.1281, 2.095713
252.6102, 1.392027
253.0923, 1.325468
253.5744, 2.016869
254.0565, 2.532057
254.5386, 3.062862
255.0208, 3.286222
255.5029, 2.764811
255.9850, 1.721373
256.4671, 0.8937360
256.9492, 0.9829160
257.4313, 2.111385
257.9135, 2.663128
258.3956, 2.235575
258.8777, 1.761415
259.3598, 1.566456
259.8419, 1.656033
260.3240, 1.967222
260.8062, 2.510988
261.2883, 3.279673
261.7704, 3.580589
262.2525, 3.171461
262.7346, 2.662867
263.2167, 2.319923
263.6989, 2.082136
264.1810, 1.732944
264.6631, 1.104752
265.1452, 0.2479420
265.6273, 0.3855190
266.1094, 1.051939
266.5916, 1.286455
267.0737, 0.7796120
267.5558, 0.2927930
268.0379, 1.623732
268.5200, 3.172918
269.0021, 4.718807
269.4843, 5.290129
269.9664, 3.971409
270.4485, 3.006979
270.9306, 3.460342
271.4127, 4.772560
271.8948, 5.762007
272.3770, 5.894232
272.8591, 5.425989
273.3412, 4.934816
273.8233, 4.184483
274.3054, 3.851307
274.7875, 4.443241
275.2697, 5.561388
275.7518, 6.511246
276.2339, 7.091526
276.7160, 7.302124
277.1981, 6.851725
277.6802, 5.426325
278.1623, 4.785635
278.6444, 6.205343
279.1266, 8.563541
279.6087, 9.872627
280.0908, 9.511238
280.5729, 8.453049
281.0550, 7.859818
281.5371, 7.651634
282.0193, 7.862448
282.5014, 9.017790
282.9835, 10.37537
283.4656, 10.73661
283.9477, 9.794050
284.4298, 8.643972
284.9120, 8.579411
285.3941, 9.445713
285.8762, 10.21717
286.3583, 10.56573
286.8404, 10.76563
287.3225, 11.23413
287.8047, 12.05046
288.2868, 12.73433
288.7689, 12.79813
289.2510, 12.39012
289.7331, 12.04059
290.2152, 11.79955
290.6974, 11.67397
291.1795, 11.59065
291.6616, 11.53975
292.1437, 11.84980
292.6258, 12.97435
293.1079, 14.57552
293.5901, 15.86577
294.0722, 16.87378
294.5543, 17.43332
295.0364, 17.20397
295.5185, 16.22865
296.0006, 15.32479
296.4828, 15.02246
296.9649, 14.91402
297.4470, 14.21920
297.9291, 12.60459
298.4112, 11.10944
298.8933, 10.40477
299.3755, 10.42237
299.8576, 10.83521
300.3397, 11.87749
300.8218, 12.89455
301.3039, 13.05188
301.7860, 12.28962
302.2682, 11.18585
302.7503, 9.609655
303.2324, 7.864687
303.7145, 7.114759
304.1966, 7.986389
304.6787, 9.290895
305.1609, 9.969366
305.6430, 10.06489
306.1251, 9.508417
306.6072, 7.555418
307.0893, 4.968994
307.5714, 3.549675
308.0536, 3.774282
308.5357, 4.492039
309.0178, 4.774710
309.4999, 4.721169
309.9820, 4.530243
310.4641, 4.221016
310.9463, 3.829241
311.4284, 3.311872
311.9105, 2.602041
312.3926, 2.153206
312.8747, 2.527788
313.3568, 3.329021
313.8390, 3.863756
314.3211, 3.990999
314.8032, 3.811871
315.2853, 3.256586
315.7674, 2.314066
316.2495, 1.657871
316.7317, 1.883272
317.2138, 2.415854
317.6959, 2.275599
318.1780, 1.081778
318.6601, 3.1849001E-02
319.1422, 0.3038310
319.6243, 1.677017
320.1064, 2.581984
320.5886, 2.375114
321.0707, 1.658113
321.5528, 1.213385
322.0349, 1.054966
322.5170, 0.9117450
322.9991, 0.5064130
323.4813, 3.1090001E-02
323.9634, 0.2130760
324.4455, 0.2063620
324.9276, 0.7926310
325.4097, 1.103750
325.8918, 1.140669
326.3740, 1.072702
326.8561, 0.8345660
327.3382, 0.5702920
327.8203, 0.5163860
328.3024, 0.7075710
328.7845, 1.027220
329.2667, 1.597805
329.7488, 2.231762
330.2309, 2.426767
330.7130, 1.740915
331.1951, 0.8222600
331.6772, 0.2906000
332.1594, 0.1418720
332.6415, 0.1313340
333.1236, 0.1303480
333.6057, 0.2018220
334.0878, 0.4683780
334.5699, 1.052473
335.0521, 1.616961
335.5342, 2.160370
336.0163, 2.543287
336.4984, 2.429642
336.9805, 1.444365
337.4626, 0.2450220
337.9448, 0.1131800
338.4269, 0.4530160
338.9090, 1.016497
339.3911, 1.108786
339.8732, 0.9673630
340.3553, 1.100412
340.8375, 1.670120
341.3196, 2.265842
341.8017, 2.393242
342.2838, 2.098053
342.7659, 1.756252
343.2480, 1.134045
343.7302, 0.6701370
344.2123, 1.011492
344.6944, 2.190514
345.1765, 3.392780
345.6586, 4.099430
346.1407, 4.285122
346.6229, 4.225405
347.1050, 3.549398
347.5871, 2.881050
348.0692, 2.776464
348.5513, 3.100698
349.0334, 3.224060
349.5156, 2.781733
349.9977, 2.003000
350.4798, 1.535154
350.9619, 1.350300
351.4440, 1.328959
351.9261, 1.626425
352.4083, 2.019318
352.8904, 2.021343
353.3725, 1.433540
353.8546, 0.7960930
354.3367, 0.9854970
354.8188, 2.279938
355.3010, 3.201963
355.7831, 3.307878
356.2652, 3.181202
356.7473, 3.328705
357.2294, 3.810114
357.7115, 4.435789
358.1937, 5.087341
358.6758, 5.763950
359.1579, 6.196465
359.6400, 6.169516
360.1221, 6.134386
360.6042, 6.500443
361.0863, 7.056898
361.5685, 7.131487
362.0506, 6.252695
362.5327, 4.776999
363.0148, 4.196711
363.4969, 5.158026
363.9790, 6.136017
364.4612, 7.193781
364.9433, 8.054585
365.4254, 8.298510
365.9075, 7.818647
366.3896, 6.952080
366.8717, 6.052412
367.3539, 4.815048
367.8360, 4.399282
368.3181, 5.191582
368.8002, 6.440151
369.2823, 7.822702
369.7644, 9.207174
370.2466, 10.47060
370.7287, 11.53494
371.2108, 12.41429
371.6929, 12.76726
372.1750, 12.06164
372.6571, 11.43898
373.1393, 11.40735
373.6214, 11.66423
374.1035, 11.56704
374.5856, 10.72754
375.0677, 9.506897
375.5498, 9.093342
376.0320, 10.07476
376.5141, 11.11978
376.9962, 12.55120
377.4783, 13.74600
377.9604, 13.97437
378.4425, 13.12426
378.9247, 11.85198
379.4068, 11.06544
379.8889, 10.95682
380.3710, 10.66280
380.8531, 9.763575
381.3352, 9.055445
381.8174, 9.144413
382.2995, 9.780964
382.7816, 10.17479
383.2637, 9.674023
383.7458, 8.417593
384.2279, 7.318783
384.7101, 6.156696
385.1922, 5.546633
385.6743, 6.288702
386.1564, 7.373442
386.6385, 7.446152
387.1206, 5.869801
387.6028, 3.675320
388.0849, 2.459095
388.5670, 2.355158
389.0491, 2.617577
389.5312, 3.597773
390.0133, 4.532692
390.4955, 5.054796
390.9776, 5.096098
391.4597, 4.512861
391.9418, 2.681583
392.4239, 7.2704002E-02
392.9060, 1.754112
393.3882, 1.997217
393.8703, 1.535452
394.3524, 0.4260690
394.8345, 0.9821780
395.3166, 1.882662
395.7987, 1.624323
396.2809, 0.9866960
396.7630, 1.172464
397.2451, 2.251945
397.7272, 3.093348
398.2093, 3.093384
398.6914, 2.609106
399.1736, 2.189075
399.6557, 1.817240
400.1378, 1.642788
400.6199, 1.796991
401.1020, 2.216393
401.5841, 2.901434
402.0662, 4.049500
402.5483, 4.853348
403.0305, 3.899065
403.5126, 1.320017
403.9947, 0.4575520
404.4768, 0.7575550
404.9589, 0.2377380
405.4410, 0.9527550
405.9232, 2.634453
406.4053, 3.607029
406.8874, 2.852430
407.3695, 0.7976510
407.8516, 0.3094710
408.3337, 0.2246490
408.8159, 0.7606330
409.2980, 0.6700210
409.7801, 0.2922940
410.2622, 0.1973900
410.7443, 0.6118070
411.2264, 1.232180
411.7086, 1.565401
412.1907, 1.426254
412.6728, 1.449289
413.1549, 1.787661
413.6370, 2.161205
414.1191, 2.438574
414.6013, 2.582222
415.0834, 2.533794
415.5655, 2.210789
416.0476, 1.642017
416.5297, 1.353851
417.0118, 1.771112
417.4940, 1.988823
417.9761, 1.566525
418.4582, 0.9674130
418.9403, 0.8200380
419.4224, 1.354904
419.9045, 2.217770
420.3867, 2.838594
420.8688, 3.250696
421.3509, 3.306673
421.8330, 2.871668
422.3151, 2.212130
422.7972, 1.137724
423.2794, 0.1114430
423.7615, 0.8262630
424.2436, 0.2556800
424.7257, 1.360874
425.2078, 2.383436
425.6899, 2.524763
426.1721, 2.550859
426.6542, 2.722631
427.1363, 2.956291
427.6184, 3.208286
428.1005, 3.502842
428.5826, 3.618271
429.0648, 3.125042
429.5469, 2.007925
430.0290, 1.221821
430.5111, 1.099028
430.9932, 1.254131
431.4753, 1.451815
431.9575, 1.657307
432.4396, 1.590576
432.9217, 0.5759390
433.4038, 0.6117230
433.8859, 0.3573440
434.3680, 1.577194
434.8502, 3.345816
435.3323, 3.641418
435.8144, 2.931858
436.2965, 2.638317
436.7786, 2.964588
437.2607, 3.469341
437.7429, 4.168085
438.2250, 4.857676
438.7071, 4.966131
439.1892, 4.252131
439.6713, 3.269073
440.1534, 2.827682
440.6356, 3.108299
441.1177, 3.104446
441.5998, 2.294939
442.0819, 1.555647
442.5640, 1.685400
443.0461, 2.534077
443.5282, 3.332178
444.0103, 3.564251
444.4925, 3.314554
444.9746, 3.043100
445.4567, 2.499285
445.9388, 2.250999
446.4209, 2.531717
446.9030, 3.047661
447.3852, 3.682352
447.8673, 4.327599
448.3494, 4.616865
448.8315, 3.948496
449.3136, 2.009884
449.7957, 0.6897050
450.2779, 0.3167900
450.7600, 0.1396690
451.2421, 0.2251000
451.7242, 0.4620250
452.2063, 0.6212460
452.6884, 0.4750630
453.1706, 0.2027450
453.6527, 0.4044720
454.1348, 1.362347
454.6169, 1.897623
455.0990, 1.114277
455.5811, 0.1992700
456.0633, 7.1177997E-02
456.5454, 0.7786330
457.0275, 1.500963
457.5096, 1.534601
457.9917, 1.088434
458.4738, 0.9704320
458.9560, 1.366415
459.4381, 1.697496
459.9202, 1.350319
460.4023, 0.6986680
460.8844, 0.4506590
461.3665, 0.8178840
461.8487, 1.454214
462.3308, 2.527531
462.8129, 3.814135
463.2950, 4.175615
463.7771, 3.088722
464.2592, 1.562523
464.7414, 1.015718
465.2235, 1.634932
465.7056, 1.843658
466.1877, 0.9837440
466.6698, 7.5060003E-02
467.1519, 3.4643002E-02
467.6341, 0.6067810
468.1162, 1.492485
468.5983, 2.297544
469.0804, 3.090939
469.5625, 4.167465
470.0446, 6.410805
470.5268, 7.810654
471.0089, 7.553167
471.4910, 6.743885
471.9731, 6.507864
472.4552, 7.007008
472.9373, 7.507988
473.4195, 7.094280
473.9016, 5.654488
474.3837, 4.990421
474.8658, 5.662638
475.3479, 6.506689
475.8300, 7.484047
476.3122, 8.345175
476.7943, 8.748739
477.2764, 8.542919
477.7585, 7.866867
478.2406, 6.594622
478.7227, 4.577122
479.2049, 3.771406
479.6870, 5.477346
480.1691, 7.488184
480.6512, 8.229525
481.1333, 7.834646
481.6154, 7.153616
482.0976, 6.383177
482.5797, 5.785622
483.0618, 5.961939
483.5439, 6.928919
484.0260, 7.467096
484.5081, 6.617605
484.9902, 5.175814
485.4724, 4.975824
485.9545, 6.604696
486.4366, 7.673052
486.9187, 6.820053
487.4008, 5.176878
487.8829, 4.331232
488.3651, 4.497929
488.8472, 4.758850
489.3293, 4.235928
489.8114, 2.936756
490.2935, 2.374155
490.7756, 3.080982
491.2578, 3.705210
491.7399, 3.865108
492.2220, 3.850452
492.7041, 4.132992
493.1862, 4.844452
493.6683, 5.440027
494.1505, 4.942411
494.6326, 2.802614
495.1147, 1.752823
495.5968, 2.769968
496.0789, 3.956194
496.5610, 4.870996
497.0432, 5.416836
497.5253, 5.456535
498.0074, 4.816404
498.4895, 3.925673
498.9716, 3.678089
499.4537, 4.213842
499.9359, 4.477068
500.4180, 3.839163
500.9001, 3.197920
501.3822, 3.383408
501.8643, 4.330303
502.3464, 5.260019
502.8286, 5.887682
503.3107, 6.246185
503.7928, 6.112730
504.2749, 5.488096
504.7570, 5.627129
505.2391, 7.660862
505.7213, 10.57221
506.2034, 11.54177
506.6855, 9.736074
507.1676, 8.215385
507.6497, 7.964390
508.1318, 8.315548
508.6140, 8.755589
509.0961, 9.122158
509.5782, 8.976572
510.0603, 7.748238
510.5424, 5.552286
511.0245, 4.885376
511.5067, 7.733353
511.9888, 9.720467
512.4709, 9.918907
512.9530, 9.002813
513.4351, 7.387791
513.9172, 5.325073
514.3994, 3.509974
514.8815, 2.946859
515.3636, 3.769142
515.8457, 3.983795
516.3278, 3.002052
516.8099, 2.194069
517.2921, 2.225712
517.7742, 2.742050
518.2563, 3.265215
518.7384, 3.720810
519.2205, 3.868858
519.7026, 3.308680
520.1848, 2.127638
520.6669, 0.8746490
521.1490, 0.6214180
521.6311, 1.582611
522.1132, 0.5608520
522.5953, 1.989117
523.0775, 3.471161
523.5596, 2.547962
524.0417, 1.218479
524.5238, 0.8140720
525.0059, 1.142355
525.4880, 1.667809
525.9702, 2.184481
526.4523, 2.507496
526.9344, 2.267702
527.4165, 1.072033
527.8986, 0.3527930
528.3807, 0.3376870
528.8629, 0.5426640
529.3450, 0.8852630
529.8271, 1.223307
530.3092, 1.285963
530.7913, 0.8988040
531.2734, 0.2716080
531.7556, 0.1052800
532.2377, 0.2231120
532.7198, 0.1099050
533.2019, 0.5513290
533.6840, 1.185160
534.1661, 1.534746
534.6483, 1.578535
535.1304, 1.341719
535.6125, 0.6459770
536.0946, 0.2003690
536.5767, 0.6101300
537.0588, 0.5660860
537.5410, 0.4277570
538.0231, 0.2158640
538.5052, 0.1015010
538.9873, 0.5235580
539.4694, 1.635721
539.9515, 2.120779
540.4337, 1.066389
540.9158, 0.4118460
541.3979, 1.363274
541.8800, 1.729614
542.3621, 1.682219
542.8442, 1.251131
543.3264, 0.6273960
543.8085, 0.4740680
544.2906, 1.038483
544.7726, 1.632458
545.2548, 2.468508
545.7369, 3.170547
546.2190, 3.416832
546.7011, 3.163511
547.1832, 2.905302
547.6653, 3.117720
548.1475, 3.690668
548.6296, 4.067642
549.1117, 4.061493
549.5938, 4.350451
550.0759, 5.299553
550.5580, 6.517857
551.0402, 7.715815
551.5223, 8.877121
552.0044, 10.22186
552.4865, 12.19506
552.9686, 14.32430
553.4507, 15.65441
553.9329, 16.14348
554.4150, 16.65486
554.8971, 17.68864
555.3792, 19.00246
555.8613, 19.96723
556.3434, 20.53602
556.8256, 20.96195
557.3077, 20.79123
557.7898, 20.84788
558.2719, 22.13406
558.7540, 24.48556
559.2361, 26.79707
559.7183, 28.28669
560.2004, 29.17716
560.6825, 30.48872
561.1646, 32.68444
561.6467, 34.48562
562.1288, 35.36226
562.6110, 36.17723
563.0931, 37.68526
563.5752, 39.79342
564.0573, 41.75451
564.5394, 42.98195
565.0215, 43.72866
565.5037, 44.79002
565.9858, 46.31807
566.4679, 47.12246
566.9500, 46.18026
567.4321, 44.78567
567.9142, 44.97112
568.3964, 46.91280
568.8785, 47.90359
569.3606, 46.42607
569.8427, 43.98518
570.3248, 42.08517
570.8069, 40.69996
571.2891, 39.16679
571.7712, 37.18753
572.2533, 34.69999
572.7354, 31.51974
573.2175, 26.62318
573.6996, 22.85800
574.1818, 20.65144
574.6639, 19.10551
575.1460, 17.96552
575.6281, 17.01010
576.1102, 15.85392
576.5923, 14.20733
577.0745, 12.43888
577.5566, 11.41667
578.0387, 11.26628
578.5208, 11.20823
579.0029, 11.30200
579.4850, 11.08513
579.9672, 10.07047
580.4493, 8.511562
580.9314, 7.435017
581.4135, 7.715033
581.8956, 8.251177
582.3777, 7.834631
582.8599, 6.723553
583.3420, 5.944160
583.8241, 5.885637
584.3062, 6.079569
584.7883, 5.866232
585.2704, 5.098425
585.7526, 4.654140
586.2347, 5.099972
586.7168, 5.266844
587.1989, 4.113266
587.6810, 2.497849
588.1631, 1.971704
588.6453, 3.060984
589.1274, 4.616699
589.6095, 4.849895
590.0916, 3.562389
590.5737, 3.039557
591.0558, 4.083326
591.5380, 4.779045
592.0201, 3.693310
592.5022, 1.911373
592.9843, 1.187176
593.4664, 2.192690
593.9485, 3.317806
594.4307, 3.204803
594.9128, 2.373970
595.3949, 2.115294
595.8770, 2.663361
596.3591, 2.991711
596.8412, 2.108555
597.3234, 0.2308410
597.8055, 0.6710610
598.2876, 0.2077290
598.7697, 1.070341
599.2518, 1.810328
599.7339, 2.147198
600.2161, 1.352940
600.6982, 0.2979320
601.1803, 1.237307
601.6624, 8.9061998E-02
602.1445, 2.889641
602.6266, 3.151834
603.1088, 0.5159660
603.5909, 3.092947
604.0730, 2.364271
604.5551, 0.7245120
605.0372, 0.1156670
605.5193, 0.1565400
606.0015, 0.3716950
606.4836, 1.790525
606.9657, 3.275089
607.4478, 3.020081
607.9299, 1.344408
608.4120, 0.2685380
608.8942, 0.6598170
609.3763, 1.788338
609.8584, 2.594559
610.3405, 3.029926
610.8226, 3.249577
611.3047, 3.089966
611.7869, 2.896130
612.2690, 2.953991
612.7511, 3.050957
613.2332, 2.713215
613.7153, 1.780666
614.1974, 0.8124850
614.6796, 0.5816120
615.1617, 1.115376
615.6438, 1.903168
616.1259, 3.277245
616.6080, 4.309628
617.0901, 4.220654
617.5723, 3.610527
618.0544, 3.249451
618.5365, 3.192108
619.0186, 3.643467
619.5007, 5.146706
619.9828, 7.067886
620.4650, 8.439445
620.9471, 9.153053
621.4292, 9.541225
621.9113, 9.907417
622.3934, 10.02405
622.8755, 8.975918
623.3577, 4.428593
623.8398, 2.130733
624.3219, 3.664124
624.8040, 6.133274
625.2861, 8.152729
625.7682, 9.414433
626.2504, 9.707848
626.7325, 8.688828
627.2145, 7.217697
627.6967, 7.034599
628.1788, 8.206032
628.6609, 9.085476
629.1430, 9.301392
629.6251, 9.227386
630.1072, 9.157299
630.5894, 9.072613
631.0715, 8.885944
631.5536, 8.026047
632.0357, 7.669987
632.5178, 9.170650
632.9999, 11.30019
633.4821, 11.86059
633.9642, 10.49426
634.4463, 8.821693
634.9284, 8.389866
635.4105, 9.113762
635.8926, 9.790646
636.3748, 10.63878
636.8569, 11.06526
637.3390, 10.47366
637.8211, 9.830246
638.3032, 10.03984
638.7853, 11.06494
639.2675, 12.05038
639.7496, 12.41587
640.2317, 12.44609
640.7138, 12.63145
641.1959, 12.94770
641.6780, 13.02592
642.1602, 12.63562
642.6423, 12.22825
643.1244, 12.47453
643.6065, 13.54345
644.0886, 14.18737
644.5707, 14.06961
645.0529, 13.90117
645.5350, 13.89803
646.0171, 14.05640
646.4992, 14.40548
646.9813, 14.92429
647.4634, 15.42827
647.9456, 15.66273
648.4277, 15.66632
648.9098, 15.83499
649.3919, 16.00072
649.8740, 16.79008
650.3561, 19.16210
650.8383, 21.83261
651.3204, 23.26508
651.8025, 23.32825
652.2846, 23.29556
652.7667, 23.52333
653.2488, 23.96787
653.7310, 24.56821
654.2131, 25.34491
654.6952, 26.51260
655.1773, 28.19034
655.6594, 29.78795
656.1415, 30.30980
656.6237, 29.29946
657.1058, 29.24441
657.5879, 30.88946
658.0700, 32.71760
658.5521, 34.21211
659.0342, 35.69287
659.5164, 37.99640
659.9985, 41.24273
660.4806, 43.83782
660.9627, 43.77111
661.4448, 42.14186
661.9269, 42.02951
662.4091, 43.61393
662.8912, 45.51757
663.3733, 47.24350
663.8554, 48.68142
664.3375, 49.54314
664.8196, 49.53548
665.3018, 49.79365
665.7839, 50.88467
666.2660, 51.70652
666.7481, 51.37200
667.2302, 50.43562
667.7123, 50.01810
668.1945, 50.51054
668.6766, 51.04030
669.1587, 50.57223
669.6408, 49.13374
670.1229, 46.99869
670.6050, 43.89730
671.0872, 40.94429
671.5693, 38.68340
672.0514, 36.99476
672.5335, 35.66807
673.0156, 34.83185
673.4977, 33.53271
673.9799, 31.11258
674.4620, 28.47689
674.9441, 26.37569
675.4262, 24.71320
675.9083, 22.99516
676.3904, 20.99331
676.8726, 19.11839
677.3547, 18.05717
677.8368, 17.91526
678.3189, 17.57232
678.8010, 17.22429
679.2831, 16.42942
679.7653, 14.30803
680.2474, 12.07418
680.7295, 11.39170
681.2116, 12.61678
681.6937, 13.55256
682.1758, 12.51121
682.6580, 10.75947
683.1401, 10.02335
683.6222, 10.18876
684.1043, 10.01468
684.5864, 8.866241
685.0685, 7.509064
685.5507, 7.421890
686.0328, 9.276585
686.5149, 9.744179
686.9970, 7.195339
687.4791, 5.004406
687.9612, 4.100677
688.4434, 4.145844
688.9255, 4.952141
689.4076, 6.430004
689.8897, 7.432501
690.3718, 6.555592
690.8539, 4.776947
691.3361, 4.152866
691.8182, 4.678434
692.3003, 5.077251
692.7824, 4.820827
693.2645, 4.101433
693.7466, 3.131229
694.2288, 1.708309
694.7109, 0.9136910
695.1930, 1.084167
695.6751, 1.444271
696.1572, 1.968948
696.6393, 2.410957
697.1215, 2.376402
697.6036, 1.828587
698.0857, 1.298458
698.5678, 1.373880
699.0499, 1.802259
699.5320, 1.790359
700.0142, 1.311703
700.4963, 1.225660
700.9784, 2.048441
701.4605, 2.987057
701.9426, 2.899843
702.4247, 1.713228
702.9069, 0.9642910
703.3890, 1.027199
703.8711, 1.152128
704.3532, 1.107895
704.8353, 0.9827840
705.3174, 0.7763040
705.7996, 0.5392280
706.2817, 0.4729690
706.7638, 0.8512230
707.2459, 1.495358
707.7280, 1.750147
708.2101, 1.545155
708.6923, 1.680376
709.1743, 2.674017
709.6564, 3.636261
710.1385, 3.230177
710.6207, 1.636206
711.1028, 1.196857
711.5849, 3.517479
712.0670, 5.290926
712.5491, 4.729996
713.0313, 3.265421
713.5134, 2.494284
713.9955, 2.625835
714.4776, 3.062395
714.9597, 3.439734
715.4418, 3.641235
715.9240, 3.243246
716.4061, 2.164713
716.8882, 1.252960
717.3703, 0.6540680
717.8524, 0.3128600
718.3345, 0.2437040
718.8167, 0.3647370
719.2988, 0.7244830
719.7809, 1.772797
720.2630, 2.440868
720.7451, 2.100901
721.2272, 1.392750
721.7094, 0.9005680
722.1915, 0.6716560
722.6736, 0.4816230
723.1557, 0.1767120
723.6378, 3.7246998E-02
724.1199, 0.4061640
724.6021, 1.601540
725.0842, 2.240881
725.5663, 1.961187
726.0484, 1.600134
726.5305, 1.769121
727.0126, 2.172617
727.4948, 2.215010
727.9769, 1.811005
728.4590, 1.227291
728.9411, 0.1906450
729.4232, 0.7031190
729.9053, 0.8195000
730.3875, 0.3725610
730.8696, 5.9050000E-03
731.3517, 5.0455000E-02
731.8338, 8.3319001E-02
732.3159, 0.7915730
732.7980, 2.170118
733.2802, 2.375723
733.7623, 0.9148750
734.2444, 0.3345830
734.7265, 0.6753220
735.2086, 0.3052640
735.6907, 0.8177490
736.1729, 2.830408
736.6550, 3.632446
737.1371, 1.469372
737.6192, 0.6553170
738.1013, 0.6583180
738.5834, 0.4753000
739.0656, 1.008059
739.5477, 0.5691950
740.0298, 0.1037790
740.5119, 0.5784890
740.9940, 1.734594
741.4761, 2.575144
741.9583, 3.142252
742.4404, 3.064810
742.9225, 1.893547
743.4046, 0.5274200
743.8867, 0.2775670
744.3688, 0.5423300
744.8510, 0.2866610
745.3331, 1.006962
745.8152, 2.169977
746.2973, 2.871962
746.7794, 3.226192
747.2615, 3.269562
747.7437, 3.071196
748.2258, 2.778673
748.7079, 2.475664
749.1900, 2.161654
749.6721, 1.713467
750.1542, 1.141714
750.6364, 1.253710
751.1185, 2.438980
751.6006, 3.342247
752.0827, 2.955605
752.5648, 1.742100
753.0469, 0.9709610
753.5291, 0.7525040
754.0112, 0.6293410
754.4933, 0.7484300
754.9754, 0.7456400
755.4575, 0.1732640
755.9396, 0.6157910
756.4218, 0.8703250
756.9039, 0.3823780
757.3860, 6.0593002E-02
757.8681, 0.8094410
758.3502, 2.394333
758.8323, 2.190647
759.3145, 9.1283999E-02
759.7966, 1.263208
760.2787, 0.6261940
760.7608, 0.5222910
761.2429, 0.1500930
761.7250, 1.965326
762.2072, 2.948235
762.6893, 1.649027
763.1714, 0.8024810
763.6535, 1.401991
764.1356, 2.420801
764.6177, 2.946428
765.0999, 2.925571
765.5820, 2.743074
766.0641, 2.527649
766.5462, 2.418018
767.0283, 2.842194
767.5104, 3.552568
767.9926, 3.400925
768.4747, 2.172825
768.9568, 1.172348
769.4389, 1.398111
769.9210, 2.441587
770.4031, 2.933254
770.8853, 2.417887
771.3674, 2.243536
771.8495, 3.014990
772.3316, 3.462345
772.8137, 2.613359
773.2958, 1.261858
773.7780, 0.7703210
774.2601, 1.498745
774.7422, 2.064438
775.2243, 1.009771
775.7064, 0.3072740
776.1885, 0.1843070
776.6707, 2.015629
777.1528, 3.266981
777.6349, 3.269310
778.1170, 2.792383
778.5991, 2.738708
779.0812, 3.085020
779.5634, 3.347397
780.0455, 3.459246
780.5276, 3.642078
781.0097, 4.162472
781.4918, 4.570127
781.9739, 4.405378
782.4561, 3.809006
782.9382, 3.390669
783.4203, 3.368206
783.9024, 3.428469
784.3845, 3.584696
784.8666, 3.640190
785.3488, 3.150703
785.8309, 2.300417
786.3130, 1.874006
786.7951, 2.322506
787.2772, 3.122665
787.7593, 3.536118
788.2415, 3.681356
788.7236, 3.621824
789.2057, 3.304079
789.6878, 3.097240
790.1699, 3.183420
790.6520, 3.495886
791.1342, 3.846626
791.6162, 4.307983
792.0983, 4.572624
792.5804, 4.689762
793.0626, 4.587404
793.5447, 4.012976
794.0268, 3.296646
794.5089, 2.778038
794.9910, 2.537825
795.4731, 2.505428
795.9553, 2.750893
796.4374, 3.253389
796.9195, 4.074484
797.4016, 5.045845
797.8837, 5.235703
798.3658, 4.464939
798.8480, 3.693386
799.3301, 3.629444
799.8122, 4.092743
800.2943, 4.487535
800.7764, 4.761316
801.2585, 5.082350
801.7407, 5.621258
802.2228, 5.965860
802.7049, 6.064524
803.1870, 5.884491
803.6691, 5.064651
804.1512, 3.498085
804.6334, 2.620279
805.1155, 4.074995
805.5976, 5.732552
806.0797, 5.259378
806.5618, 3.504364
807.0439, 2.293884
807.5261, 2.159353
808.0082, 2.787323
808.4903, 4.077381
808.9724, 5.668739
809.4545, 5.978136
809.9366, 4.748238
810.4188, 4.045088
810.9009, 4.486988
811.3830, 5.022514
811.8651, 4.809860
812.3472, 4.078390
812.8293, 3.646219
813.3115, 3.559168
813.7936, 3.584911
814.2757, 4.065504
814.7578, 4.396458
815.2399, 3.815115
815.7220, 2.841301
816.2042, 2.666084
816.6863, 3.678513
817.1684, 4.622427
817.6505, 3.773493
818.1326, 4.199635
818.6147, 3.897772
819.0969, 2.851877
819.5790, 2.854248
820.0611, 1.232718
820.5432, 0.2587300
821.0253, 0.2072850
821.5074, 2.234716
821.9896, 3.078892
822.4717, 2.108335
822.9538, 1.409847
823.4359, 1.432304
823.9180, 1.530424
824.4001, 1.211470
824.8823, 0.7570000
825.3644, 0.7964740
825.8465, 1.601889
826.3286, 2.171375
826.8107, 1.847652
827.2928, 1.390814
827.7750, 1.593981
828.2571, 2.093641
828.7392, 1.940201
829.2213, 0.9592670
829.7034, 0.1849230
830.1855, 0.7745460
830.6677, 2.181232
831.1498, 2.858013
831.6319, 2.763235
832.1140, 2.580425
832.5961, 2.452257
833.0782, 2.201784
833.5604, 1.547424
834.0425, 0.7247390
834.5246, 0.3790300
835.0067, 0.6205140
835.4888, 1.101566
835.9709, 2.228342
836.4531, 3.180758
836.9352, 3.384432
837.4173, 3.152517
837.8994, 3.164480
838.3815, 3.567999
838.8636, 3.689043
839.3458, 2.979214
839.8279, 2.025862
840.3100, 1.089006
840.7921, 0.3929310
841.2742, 0.5203270
841.7563, 1.470024
842.2385, 2.422792
842.7206, 2.705164
843.2027, 2.558920
843.6848, 2.753214
844.1669, 3.311375
844.6490, 2.736221
845.1312, 0.3748840
845.6133, 1.304502
846.0954, 0.4283790
846.5775, 1.721519
847.0596, 2.249937
847.5417, 0.2760350
848.0239, 0.5793080
848.5060, 0.4595930
848.9881, 1.627253
849.4702, 2.798038
849.9523, 3.523262
850.4344, 2.924377
850.9166, 1.252621
851.3987, 0.3408370
851.8808, 1.470839
852.3629, 3.053663
852.8450, 4.026222
853.3271, 4.471704
853.8093, 4.387878
854.2914, 3.776516
854.7735, 3.063499
855.2556, 2.439459
855.7377, 2.016171
856.2198, 2.148722
856.7020, 2.795467
857.1841, 2.799995
857.6662, 2.014589
858.1483, 1.276234
858.6304, 0.8166120
859.1125, 0.6819920
859.5947, 1.055622
860.0768, 1.988598
860.5589, 2.498293
861.0410, 2.103149
861.5231, 1.755156
862.0052, 1.538591
862.4874, 1.409529
862.9695, 1.348427
863.4516, 1.347528
863.9337, 1.406464
864.4158, 1.534771
864.8979, 1.667027
865.3801, 1.628601
865.8622, 1.679098
866.3443, 2.491117
866.8264, 3.563150
867.3085, 3.286940
867.7906, 1.413015
868.2728, 2.2125000E-02
868.7549, 1.340740
869.2370, 4.232073
869.7191, 5.429039
870.2012, 4.937685
870.6833, 3.935785
871.1655, 2.457630
871.6476, 1.258860
872.1297, 0.8721410
872.6118, 1.101412
873.0939, 1.490290
873.5760, 2.129356
874.0581, 2.659767
874.5402, 3.038084
875.0223, 3.351137
875.5045, 3.928032
875.9866, 4.240408
876.4687, 3.358818
876.9508, 1.485611
877.4329, 0.5078720
877.9150, 1.959753
878.3972, 3.246822
878.8793, 2.590109
879.3614, 1.377613
879.8435, 1.310658
880.3256, 2.179871
880.8077, 2.827902
881.2899, 2.736879
881.7720, 2.282749
882.2541, 1.540159
882.7362, 0.8261800
883.2183, 1.313429
883.7004, 2.858309
884.1826, 3.757368
884.6647, 3.455933
885.1468, 2.629908
885.6289, 1.858013
886.1110, 1.195749
886.5931, 1.024321
887.0753, 1.682301
887.5574, 1.747967
888.0395, 0.3888450
888.5216, 0.5270810
889.0037, 0.5326400
889.4858, 2.469168
889.9680, 3.458107
890.4501, 3.350830
890.9322, 3.027452
891.4143, 2.485912
891.8964, 1.903126
892.3785, 1.361242
892.8607, 0.8092840
893.3428, 1.4467000E-02
893.8249, 0.9311200
894.3070, 1.228100
894.7891, 0.4399380
895.2712, 0.6514550
895.7534, 1.351446
896.2355, 1.896034
896.7176, 2.860312
897.1997, 4.039106
897.6818, 4.502354
898.1639, 3.914515
898.6461, 2.997381
899.1282, 2.568455
899.6103, 2.496796
900.0924, 2.134010
900.5745, 1.454363
901.0566, 1.137259
901.5388, 1.402430
902.0209, 1.720324
902.5030, 1.730816
902.9851, 1.521683
903.4672, 1.244646
903.9493, 0.9649830
904.4315, 0.9185750
904.9136, 1.459103
905.3957, 1.718153
905.8778, 0.8894540
906.3599, 5.7227999E-02
906.8420, 0.4175510
907.3242, 1.843187
907.8063, 2.852158
908.2884, 2.701351
908.7705, 2.614431
909.2526, 3.754824
909.7347, 4.561186
910.2169, 2.714520
910.6990, 0.3925550
911.1811, 1.201242
911.6632, 1.441095
912.1453, 4.119802
912.6274, 3.320927
913.1096, 1.268518
913.5917, 1.498875
914.0738, 3.295652
914.5559, 4.572153
915.0380, 4.878494
915.5201, 4.751909
916.0023, 4.599922
916.4844, 4.154255
916.9665, 2.304249
917.4486, 0.9213470
917.9307, 1.578791
918.4128, 1.031351
918.8950, 3.064550
919.3771, 2.817188
919.8592, 1.679539
920.3413, 1.357220
920.8234, 1.825605
921.3055, 2.065355
921.7877, 1.900124
922.2698, 1.818218
922.7519, 1.833307
923.2340, 1.985235
923.7161, 2.332174
924.1982, 2.818296
924.6804, 3.501965
925.1625, 4.542139
925.6446, 4.761665
926.1267, 2.937546
926.6088, 1.307341
927.0909, 1.036106
927.5731, 1.523405
928.0552, 2.426523
928.5373, 3.417616
929.0194, 3.691257
929.5015, 2.656271
929.9836, 1.631893
930.4658, 1.852940
930.9479, 2.705200
931.4300, 3.556246
931.9121, 4.223192
932.3942, 4.262293
932.8763, 3.598463
933.3585, 2.847294
933.8406, 2.551388
934.3227, 2.617720
934.8048, 2.962521
935.2869, 3.522034
935.7690, 3.713867
936.2512, 3.455193
936.7333, 2.834688
937.2154, 1.812714
937.6975, 0.7813660
938.1796, 0.4617810
938.6617, 1.0618000E-02
939.1439, 0.3387620
939.6260, 7.4975997E-02
940.1081, 0.2019960
940.5902, 0.6183300
941.0723, 1.697912
941.5544, 2.651224
942.0366, 3.321606
942.5187, 3.029778
943.0008, 0.9330920
943.4829, 5.0485998E-02
943.9650, 1.171032
944.4471, 2.344093
944.9293, 2.562277
945.4114, 2.360107
945.8935, 2.276247
946.3756, 2.322826
946.8577, 2.438381
947.3398, 2.522682
947.8220, 2.497499
948.3041, 2.265083
948.7862, 1.949697
949.2683, 1.610590
949.7504, 1.293587
950.2325, 1.055048
950.7147, 0.9106270
951.1968, 0.8328570
951.6789, 0.6140730
952.1610, 0.5847280
952.6431, 1.560358
953.1252, 2.930531
953.6074, 3.302645
954.0895, 2.679369
954.5716, 2.022614
955.0537, 1.811466
955.5358, 1.951620
956.0179, 2.455603
956.5000, 3.196421
956.9821, 3.717999
957.4642, 4.001841
957.9464, 3.302860
958.4285, 1.323389
958.9106, 0.2216970
959.3927, 7.0039998E-03
959.8748, 1.516392
960.3569, 3.450077
960.8391, 6.205269
961.3212, 6.907230
961.8033, 4.704014
962.2854, 2.863857
962.7675, 2.551155
963.2496, 2.983215
963.7318, 3.599056
964.2139, 4.303501
964.6960, 4.355112
965.1781, 2.766565
965.6602, 2.218161
966.1423, 3.662254
966.6245, 4.959602
967.1066, 5.235132
967.5887, 5.210606
968.0708, 5.343752
968.5529, 5.464510
969.0350, 5.275509
969.5172, 4.632736
969.9993, 4.014469
970.4814, 3.692383
970.9635, 3.368715
971.4456, 2.548515
971.9277, 1.642588
972.4099, 1.499720
972.8920, 2.315834
973.3741, 3.289583
973.8562, 4.251509
974.3383, 4.903442
974.8204, 4.954006
975.3026, 4.527302
975.7847, 3.517035
976.2668, 2.394634
976.7489, 2.105604
977.2310, 3.127573
977.7131, 4.358301
978.1953, 4.915630
978.6774, 4.811008
979.1595, 3.508730
979.6416, 1.610189
980.1237, 1.201746
980.6058, 2.480703
981.0880, 3.603338
981.5701, 3.374294
982.0522, 2.418749
982.5343, 1.535192
983.0164, 0.8257960
983.4985, 1.029987
983.9807, 2.123106
984.4628, 3.043036
984.9449, 3.461781
985.4270, 3.869690
985.9091, 4.776360
986.3912, 5.811037
986.8734, 5.651516
987.3555, 4.055897
987.8376, 3.398127
988.3197, 3.966578
988.8018, 4.706478
989.2839, 5.396185
989.7661, 5.715397
990.2482, 5.179577
990.7303, 3.952969
991.2124, 3.230085
991.6945, 3.137032
992.1766, 3.255640
992.6588, 3.585949
993.1409, 4.111029
993.6230, 5.147388
994.1051, 6.139688
994.5872, 6.325933
995.0693, 5.714481
995.5515, 4.939589
996.0336, 3.220873
996.5157, 2.501116
996.9978, 4.074448
997.4799, 5.546515
997.9620, 5.335209
998.4442, 4.330273
998.9263, 3.865259
999.4084, 4.081619
999.8905, 4.263247
1000.373, 4.025723
1000.855, 4.005590
1001.337, 4.657705
1001.819, 5.404242
1002.301, 6.236687
1002.783, 6.649326
1003.265, 5.327171
1003.747, 2.006706
1004.230, 0.3175180
1004.712, 0.4574850
1005.194, 1.988523
1005.676, 3.161694
1006.158, 3.949640
1006.640, 4.256432
1007.122, 4.204475
1007.604, 4.009064
1008.086, 3.748165
1008.569, 3.675915
1009.051, 4.087931
1009.533, 4.707199
1010.015, 5.469934
1010.497, 6.083454
1010.979, 5.907503
1011.461, 5.037691
1011.943, 3.950672
1012.426, 2.864162
1012.908, 2.448502
1013.390, 4.195402
1013.872, 6.652719
1014.354, 7.045162
1014.836, 5.878109
1015.318, 4.331110
1015.800, 2.792009
1016.282, 2.002094
1016.765, 2.393454
1017.247, 3.365780
1017.729, 4.208652
1018.211, 4.888306
1018.693, 5.307821
1019.175, 5.431974
1019.657, 5.104248
1020.139, 4.321308
1020.622, 3.918068
1021.104, 4.543858
1021.586, 5.209717
1022.068, 3.542561
1022.550, 4.6948999E-02
1023.032, 0.3025420
1023.514, 2.863035
1023.996, 2.974253
1024.478, 1.916962
1024.961, 5.920393
1025.443, 4.555510
1025.925, 0.1992910
1026.407, 1.810114
1026.889, 1.332869
1027.371, 1.335447
1027.853, 1.879141
1028.335, 2.593784
1028.818, 3.460623
1029.300, 4.199873
1029.782, 4.555384
1030.264, 4.682678
1030.746, 5.067739
1031.228, 5.900860
1031.710, 5.684250
1032.192, 3.827982
1032.674, 2.754538
1033.156, 3.585419
1033.639, 4.379658
1034.121, 3.229351
1034.603, 1.105490
1035.085, 1.037571
1035.567, 4.063635
1036.049, 5.072290
1036.531, 2.327736
1037.013, 1.020222
1037.496, 3.862385
1037.978, 6.799763
1038.460, 5.907478
1038.942, 2.725975
1039.424, 2.291122
1039.906, 6.190977
1040.388, 7.993797
1040.870, 5.836407
1041.353, 4.270584
1041.835, 4.932665
1042.317, 6.083834
1042.799, 6.482790
1043.281, 6.297031
1043.763, 6.031754
1044.245, 5.823433
1044.727, 5.139397
1045.209, 3.044744
1045.692, 1.686333
1046.174, 2.215233
1046.656, 3.177975
1047.138, 3.367859
1047.620, 3.080736
1048.102, 3.308372
1048.584, 4.409382
1049.066, 4.949322
1049.548, 4.161280
1050.031, 3.543901
1050.513, 3.736771
1050.995, 4.143429
1051.477, 4.437895
1051.959, 4.517714
1052.441, 4.073565
1052.923, 2.823755
1053.405, 2.282387
1053.888, 3.587353
1054.370, 4.594730
1054.852, 3.860790
1055.334, 3.075550
1055.816, 4.000187
1056.298, 5.939026
1056.780, 7.159048
1057.262, 7.351585
1057.745, 6.902040
1058.227, 5.219215
1058.709, 3.815308
1059.191, 3.351078
1059.673, 3.397318
1060.155, 3.848400
1060.637, 4.423040
1061.119, 4.554098
1061.601, 4.094383
1062.083, 3.774717
1062.566, 4.303898
1063.048, 4.605946
1063.530, 3.619352
1064.012, 2.740889
1064.494, 3.921392
1064.976, 5.894751
1065.458, 5.716284
1065.940, 2.810024
1066.423, 0.5044650
1066.905, 0.1159780
1067.387, 0.5661810
1067.869, 2.000620
1068.351, 3.480305
1068.833, 4.305548
1069.315, 4.543833
1069.797, 4.389381
1070.280, 3.898556
1070.762, 3.271215
1071.244, 1.970734
1071.726, 1.370768
1072.208, 2.895067
1072.690, 4.608469
1073.172, 4.962664
1073.654, 4.377304
1074.136, 3.686922
1074.619, 3.144583
1075.101, 2.420908
1075.583, 0.9663620
1076.065, 8.7481998E-02
1076.547, 0.9120830
1077.029, 2.010384
1077.511, 2.243570
1077.993, 2.024965
1078.475, 2.112623
1078.958, 2.550484
1079.440, 2.786980
1079.922, 2.378275
1080.404, 2.257462
1080.886, 3.353542
1081.368, 4.493940
1081.850, 4.676514
1082.332, 4.213737
1082.814, 3.637329
1083.297, 3.324926
1083.779, 3.142962
1084.261, 2.632462
1084.743, 2.360104
1085.225, 2.769068
1085.707, 3.321072
1086.189, 3.866596
1086.671, 4.217873
1087.154, 4.019541
1087.636, 3.457613
1088.118, 3.149477
1088.600, 3.275362
1089.082, 3.625023
1089.564, 4.548389
1090.046, 5.150398
1090.528, 4.631651
1091.010, 3.790401
1091.493, 3.557909
1091.975, 3.694019
1092.457, 3.603329
1092.939, 3.180214
1093.421, 2.720827
1093.903, 2.133381
1094.385, 1.775105
1094.867, 2.159613
1095.349, 2.520103
1095.832, 1.844145
1096.314, 0.8078690
1096.796, 0.8695220
1097.278, 2.244976
1097.760, 3.341133
1098.242, 3.423679
1098.724, 3.489637
1099.206, 4.227804
1099.689, 4.689369
1100.171, 3.836941
1100.653, 2.510044
1101.135, 2.094372
1101.617, 2.601616
1102.099, 2.612837
1102.581, 0.6954520
1103.063, 0.1580910
1103.546, 3.732666
1104.028, 6.606602
1104.510, 5.349636
1104.992, 2.698895
1105.474, 1.909206
1105.956, 2.702139
1106.438, 2.772015
1106.920, 1.215889
1107.402, 0.3695300
1107.885, 1.013994
1108.367, 1.880842
1108.849, 2.873812
1109.331, 3.587132
1109.813, 3.431259
1110.295, 2.758257
1110.777, 2.605787
1111.259, 3.235661
1111.741, 3.562105
1112.224, 3.238930
1112.706, 2.986504
1113.188, 3.019363
1113.670, 3.099411
1114.152, 3.101290
1114.634, 3.038260
1115.116, 2.917868
1115.598, 2.731169
1116.081, 2.596090
1116.563, 2.307323
1117.045, 2.449932
1117.527, 3.644348
1118.009, 4.455956
1118.491, 3.964745
1118.973, 2.993853
1119.455, 2.546799
1119.938, 2.569128
1120.420, 2.533512
1120.902, 2.427498
1121.384, 2.255419
1121.866, 1.780445
1122.348, 1.831726
1122.830, 3.144218
1123.312, 4.257912
1123.794, 3.685673
1124.276, 1.968750
1124.759, 0.7742060
1125.241, 0.1320170
1125.723, 3.3119000E-02
1126.205, 0.6957360
1126.687, 0.9891910
1127.169, 0.4969920
1127.651, 0.1537760
1128.133, 0.6334250
1128.616, 1.557823
1129.098, 2.160645
1129.580, 2.414328
1130.062, 2.782812
1130.544, 3.357319
1131.026, 2.593758
1131.508, 7.6707996E-02
1131.990, 1.573576
1132.473, 1.041773
1132.955, 0.2559700
1133.437, 0.6750910
1133.919, 0.4805830
1134.401, 0.7538850
1134.883, 1.401079
1135.365, 1.283161
1135.847, 0.3964310
1136.329, 0.1463030
1136.812, 0.9527870
1137.294, 1.636417
1137.776, 1.193354
1138.258, 2.045929
1138.740, 1.200373
1139.222, 2.862846
1139.704, 3.905115
1140.186, 4.333530
1140.668, 4.219280
1141.151, 3.668379
1141.633, 3.176165
1142.115, 2.994247
1142.597, 2.787539
1143.079, 2.035006
1143.561, 1.150581
1144.043, 0.8109860
1144.525, 0.8674070
1145.008, 1.020681
1145.490, 1.276926
1145.972, 1.939219
1146.454, 3.005558
1146.936, 3.714058
1147.418, 3.617439
1147.900, 2.791758
1148.382, 0.4408360
1148.865, 1.844170
1149.347, 2.008474
1149.829, 0.8853820
1150.311, 2.6426001E-02
1150.793, 0.3817330
1151.275, 0.9779890
1151.757, 2.128336
1152.239, 2.908794
1152.721, 2.465685
1153.203, 1.872211
1153.686, 1.369101
1154.168, 1.451527
1154.650, 3.426792
1155.132, 6.116770
1155.614, 6.725525
1156.096, 4.720518
1156.578, 3.035200
1157.060, 2.589537
1157.543, 2.457882
1158.025, 2.299574
1158.507, 2.532501
1158.989, 4.205704
1159.471, 5.958382
1159.953, 5.741175
1160.435, 3.814816
1160.917, 2.553196
1161.400, 2.569210
1161.882, 2.189796
1162.364, 0.6007630
1162.846, 0.1218380
1163.328, 1.329071
1163.810, 2.747011
1164.292, 2.249840
1164.774, 0.8626670
1165.256, 0.7498890
1165.739, 1.980982
1166.221, 3.445251
1166.703, 5.570299
1167.185, 6.144203
1167.667, 4.475958
1168.149, 2.746241
1168.631, 1.925392
1169.113, 1.610111
1169.595, 1.479372
1170.078, 1.476791
1170.560, 1.346418
1171.042, 1.101057
1171.524, 1.310610
1172.006, 1.976267
1172.488, 2.384214
1172.970, 2.353752
1173.452, 2.037888
1173.934, 1.499336
1174.417, 1.117727
1174.899, 1.645697
1175.381, 1.489182
1175.863, 2.749538
1176.345, 2.359325
1176.827, 2.825363
1177.309, 4.023657
1177.791, 4.723736
1178.274, 4.535843
1178.756, 4.081701
1179.238, 3.700928
1179.720, 3.566872
1180.202, 4.300884
1180.684, 5.027149
1181.166, 4.183220
1181.648, 2.766058
1182.130, 2.761808
1182.613, 4.041309
1183.095, 5.021503
1183.577, 5.160110
1184.059, 4.785711
1184.541, 3.651249
1185.023, 2.330606
1185.505, 0.6940290
1185.987, 0.5024090
1186.469, 0.5379620
1186.952, 0.2558920
1187.434, 1.623426
1187.916, 3.404324
1188.398, 4.078373
1188.880, 2.352160
1189.362, 1.321655
1189.844, 1.764879
1190.326, 2.229549
1190.809, 2.024189
1191.291, 1.845201
1191.773, 2.478403
1192.255, 3.481339
1192.737, 3.779623
1193.219, 3.310556
1193.701, 2.796610
1194.183, 2.197344
1194.666, 1.668535
1195.148, 1.153023
1195.630, 1.085701
1196.112, 1.730879
1196.594, 2.656855
1197.076, 3.464806
1197.558, 4.036888
1198.040, 3.792347
1198.522, 4.326536
1199.005, 3.076954
1199.487, 4.175180
1199.969, 4.389605
1200.451, 3.356569
1200.933, 2.444195
1201.415, 2.382431
1201.897, 2.782223
1202.379, 3.494215
1202.861, 4.097473
1203.344, 3.795860
1203.826, 2.983381
1204.308, 2.269438
1204.790, 1.673290
1205.272, 0.9715980
1205.754, 0.1966190
1206.236, 0.1708200
1206.718, 0.1040590
1207.201, 0.3888510
1207.683, 0.1094670
1208.165, 1.4599000E-02
1208.647, 0.6889950
1209.129, 1.561081
1209.611, 1.912357
1210.093, 1.893757
1210.575, 1.942406
1211.057, 2.119106
1211.540, 2.293098
1212.022, 2.445213
1212.504, 2.596951
1212.986, 2.841454
1213.468, 2.978458
1213.950, 3.183952
1214.432, 2.887329
1214.914, 1.025280
1215.396, 1.324142
1215.879, 0.8844640
1216.361, 2.728638
1216.843, 3.793541
1217.325, 1.803623
1217.807, 0.8014410
1218.289, 1.493282
1218.771, 2.255451
1219.253, 2.352299
1219.736, 2.918400
1220.218, 2.768314
1220.700, 3.381615
1221.182, 3.605885
1221.664, 3.488087
1222.146, 3.151196
1222.628, 2.656799
1223.110, 2.116486
1223.593, 1.595646
1224.075, 1.312534
1224.557, 1.356365
1225.039, 1.277134
1225.521, 8.7119997E-02
1226.003, 0.5662630
1226.485, 1.852402
1226.967, 4.591980
1227.449, 4.464127
1227.932, 2.852463
1228.414, 2.113960
1228.896, 2.380428
1229.378, 2.622814
1229.860, 2.675308
1230.342, 2.381557
1230.824, 1.196274
1231.306, 0.3760570
1231.788, 0.4397430
1232.271, 0.8029710
1232.753, 1.283424
1233.235, 1.719162
1233.717, 1.840107
1234.199, 1.718452
1234.681, 1.850285
1235.163, 2.314140
1235.645, 2.695580
1236.128, 3.029072
1236.610, 2.776623
1237.092, 1.905804
1237.574, 1.712040
1238.056, 3.124439
1238.538, 4.684021
1239.020, 4.381268
1239.502, 2.928818
1239.984, 2.080051
1240.467, 1.589485
1240.949, 0.3208920
1241.431, 1.206633
1241.913, 0.7546270
1242.395, 1.661514
1242.877, 3.289543
1243.359, 2.721165
1243.841, 1.652428
1244.323, 1.099487
1244.806, 0.8059960
1245.288, 0.4370120
1245.770, 0.3737530
1246.252, 1.284821
1246.734, 2.565292
1247.216, 3.328232
1247.698, 3.496250
1248.180, 3.562408
1248.662, 3.689014
1249.145, 3.461136
1249.627, 2.392105
1250.109, 1.778679
1250.591, 2.256416
1251.073, 2.392975
1251.555, 1.350613
1252.037, 0.2204360
1252.519, 0.4710770
1253.002, 1.731903
1253.484, 2.197403
1253.966, 1.895908
1254.448, 2.072613
1254.930, 2.733246
1255.412, 3.353344
1255.894, 3.740059
1256.376, 3.003876
1256.859, 0.7914430
1257.341, 1.003695
1257.823, 4.6207000E-02
1258.305, 2.012184
1258.787, 2.417229
1259.269, 2.099995
1259.751, 1.711113
1260.233, 1.716656
1260.715, 3.420643
1261.198, 6.180908
1261.680, 6.950840
1262.162, 4.493217
1262.644, 2.653728
1263.126, 3.183762
1263.608, 3.685890
1264.090, 3.250759
1264.572, 2.734718
1265.054, 2.290218
1265.537, 2.100864
1266.019, 2.590004
1266.501, 3.496483
1266.983, 3.953674
1267.465, 3.947113
1267.947, 3.540634
1268.429, 2.678745
1268.911, 2.040096
1269.394, 1.729374
1269.876, 1.770866
1270.358, 2.175949
1270.840, 2.549206
1271.322, 2.492096
1271.804, 2.393036
1272.286, 2.807137
1272.768, 3.642113
1273.250, 4.265579
1273.733, 4.505089
1274.215, 3.651596
1274.697, 2.269627
1275.179, 2.038792
1275.661, 3.289623
1276.143, 4.544483
1276.625, 5.813030
1277.107, 5.837639
1277.589, 2.549416
1278.072, 8.4949002E-02
1278.554, 0.7986560
1279.036, 2.549503
1279.518, 4.153385
1280.000, 5.281841
1280.482, 5.256676
1280.964, 4.187397
1281.446, 3.308069
1281.929, 2.581860
1282.411, 2.429300
1282.893, 2.902454
1283.375, 3.499374
1283.857, 4.081762
1284.339, 3.718702
1284.821, 1.843971
1285.303, 7.8716002E-02
1285.786, 2.0000000E-02
1286.268, 0.0000000E+00
##END=



