##NAMES=Chloritoid
##RRUFFID=R050334
##IDEAL CHEMISTRY=Fe^2+^Al_2_OSiO_4_(OH)_2_
##LOCALITY=Selçuk, Mugla Province, Turkey
##OWNER=RRUFF
##SOURCE=George Rossman
##DESCRIPTION=Dark greenish-black foliated cleavage fragments
##STATUS=The identification of this mineral is confirmed by single-crystal X-ray diffraction and chemical analysis.
##URL=rruff.info/R050334
##MEASURED CHEMISTRY=(Fe^2+^_1.84_Mg_0.12_Mn_0.04_)_Σ=2_(Al_3.95_Fe^3+^_0.05_)_Σ=4_Si_2.00_O_10_(OH)_4_ ; H not measured but estimated by difference and stoichiometry
103.6121, 0.0000000E+00
104.0942, 0.5747380
104.5764, 2.176682
105.0585, 3.914841
105.5406, 5.962463
106.0227, 7.750259
106.5048, 8.817322
106.9869, 9.294601
107.4691, 8.281860
107.9512, 6.294983
108.4333, 3.827789
108.9154, 1.614311
109.3975, 0.2571720
109.8796, 0.1888580
110.3618, 0.2379150
110.8439, 0.3885190
111.3260, 1.223328
111.8081, 2.224731
112.2902, 3.358627
112.7723, 4.344490
113.2544, 5.299850
113.7366, 6.512825
114.2187, 7.525940
114.7008, 8.546989
115.1829, 9.256004
115.6650, 9.252251
116.1471, 8.487564
116.6293, 7.303047
117.1114, 6.642250
117.5935, 6.998672
118.0756, 6.957100
118.5577, 6.016235
119.0398, 4.582123
119.5220, 3.166847
120.0041, 1.832962
120.4862, 0.8660510
120.9683, 0.5750270
121.4504, 1.113091
121.9325, 2.106979
122.4147, 3.645035
122.8968, 5.895569
123.3789, 7.186180
123.8610, 7.183510
124.3431, 6.604164
124.8252, 5.847733
125.3074, 4.758270
125.7895, 3.725357
126.2716, 3.429344
126.7537, 4.399666
127.2358, 5.142784
127.7179, 5.098152
128.2001, 4.642189
128.6822, 4.293556
129.1643, 4.456238
129.6464, 5.296944
130.1285, 5.846703
130.6107, 5.046837
131.0928, 4.212700
131.5749, 3.835686
132.0570, 3.912361
132.5391, 4.140556
133.0212, 3.747574
133.5034, 2.539223
133.9855, 1.743782
134.4676, 1.493607
134.9497, 1.433342
135.4318, 1.556679
135.9139, 1.861214
136.3960, 2.173058
136.8782, 2.369072
137.3603, 2.416847
137.8424, 2.590630
138.3245, 3.250298
138.8066, 3.920563
139.2887, 4.028824
139.7709, 3.416252
140.2530, 2.460228
140.7351, 1.349197
141.2172, 8.0681004E-02
141.6993, 0.7148280
142.1814, 0.4701920
142.6636, 0.5448300
143.1457, 1.317184
143.6278, 1.580521
144.1099, 1.553276
144.5920, 1.331627
145.0741, 0.9346770
145.5563, 0.6956790
146.0384, 1.056938
146.5205, 2.125458
147.0026, 2.870140
147.4847, 2.662933
147.9668, 2.365540
148.4490, 2.478104
148.9311, 3.094604
149.4132, 3.922318
149.8953, 4.554390
150.3774, 5.034515
150.8595, 5.183250
151.3417, 4.942924
151.8238, 4.465034
152.3059, 3.824493
152.7880, 3.062340
153.2701, 2.225021
153.7522, 1.441048
154.2344, 0.7507020
154.7165, 8.2038999E-02
155.1986, 0.6393200
155.6807, 1.323723
156.1628, 1.879860
156.6449, 2.266800
157.1271, 2.470047
157.6092, 2.394608
158.0913, 1.881828
158.5734, 1.332199
159.0555, 0.7213820
159.5376, 0.1388400
160.0198, 0.1503600
160.5019, 8.1863001E-02
160.9840, 0.6827620
161.4661, 0.8555980
161.9482, 0.6872180
162.4303, 0.4026410
162.9125, 7.2350003E-02
163.3946, 0.2966160
163.8767, 0.5165560
164.3588, 0.2319410
164.8409, 0.1994780
165.3230, 0.1151350
165.8052, 0.9952550
166.2873, 2.301773
166.7694, 2.511482
167.2515, 1.223259
167.7336, 0.1889190
168.2157, 0.5083850
168.6979, 1.531662
169.1800, 2.519432
169.6621, 3.169785
170.1442, 3.581360
170.6263, 4.068695
171.1084, 4.860924
171.5906, 5.331299
172.0727, 5.020096
172.5548, 4.363678
173.0369, 4.015282
173.5190, 4.456131
174.0011, 5.542870
174.4833, 6.063637
174.9654, 5.543175
175.4475, 4.859726
175.9296, 3.890724
176.4117, 2.898804
176.8938, 2.321793
177.3760, 2.544571
177.8581, 3.596962
178.3402, 4.256027
178.8223, 4.139008
179.3044, 4.071480
179.7865, 4.506302
180.2687, 5.281227
180.7508, 5.846420
181.2329, 5.675224
181.7150, 4.664642
182.1971, 4.167343
182.6792, 4.411690
183.1614, 4.888771
183.6435, 5.379562
184.1256, 5.851677
184.6077, 6.310265
185.0898, 6.792778
185.5719, 7.283066
186.0541, 7.509109
186.5362, 7.213547
187.0183, 6.796143
187.5004, 6.640137
187.9825, 6.790253
188.4646, 7.010208
188.9468, 7.031387
189.4289, 6.930977
189.9110, 7.045410
190.3931, 7.598534
190.8752, 8.360252
191.3573, 8.999947
191.8395, 9.499054
192.3216, 9.862419
192.8037, 10.02473
193.2858, 10.06139
193.7679, 10.13155
194.2500, 10.36484
194.7322, 10.68726
195.2143, 10.82308
195.6964, 10.54850
196.1785, 10.45200
196.6606, 11.02448
197.1427, 11.99379
197.6249, 12.75535
198.1070, 12.78706
198.5891, 12.17688
199.0712, 11.88174
199.5533, 12.35011
200.0354, 12.71413
200.5176, 12.55949
200.9997, 12.02126
201.4818, 11.48925
201.9639, 11.29134
202.4460, 11.43320
202.9281, 11.52077
203.4103, 11.23068
203.8924, 11.20583
204.3745, 11.99391
204.8566, 13.26986
205.3387, 14.19962
205.8208, 13.96954
206.3030, 12.38650
206.7851, 11.49481
207.2672, 11.81866
207.7493, 12.25690
208.2314, 12.40781
208.7135, 12.28027
209.1957, 12.07608
209.6778, 11.96726
210.1599, 11.95736
210.6420, 12.03475
211.1241, 12.05299
211.6062, 12.25391
212.0884, 12.86865
212.5705, 13.82686
213.0526, 14.83227
213.5347, 15.74920
214.0168, 16.60147
214.4989, 16.57267
214.9811, 14.90758
215.4632, 13.06482
215.9453, 12.01418
216.4274, 11.80128
216.9095, 11.92483
217.3916, 12.03584
217.8737, 12.08576
218.3559, 11.91566
218.8380, 11.13164
219.3201, 10.35403
219.8022, 10.30325
220.2843, 11.03751
220.7664, 11.64618
221.2486, 11.20384
221.7307, 9.958000
222.2128, 9.028938
222.6949, 8.773842
223.1770, 8.806007
223.6591, 8.710022
224.1413, 8.456345
224.6234, 8.137077
225.1055, 7.732124
225.5876, 7.306648
226.0697, 7.023232
226.5518, 7.205490
227.0340, 7.407959
227.5161, 6.739059
227.9982, 4.833107
228.4803, 3.332359
228.9624, 3.892639
229.4445, 5.287987
229.9267, 5.829918
230.4088, 4.438400
230.8909, 2.243073
231.3730, 1.545532
231.8551, 2.938683
232.3372, 4.354179
232.8194, 5.123314
233.3015, 5.379494
233.7836, 5.137215
234.2657, 4.239891
234.7478, 3.110405
235.2299, 2.791779
235.7121, 3.777222
236.1942, 4.604187
236.6763, 4.685753
237.1584, 4.470970
237.6405, 4.459236
238.1227, 4.887978
238.6048, 5.543495
239.0869, 5.824524
239.5690, 5.278931
240.0511, 5.176582
240.5332, 6.065094
241.0154, 7.306488
241.4975, 8.349960
241.9796, 8.966812
242.4617, 9.138924
242.9438, 8.703819
243.4259, 6.684959
243.9081, 5.652367
244.3902, 6.376266
244.8723, 7.865234
245.3544, 9.251587
245.8365, 10.19464
246.3186, 10.82543
246.8008, 11.44160
247.2829, 11.95486
247.7650, 12.58981
248.2471, 13.71224
248.7292, 14.77460
249.2113, 15.19252
249.6935, 14.78647
250.1756, 13.92797
250.6577, 13.34252
251.1398, 13.32911
251.6219, 13.17258
252.1040, 12.76984
252.5862, 12.28693
253.0683, 11.87440
253.5504, 11.57619
254.0325, 11.32381
254.5146, 10.99831
254.9967, 10.47849
255.4789, 10.13047
255.9610, 10.00928
256.4431, 10.04264
256.9252, 10.24409
257.4073, 10.60163
257.8894, 10.82415
258.3716, 10.43201
258.8537, 8.968956
259.3358, 8.391335
259.8179, 9.322693
260.3000, 10.68081
260.7821, 11.49257
261.2643, 11.65536
261.7464, 11.55152
262.2285, 11.51688
262.7106, 11.52628
263.1927, 11.59911
263.6748, 11.34575
264.1570, 11.37669
264.6391, 12.47913
265.1212, 14.66541
265.6033, 16.86287
266.0854, 18.01614
266.5675, 18.04460
267.0497, 18.17097
267.5318, 18.39888
268.0139, 18.74673
268.4960, 19.23644
268.9781, 19.86665
269.4602, 20.61084
269.9424, 21.45992
270.4245, 22.42083
270.9066, 23.45313
271.3887, 24.64198
271.8708, 25.84197
272.3529, 26.88702
272.8351, 27.79736
273.3172, 28.81537
273.7993, 30.18607
274.2814, 31.75446
274.7635, 33.04803
275.2456, 34.05683
275.7278, 34.78400
276.2099, 34.87364
276.6920, 34.46313
277.1741, 34.72740
277.6562, 36.42952
278.1383, 39.07396
278.6205, 41.54900
279.1026, 44.06997
279.5847, 46.01006
280.0668, 46.48919
280.5489, 45.80231
281.0310, 45.80244
281.5132, 47.62029
281.9953, 49.92688
282.4774, 50.89502
282.9595, 50.41847
283.4416, 49.31735
283.9237, 47.83337
284.4059, 46.05542
284.8880, 44.37299
285.3701, 42.89347
285.8522, 41.57710
286.3343, 40.38435
286.8164, 39.30951
287.2986, 38.26795
287.7807, 37.19849
288.2628, 36.12302
288.7449, 35.10828
289.2270, 34.12483
289.7091, 33.27795
290.1913, 32.64804
290.6734, 32.20712
291.1555, 31.86256
291.6376, 31.63010
292.1197, 31.46174
292.6018, 31.20020
293.0840, 30.75323
293.5661, 30.43237
294.0482, 30.74737
294.5303, 31.30695
295.0124, 31.32737
295.4945, 30.19604
295.9767, 28.51267
296.4588, 27.31242
296.9409, 26.63851
297.4230, 26.30534
297.9051, 26.50650
298.3872, 26.90249
298.8694, 27.10799
299.3515, 27.01642
299.8336, 26.68856
300.3157, 26.21751
300.7978, 25.61476
301.2799, 24.76822
301.7621, 23.26719
302.2442, 21.68584
302.7263, 20.59101
303.2084, 20.13886
303.6905, 19.83839
304.1726, 19.24012
304.6548, 18.34122
305.1369, 17.20660
305.6190, 15.62996
306.1011, 13.98428
306.5832, 12.58978
307.0653, 11.45992
307.5475, 10.34633
308.0296, 8.948891
308.5117, 7.315178
308.9938, 6.003410
309.4759, 5.211388
309.9580, 4.639450
310.4402, 4.125290
310.9223, 3.651093
311.4044, 3.164978
311.8865, 2.658272
312.3686, 2.121208
312.8507, 1.432877
313.3329, 0.3269200
313.8150, 0.4462050
314.2971, 0.1256790
314.7792, 0.7550280
315.2613, 1.133949
315.7434, 0.2278750
316.2256, 1.231041
316.7077, 1.485649
317.1898, 3.4568999E-02
317.6719, 1.134315
318.1540, 0.4081420
318.6361, 1.037529
319.1183, 2.086258
319.6004, 2.441673
320.0825, 2.401421
320.5646, 2.243111
321.0467, 1.933281
321.5288, 1.408325
322.0110, 0.4951170
322.4931, 0.4842150
322.9752, 1.333954
323.4573, 2.045715
323.9394, 2.609909
324.4215, 2.906357
324.9037, 2.988297
325.3858, 3.304169
325.8679, 3.966118
326.3500, 4.682381
326.8321, 5.400604
327.3142, 6.107124
327.7964, 6.566711
328.2785, 6.321205
328.7606, 5.593819
329.2427, 5.537384
329.7248, 6.523499
330.2069, 7.659103
330.6891, 8.640060
331.1712, 9.361877
331.6533, 9.545479
332.1354, 8.759361
332.6175, 7.511230
333.0996, 6.905701
333.5818, 7.149750
334.0639, 7.358589
334.5460, 6.932701
335.0281, 6.275536
335.5102, 5.882713
335.9923, 5.995483
336.4745, 6.135170
336.9566, 5.630333
337.4387, 4.434998
337.9208, 3.407440
338.4029, 2.849915
338.8850, 2.586067
339.3671, 2.491943
339.8492, 2.570732
340.3314, 2.638237
340.8135, 2.385384
341.2956, 1.920952
341.7777, 2.018074
342.2598, 3.151054
342.7419, 4.395569
343.2241, 4.935555
343.7062, 4.880005
344.1883, 4.727539
344.6704, 4.666634
345.1525, 4.681122
345.6346, 4.744484
346.1168, 4.864349
346.5989, 5.002831
347.0810, 5.122322
347.5631, 5.241539
348.0452, 5.424660
348.5273, 5.955856
349.0095, 6.317558
349.4916, 5.672310
349.9737, 3.993935
350.4558, 2.631233
350.9379, 2.318230
351.4200, 2.660728
351.9022, 2.979652
352.3843, 3.246727
352.8664, 3.486649
353.3485, 3.732712
353.8306, 3.968895
354.3127, 4.106743
354.7949, 4.063477
355.2770, 4.013115
355.7591, 4.306671
356.2412, 4.947403
356.7233, 5.238174
357.2054, 4.461372
357.6876, 3.327339
358.1697, 3.079666
358.6518, 3.967758
359.1339, 5.085136
359.6160, 5.654892
360.0981, 5.768829
360.5803, 5.919563
361.0624, 6.243431
361.5445, 6.564812
362.0266, 6.766800
362.5087, 6.845482
362.9908, 6.771339
363.4730, 6.465691
363.9551, 6.030823
364.4372, 5.768089
364.9193, 5.670738
365.4014, 5.732056
365.8835, 6.156128
366.3657, 6.717308
366.8478, 6.949265
367.3299, 6.682617
367.8120, 6.093246
368.2941, 5.370102
368.7762, 4.423569
369.2584, 3.740501
369.7405, 3.731728
370.2226, 3.818871
370.7047, 3.309166
371.1868, 2.155464
371.6689, 1.016525
372.1511, 0.5489350
372.6332, 0.7863920
373.1153, 0.8329700
373.5974, 0.5660170
374.0795, 0.1824870
374.5616, 0.1049650
375.0438, 0.2509770
375.5259, 0.5505140
376.0080, 1.164085
376.4901, 1.991035
376.9722, 2.412178
377.4543, 1.829613
377.9365, 1.497002
378.4186, 1.798241
378.9007, 2.277496
379.3828, 2.369720
379.8649, 1.916588
380.3470, 1.275314
380.8292, 0.9585650
381.3113, 1.041611
381.7934, 1.326874
382.2755, 2.334389
382.7576, 3.076324
383.2397, 2.779327
383.7219, 1.647926
384.2040, 0.4784770
384.6861, 9.8846003E-02
385.1682, 0.1241230
385.6503, 0.1980290
386.1324, 0.3583910
386.6146, 0.5297010
387.0967, 0.6580810
387.5788, 0.8031690
388.0609, 1.098907
388.5430, 1.598404
389.0251, 2.119621
389.5073, 2.234116
389.9894, 1.534821
390.4715, 1.297333
390.9536, 1.922295
391.4357, 2.701210
391.9178, 3.109047
392.4000, 3.155655
392.8821, 3.290306
393.3642, 4.040329
393.8463, 5.436501
394.3284, 6.431496
394.8105, 6.737122
395.2927, 6.954750
395.7748, 7.299187
396.2569, 7.695580
396.7390, 8.030067
397.2211, 8.267693
397.7032, 8.367798
398.1854, 8.141640
398.6675, 7.378098
399.1496, 6.908432
399.6317, 7.303078
400.1138, 7.907234
400.5959, 8.187981
401.0781, 8.060432
401.5602, 7.863472
402.0423, 7.847832
402.5244, 8.014305
403.0065, 8.401886
403.4886, 9.108315
403.9708, 9.908859
404.4529, 10.78446
404.9350, 11.63931
405.4171, 12.18941
405.8992, 12.15808
406.3813, 11.82661
406.8635, 11.63383
407.3456, 11.59533
407.8277, 11.54330
408.3098, 11.31411
408.7919, 11.06107
409.2740, 11.04839
409.7562, 11.32478
410.2383, 11.73462
410.7204, 12.20939
411.2025, 12.74770
411.6846, 13.44724
412.1667, 14.45875
412.6489, 15.28330
413.1310, 15.11052
413.6131, 13.97712
414.0952, 13.07659
414.5773, 12.58456
415.0594, 12.43082
415.5416, 12.93246
416.0237, 13.93513
416.5058, 14.18919
416.9879, 12.57640
417.4700, 9.628807
417.9521, 8.271965
418.4343, 9.643661
418.9164, 10.94530
419.3985, 11.48411
419.8806, 11.47266
420.3627, 11.14449
420.8448, 10.57939
421.3270, 9.907387
421.8091, 9.309647
422.2912, 8.783615
422.7733, 8.368095
423.2554, 8.247078
423.7375, 8.069969
424.2197, 7.448090
424.7018, 6.550735
425.1839, 5.978424
425.6660, 6.223961
426.1481, 7.108437
426.6302, 7.393288
427.1124, 6.233986
427.5945, 5.497253
428.0766, 5.651909
428.5587, 6.204849
429.0408, 6.717773
429.5229, 7.015663
430.0051, 7.120750
430.4872, 7.102333
430.9693, 6.972275
431.4514, 6.610886
431.9335, 5.725464
432.4156, 4.849670
432.8978, 4.070503
433.3799, 3.464592
433.8620, 3.222610
434.3441, 3.688034
434.8262, 4.446556
435.3083, 4.120323
435.7905, 2.204666
436.2726, 0.5052110
436.7547, 0.4256740
437.2368, 0.7795180
437.7189, 0.4932330
438.2010, 0.4918670
438.6832, 1.489105
439.1653, 1.798012
439.6474, 1.545822
440.1295, 1.512810
440.6116, 2.022621
441.0938, 2.494835
441.5759, 2.251205
442.0580, 1.539650
442.5401, 1.079506
443.0222, 0.9942400
443.5043, 1.265373
443.9865, 2.131432
444.4686, 3.486671
444.9507, 4.443436
445.4328, 4.502235
445.9149, 3.987656
446.3970, 3.584892
446.8792, 3.199028
447.3613, 3.137917
447.8434, 3.802994
448.3255, 4.692520
448.8076, 5.044769
449.2897, 4.773262
449.7719, 4.643974
450.2540, 5.493034
450.7361, 7.402290
451.2182, 8.459671
451.7003, 8.324554
452.1824, 7.857292
452.6646, 7.006065
453.1467, 6.111687
453.6288, 5.760986
454.1109, 6.211845
454.5930, 7.104111
455.0751, 7.756142
455.5573, 8.250580
456.0394, 8.298080
456.5215, 7.538521
457.0036, 6.714912
457.4857, 6.011932
457.9678, 5.610451
458.4500, 5.908157
458.9321, 7.421745
459.4142, 9.815926
459.8963, 11.05250
460.3784, 10.43469
460.8605, 9.869469
461.3427, 9.887360
461.8248, 10.18005
462.3069, 10.48994
462.7890, 10.75226
463.2711, 10.95359
463.7532, 10.98073
464.2354, 10.86430
464.7175, 11.11958
465.1996, 12.16358
465.6817, 13.00381
466.1638, 12.54879
466.6459, 11.34254
467.1281, 10.80263
467.6102, 11.94696
468.0923, 13.46014
468.5744, 13.63206
469.0565, 12.63595
469.5386, 12.32407
470.0208, 13.71784
470.5029, 15.79098
470.9850, 16.63327
471.4671, 16.07521
471.9492, 15.62763
472.4313, 15.63119
472.9135, 15.95412
473.3956, 16.49911
473.8777, 17.23808
474.3598, 18.10061
474.8419, 19.02180
475.3240, 20.01747
475.8062, 21.22701
476.2883, 22.88493
476.7704, 24.44601
477.2525, 25.74809
477.7346, 26.91713
478.2167, 28.03004
478.6989, 29.13905
479.1810, 30.36694
479.6631, 31.88510
480.1452, 33.69664
480.6273, 35.74566
481.1094, 38.57838
481.5916, 41.07437
482.0737, 42.59224
482.5558, 43.56439
483.0379, 44.80632
483.5200, 46.75525
484.0021, 48.96004
484.4843, 50.45562
484.9664, 51.01640
485.4485, 51.92334
485.9306, 53.30687
486.4127, 55.25018
486.8948, 58.14957
487.3770, 61.80527
487.8591, 65.13260
488.3412, 67.23522
488.8233, 68.67508
489.3054, 70.54453
489.7875, 72.87751
490.2697, 75.29700
490.7518, 77.71986
491.2339, 80.02653
491.7160, 81.94716
492.1981, 83.18697
492.6802, 84.87457
493.1624, 88.11262
493.6445, 91.84633
494.1266, 94.48166
494.6087, 95.76001
495.0908, 96.31473
495.5729, 96.62210
496.0551, 96.68473
496.5372, 96.81945
497.0193, 96.87312
497.5014, 97.16045
497.9835, 98.37851
498.4656, 99.68104
498.9478, 99.72028
499.4299, 98.10637
499.9120, 95.81786
500.3941, 94.26215
500.8762, 93.58581
501.3583, 93.05302
501.8405, 93.00400
502.3226, 92.79971
502.8047, 92.15079
503.2868, 91.14931
503.7689, 89.97197
504.2510, 88.67984
504.7331, 87.39108
505.2152, 86.37111
505.6974, 85.67860
506.1795, 84.73218
506.6616, 83.52216
507.1437, 81.95054
507.6258, 79.78228
508.1079, 77.09782
508.5901, 74.51925
509.0722, 72.52183
509.5543, 70.73293
510.0364, 68.40694
510.5185, 65.54868
511.0006, 63.16722
511.4828, 61.99844
511.9649, 61.44677
512.4470, 60.29542
512.9291, 58.54085
513.4113, 56.37280
513.8934, 53.34988
514.3755, 50.24187
514.8576, 48.11580
515.3397, 46.89799
515.8218, 45.39768
516.3040, 42.59918
516.7861, 38.78976
517.2682, 36.09525
517.7503, 35.29083
518.2324, 34.68279
518.7145, 34.28551
519.1967, 33.91225
519.6788, 33.39364
520.1609, 32.70400
520.6430, 31.91534
521.1251, 31.00755
521.6072, 29.99394
522.0894, 29.59425
522.5715, 30.42827
523.0536, 30.88106
523.5357, 30.16223
524.0178, 28.92451
524.4999, 27.89874
524.9821, 27.27346
525.4642, 26.79921
525.9463, 26.28207
526.4284, 25.72858
526.9105, 25.09588
527.3926, 24.30479
527.8748, 23.68101
528.3569, 23.72248
528.8390, 24.15916
529.3211, 24.04238
529.8032, 22.92757
530.2853, 21.64313
530.7675, 20.53307
531.2496, 19.59281
531.7317, 18.90060
532.2138, 18.48021
532.6959, 18.02695
533.1780, 17.15495
533.6602, 15.78917
534.1423, 14.44507
534.6244, 12.96466
535.1065, 11.66054
535.5886, 10.67455
536.0707, 9.937317
536.5529, 9.407974
537.0350, 9.064728
537.5171, 8.716064
537.9992, 7.912125
538.4813, 6.415611
538.9634, 5.715721
539.4456, 6.560158
539.9277, 7.480865
540.4098, 7.834801
540.8919, 7.768082
541.3740, 7.572998
541.8561, 7.270447
542.3383, 7.083298
542.8204, 7.496109
543.3025, 8.407547
543.7846, 8.808250
544.2667, 8.363724
544.7488, 7.506027
545.2310, 6.393234
545.7131, 5.099380
546.1952, 4.613701
546.6773, 5.581726
547.1594, 6.941879
547.6415, 8.320854
548.1237, 9.530899
548.6058, 10.09505
549.0879, 9.795792
549.5700, 9.162521
550.0521, 9.098549
550.5342, 9.924217
551.0164, 10.34007
551.4985, 10.21455
551.9806, 9.882843
552.4627, 9.453735
552.9448, 8.931183
553.4269, 8.285034
553.9091, 7.498619
554.3912, 6.605026
554.8733, 5.642502
555.3554, 4.591789
555.8375, 3.558083
556.3196, 2.423111
556.8018, 1.472427
557.2839, 1.022484
557.7660, 0.8851550
558.2481, 0.5297010
558.7302, 0.3565140
559.2123, 1.387375
559.6945, 2.304970
560.1766, 3.060493
560.6587, 3.337074
561.1408, 2.942886
561.6229, 2.363068
562.1050, 2.234436
562.5872, 2.657120
563.0693, 2.813057
563.5514, 2.358604
564.0335, 1.971375
564.5156, 2.203400
564.9977, 2.705238
565.4799, 2.781883
565.9620, 2.162521
566.4441, 1.231194
566.9262, 0.6196060
567.4083, 0.4590760
567.8904, 8.2840003E-02
568.3726, 0.7976300
568.8547, 1.601501
569.3368, 1.829613
569.8189, 1.925522
570.3010, 2.714020
570.7831, 4.609550
571.2653, 6.723717
571.7474, 7.884216
572.2295, 8.237801
572.7116, 8.845818
573.1937, 9.618744
573.6758, 11.28364
574.1580, 14.79971
574.6401, 19.79682
575.1222, 24.84079
575.6043, 29.32381
576.0864, 34.36468
576.5685, 40.08982
577.0507, 46.82211
577.5328, 55.52824
578.0149, 66.33764
578.4970, 77.69210
578.9791, 88.08000
579.4612, 97.52794
579.9434, 105.5035
580.4255, 111.6073
580.9076, 116.6745
581.3897, 120.2277
581.8718, 123.1057
582.3539, 125.7484
582.8361, 128.4888
583.3182, 132.2916
583.8003, 138.6222
584.2824, 147.1272
584.7645, 154.8013
585.2466, 161.1065
585.7288, 168.1340
586.2108, 177.4986
586.6929, 187.9715
587.1750, 197.6317
587.6572, 206.1933
588.1393, 214.6389
588.6214, 223.0731
589.1035, 231.8384
589.5856, 241.2661
590.0677, 251.4174
590.5499, 262.4057
591.0320, 274.5246
591.5141, 287.3355
591.9962, 299.0461
592.4783, 309.9505
592.9604, 319.0914
593.4426, 328.9715
593.9247, 335.0818
594.4068, 334.6798
594.8889, 327.6429
595.3710, 314.7115
595.8531, 296.0369
596.3353, 272.6057
596.8174, 245.2212
597.2995, 212.9432
597.7816, 182.7274
598.2637, 155.5795
598.7458, 131.8076
599.2280, 111.0614
599.7101, 93.37843
600.1922, 78.75350
600.6743, 68.02820
601.1564, 59.67614
601.6385, 52.78739
602.1207, 47.18081
602.6028, 42.40483
603.0849, 38.35513
603.5670, 34.88379
604.0491, 31.81651
604.5313, 29.14859
605.0134, 26.94643
605.4955, 25.47249
605.9776, 24.09332
606.4597, 22.52736
606.9418, 20.98183
607.4240, 19.76524
607.9061, 18.97310
608.3882, 18.35020
608.8703, 17.74587
609.3524, 17.13011
609.8345, 15.92218
610.3167, 13.75622
610.7988, 11.90560
611.2809, 11.13481
611.7630, 11.00365
612.2451, 11.02032
612.7272, 11.23518
613.2094, 11.18929
613.6915, 10.32952
614.1736, 9.285835
614.6557, 8.960541
615.1378, 9.321480
615.6199, 9.651237
616.1021, 9.504417
616.5842, 9.034798
617.0663, 8.766991
617.5484, 9.185852
618.0305, 8.950768
618.5126, 7.597183
618.9948, 6.181252
619.4769, 5.075233
619.9590, 4.379951
620.4411, 4.336823
620.9232, 5.244507
621.4053, 6.358879
621.8875, 6.249420
622.3696, 4.884422
622.8517, 3.757385
623.3338, 3.206596
623.8159, 2.942986
624.2980, 2.786469
624.7802, 2.691650
625.2623, 2.569191
625.7444, 2.253235
626.2265, 2.170700
626.7086, 2.704468
627.1907, 3.450958
627.6729, 3.883408
628.1550, 3.897530
628.6371, 3.551750
629.1192, 2.809616
629.6013, 1.785645
630.0834, 1.466469
630.5656, 2.375908
631.0477, 3.112236
631.5298, 3.536446
632.0119, 3.694748
632.4940, 3.524010
632.9761, 3.088028
633.4583, 2.644379
633.9404, 2.317162
634.4225, 2.097485
634.9046, 2.064255
635.3867, 2.187969
635.8688, 2.081070
636.3510, 1.590218
636.8331, 0.8914150
637.3152, 8.3434999E-02
637.7973, 0.8747180
638.2794, 1.317486
638.7615, 1.033627
639.2437, 0.4539410
639.7258, 0.6534920
640.2079, 1.764633
640.6900, 2.048077
641.1721, 1.371780
641.6542, 0.4892010
642.1364, 0.2005270
642.6185, 0.4607660
643.1006, 0.7136040
643.5827, 0.9741780
644.0648, 1.205482
644.5469, 1.512791
645.0291, 1.693352
645.5112, 1.474728
645.9933, 0.8453250
646.4754, 0.2934150
646.9575, 1.4854000E-02
647.4396, 5.6476999E-02
647.9218, 0.1183890
648.4039, 0.4605980
648.8860, 0.6327670
649.3681, 0.4811970
649.8502, 0.2495380
650.3323, 0.3139650
650.8145, 0.7414550
651.2966, 1.157528
651.7787, 1.803600
652.2608, 2.161373
652.7429, 1.719269
653.2250, 1.059040
653.7072, 1.011982
654.1893, 1.757877
654.6714, 2.551708
655.1535, 2.657558
655.6356, 2.251118
656.1177, 1.950947
656.5999, 1.803707
657.0820, 1.472965
657.5641, 0.6425900
658.0462, 0.3118520
658.5283, 0.6568110
659.0104, 0.3323750
659.4926, 0.1071970
659.9747, 0.8155330
660.4568, 1.400814
660.9389, 1.546288
661.4210, 1.389194
661.9031, 1.241631
662.3853, 1.223713
662.8674, 1.187920
663.3495, 0.8209530
663.8316, 6.9514997E-02
664.3137, 0.1321450
664.7958, 0.4888990
665.2780, 1.163742
665.7601, 1.548744
666.2422, 1.806366
666.7243, 2.173977
667.2064, 2.715485
667.6885, 3.009640
668.1707, 2.603935
668.6528, 2.018841
669.1349, 1.891106
669.6170, 2.158981
670.0991, 2.424606
670.5812, 2.511002
671.0634, 2.433819
671.5455, 2.190285
672.0276, 1.698235
672.5097, 1.360378
672.9918, 1.345215
673.4739, 1.303360
673.9561, 0.9855730
674.4382, 0.6474990
674.9203, 0.6988640
675.4024, 1.239220
675.8845, 1.756828
676.3666, 1.860748
676.8488, 1.639431
677.3309, 1.177349
677.8130, 0.4898870
678.2951, 5.6591000E-02
678.7772, 0.3316920
679.2593, 0.2857590
679.7415, 0.2621690
680.2236, 1.697815
680.7057, 2.401005
681.1878, 1.640484
681.6699, 0.9507600
682.1520, 1.281311
682.6342, 2.035343
683.1163, 2.165745
683.5984, 1.392132
684.0805, 0.5218770
684.5626, 0.5057600
685.0447, 1.170967
685.5269, 1.601715
686.0090, 1.780235
686.4911, 1.753189
686.9732, 1.385662
687.4553, 0.9580040
687.9374, 1.005341
688.4196, 1.596226
688.9017, 2.011868
689.3838, 1.976616
689.8659, 1.901474
690.3480, 2.102207
690.8301, 2.415413
691.3123, 2.507347
691.7944, 2.284912
692.2765, 1.987358
692.7586, 1.859211
693.2407, 1.901840
693.7228, 2.194794
694.2050, 2.949455
694.6871, 3.365574
695.1692, 2.977982
695.6513, 2.188225
696.1334, 1.357800
696.6155, 0.5470050
697.0977, 0.2110820
697.5798, 0.7814250
698.0619, 1.579182
698.5440, 2.345661
699.0261, 2.916805
699.5082, 2.916740
699.9904, 2.277832
700.4725, 1.417099
700.9546, 0.7239720
701.4367, 0.2349820
701.9188, 1.2871000E-02
702.4009, 0.1365050
702.8831, 0.4042510
703.3652, 0.8517760
703.8473, 1.347710
704.3294, 1.892040
704.8115, 2.443474
705.2936, 2.805061
705.7758, 3.175682
706.2579, 3.291695
706.7400, 2.585480
707.2221, 1.549126
707.7042, 1.386101
708.1863, 2.451530
708.6685, 3.550320
709.1506, 3.505077
709.6327, 2.539177
710.1148, 2.395641
710.5969, 3.883347
711.0790, 4.756485
711.5612, 4.000900
712.0433, 3.166653
712.5254, 3.282570
713.0075, 4.164200
713.4896, 5.027054
713.9717, 5.644699
714.4539, 5.937103
714.9360, 5.520668
715.4181, 4.808277
715.9002, 4.843140
716.3823, 5.768242
716.8644, 6.660778
717.3466, 6.778057
717.8287, 6.383846
718.3108, 6.518978
718.7929, 7.651714
719.2750, 8.429871
719.7571, 8.675755
720.2393, 8.637985
720.7214, 8.214745
721.2035, 7.709591
721.6856, 7.718910
722.1677, 8.540924
722.6498, 9.492771
723.1320, 9.981453
723.6141, 10.17176
724.0962, 10.34760
724.5783, 10.50812
725.0604, 10.61564
725.5425, 10.71922
726.0247, 10.78907
726.5068, 10.70230
726.9889, 10.26534
727.4710, 10.28339
727.9531, 11.21707
728.4352, 12.08678
728.9174, 12.54670
729.3995, 12.81026
729.8816, 13.08004
730.3637, 13.42142
730.8458, 13.78337
731.3279, 14.31776
731.8101, 14.77121
732.2922, 14.52278
732.7743, 13.71920
733.2564, 13.36790
733.7385, 13.87584
734.2206, 14.66228
734.7028, 15.03304
735.1849, 14.97985
735.6670, 14.57722
736.1491, 13.12006
736.6312, 12.21758
737.1133, 12.81783
737.5955, 13.62062
738.0776, 13.27882
738.5597, 11.89940
739.0418, 10.78201
739.5239, 10.77114
740.0060, 11.11841
740.4882, 10.87711
740.9703, 10.26458
741.4524, 10.02122
741.9345, 10.29418
742.4166, 10.60638
742.8987, 10.57372
743.3809, 10.23915
743.8630, 9.841072
744.3451, 9.447136
744.8272, 8.855591
745.3093, 7.901970
745.7914, 6.914375
746.2736, 5.938751
746.7557, 5.086548
747.2378, 4.529144
747.7199, 4.317680
748.2020, 4.439919
748.6841, 5.402473
749.1663, 6.470734
749.6484, 6.036842
750.1305, 4.242760
750.6126, 2.928474
751.0947, 3.089645
751.5768, 3.891899
752.0590, 3.765686
752.5411, 2.385094
753.0232, 1.630608
753.5053, 2.008926
753.9874, 2.344009
754.4695, 2.227455
754.9517, 1.920380
755.4338, 1.655052
755.9159, 1.465439
756.3980, 1.435257
756.8801, 1.972374
757.3622, 2.374702
757.8444, 1.622269
758.3265, 0.2438050
758.8086, 0.4206010
759.2907, 5.1018000E-02
759.7728, 0.6384580
760.2549, 1.017342
760.7371, 1.084450
761.2192, 0.6917040
761.7013, 0.6145780
762.1834, 1.132576
762.6655, 0.3644030
763.1476, 1.754150
763.6298, 1.114212
764.1119, 0.7323530
764.5940, 1.386971
765.0761, 0.2981340
765.5582, 1.875420
766.0403, 2.105797
766.5225, 1.647713
767.0046, 1.130875
767.4867, 0.6297150
767.9688, 2.8679000E-02
768.4509, 0.9482350
768.9330, 1.744705
769.4152, 1.609955
769.8973, 0.4902500
770.3794, 5.8906998E-02
770.8615, 0.2215350
771.3436, 0.4474490
771.8257, 0.2006760
772.3079, 0.2861400
772.7900, 0.7267300
773.2721, 1.136551
773.7542, 1.316185
774.2363, 1.075714
774.7184, 0.7755050
775.2006, 0.6200100
775.6827, 0.5022350
776.1648, 0.1282350
776.6469, 0.4463880
777.1290, 0.6412660
777.6111, 0.1845020
778.0933, 1.416229
778.5754, 1.507393
779.0575, 0.5073390
779.5396, 0.1833720
780.0217, 0.2360690
780.5038, 0.1909940
780.9860, 0.5534440
781.4681, 1.145302
781.9502, 1.176048
782.4323, 0.2567670
782.9144, 0.5699540
783.3965, 1.661758
783.8787, 2.250610
784.3608, 1.428307
784.8429, 6.2743999E-02
785.3250, 0.8504940
785.8071, 0.5001980
786.2892, 5.3771999E-02
786.7714, 0.1930770
787.2535, 0.4738390
787.7356, 0.1552730
788.2177, 1.245682
788.6998, 2.253136
789.1819, 2.398994
789.6641, 2.039955
790.1462, 1.501389
790.6283, 0.7870860
791.1104, 0.8022380
791.5925, 2.172913
792.0746, 3.214890
792.5568, 3.673119
793.0389, 3.693756
793.5210, 3.089081
794.0031, 2.105293
794.4852, 1.520576
794.9673, 1.699394
795.4495, 2.052658
795.9316, 2.340599
796.4137, 2.515076
796.8958, 2.360725
797.3779, 2.000366
797.8600, 1.982422
798.3422, 2.601257
798.8243, 3.450340
799.3064, 3.881340
799.7885, 3.886261
800.2706, 3.728142
800.7527, 3.370926
801.2349, 2.943726
801.7170, 2.334084
802.1991, 1.825890
802.6812, 1.940033
803.1633, 2.678307
803.6454, 3.151794
804.1276, 3.095016
804.6097, 2.985901
805.0918, 3.027924
805.5739, 3.083740
806.0560, 3.008377
806.5381, 2.796799
807.0203, 2.486015
807.5024, 2.035286
807.9845, 1.689705
808.4666, 1.896805
808.9487, 2.511147
809.4308, 2.996643
809.9130, 3.291840
810.3951, 3.356468
810.8772, 3.101639
811.3593, 2.765259
811.8414, 2.886421
812.3235, 3.728149
812.8057, 4.034271
813.2878, 3.373123
813.7699, 2.704300
814.2520, 2.124069
814.7341, 1.761223
815.2162, 1.818001
815.6984, 2.269180
816.1805, 2.735306
816.6626, 3.102715
817.1447, 3.388336
817.6268, 3.463844
818.1089, 3.457161
818.5911, 3.629257
819.0732, 3.984543
819.5553, 4.240189
820.0374, 4.244278
820.5195, 4.281372
821.0016, 4.658890
821.4838, 5.384506
821.9659, 6.170105
822.4480, 7.153954
822.9301, 7.835175
823.4122, 7.503288
823.8943, 6.854568
824.3765, 7.276344
824.8586, 9.129517
825.3407, 10.13902
825.8228, 9.228806
826.3049, 8.610664
826.7870, 9.439514
827.2692, 10.74850
827.7513, 11.44818
828.2334, 11.49694
828.7155, 11.65311
829.1976, 12.41384
829.6797, 13.37882
830.1619, 14.10194
830.6440, 14.63952
831.1261, 15.16888
831.6082, 15.70728
832.0903, 16.14223
832.5724, 16.39461
833.0546, 16.60191
833.5367, 17.06837
834.0188, 17.86185
834.5009, 18.40305
834.9830, 18.61662
835.4651, 18.82217
835.9473, 18.89671
836.4294, 19.11433
836.9115, 19.95541
837.3936, 21.35206
837.8757, 22.25191
838.3578, 22.12656
838.8400, 21.92735
839.3221, 22.06147
839.8042, 22.27152
840.2863, 22.34917
840.7684, 22.24070
841.2505, 21.97722
841.7327, 21.55939
842.2148, 21.14356
842.6969, 20.99526
843.1790, 20.94521
843.6611, 20.53740
844.1432, 19.79744
844.6254, 19.48215
845.1075, 20.01585
845.5896, 20.62522
846.0717, 20.24581
846.5538, 18.86708
847.0359, 17.90997
847.5181, 17.58800
848.0002, 17.27996
848.4823, 16.78484
848.9644, 16.34244
849.4465, 16.23120
849.9286, 16.30325
850.4108, 16.06994
850.8929, 15.19476
851.3750, 14.60072
851.8571, 15.00141
852.3392, 15.46776
852.8214, 15.03875
853.3035, 14.12305
853.7856, 13.63754
854.2677, 13.86604
854.7498, 14.40146
855.2319, 15.09357
855.7141, 15.69597
856.1962, 15.46062
856.6783, 14.52793
857.1604, 13.91341
857.6425, 13.88078
858.1246, 13.95584
858.6068, 13.66154
859.0889, 13.26802
859.5710, 13.93205
860.0531, 16.43974
860.5352, 17.89314
861.0173, 17.34472
861.4995, 16.84386
861.9816, 17.60385
862.4637, 18.78246
862.9458, 19.03510
863.4279, 18.16912
863.9100, 18.21359
864.3922, 20.60757
864.8743, 22.98082
865.3564, 23.94442
865.8385, 24.26766
866.3206, 24.88934
866.8027, 25.86673
867.2849, 26.70086
867.7670, 27.08033
868.2491, 27.42887
868.7312, 28.29588
869.2133, 29.52362
869.6954, 30.70909
870.1776, 31.82925
870.6597, 32.96822
871.1418, 34.16923
871.6239, 35.39584
872.1060, 36.60265
872.5881, 37.78456
873.0703, 38.98807
873.5524, 40.38729
874.0345, 41.35342
874.5166, 41.30400
874.9987, 41.29126
875.4808, 42.54942
875.9630, 44.52668
876.4451, 45.52985
876.9272, 45.05064
877.4093, 44.50719
877.8914, 44.01198
878.3735, 43.65017
878.8557, 43.58337
879.3378, 43.61959
879.8199, 43.56668
880.3020, 43.33897
880.7841, 42.69778
881.2662, 41.10898
881.7484, 39.36856
882.2305, 38.64623
882.7126, 38.50538
883.1947, 38.01363
883.6768, 36.98261
884.1589, 35.31338
884.6411, 32.87401
885.1232, 30.23031
885.6053, 28.64627
886.0874, 28.15723
886.5695, 27.25328
887.0516, 25.82534
887.5338, 24.32018
888.0159, 22.88121
888.4980, 21.48827
888.9801, 20.07788
889.4622, 18.64915
889.9443, 17.52689
890.4265, 17.06536
890.9086, 16.39822
891.3907, 15.12870
891.8728, 13.93993
892.3549, 13.39294
892.8370, 13.19582
893.3192, 12.76656
893.8013, 11.96963
894.2834, 10.99538
894.7655, 9.539734
895.2476, 8.321556
895.7297, 8.238014
896.2119, 8.699753
896.6940, 8.634628
897.1761, 7.909515
897.6582, 7.196129
898.1403, 6.972336
898.6224, 6.966400
899.1046, 6.853256
899.5867, 6.576004
900.0688, 5.608597
900.5509, 3.941322
901.0330, 3.113831
901.5151, 3.961411
901.9973, 5.379883
902.4794, 5.715027
902.9615, 4.965355
903.4436, 4.522461
903.9257, 4.579239
904.4078, 4.412529
904.8900, 3.639275
905.3721, 2.903297
905.8542, 2.752739
906.3363, 3.027939
906.8184, 3.266762
907.3005, 3.570511
907.7827, 3.569046
908.2648, 2.900253
908.7469, 2.272087
909.2290, 2.156822
909.7111, 2.202957
910.1932, 1.903008
910.6754, 1.244408
911.1575, 0.6551210
911.6396, 0.1544110
912.1217, 8.1984997E-02
912.6038, 1.345268
913.0859, 2.839340
913.5681, 2.655006
914.0502, 1.137650
914.5323, 9.6313000E-02
915.0144, 0.3294220
915.4965, 1.157555
915.9786, 2.046524
916.4607, 2.841827
916.9428, 2.813873
917.4249, 2.038963
917.9070, 1.613953
918.3892, 1.835274
918.8713, 2.139633
919.3534, 2.065048
919.8355, 2.123688
920.3176, 2.016060
920.7997, 1.621689
921.2819, 1.412491
921.7640, 0.6976170
922.2461, 9.8961003E-02
922.7282, 0.1030040
923.2103, 9.9632002E-02
923.6924, 2.4344999E-02
924.1746, 0.1079940
924.6567, 5.6511000E-02
925.1388, 1.027649
925.6209, 1.581314
926.1030, 1.227783
926.5851, 0.7046130
927.0673, 0.3572770
927.5494, 0.1956560
928.0315, 0.2097320
928.5136, 0.4032210
928.9957, 0.5162660
929.4778, 0.4535830
929.9600, 0.2853390
930.4421, 4.6967000E-02
930.9242, 0.4084240
931.4063, 0.4817960
931.8884, 0.3381500
932.3705, 0.5334780
932.8527, 1.451279
933.3348, 2.258377
933.8169, 1.461113
934.2990, 0.2046970
934.7811, 0.6100620
935.2632, 0.1806030
935.7454, 1.091774
936.2275, 1.777588
936.7096, 2.128838
937.1917, 1.912331
937.6738, 1.332436
938.1559, 1.426514
938.6381, 2.328400
939.1202, 2.796082
939.6023, 2.566666
940.0844, 2.372002
940.5665, 2.648720
941.0486, 3.076126
941.5308, 3.131256
942.0129, 2.792824
942.4950, 2.562622
942.9771, 2.485825
943.4592, 2.369888
943.9413, 1.983467
944.4235, 1.743935
944.9056, 2.030441
945.3877, 2.629730
945.8698, 3.079689
946.3519, 3.308098
946.8340, 3.421013
947.3162, 3.188156
947.7983, 3.144798
948.2804, 3.920448
948.7625, 4.805466
949.2446, 4.950333
949.7267, 4.385635
950.2089, 3.649185
950.6910, 2.869125
951.1731, 2.351723
951.6552, 2.519585
952.1373, 2.948261
952.6194, 3.018867
953.1016, 2.916687
953.5837, 3.292137
954.0658, 4.249294
954.5479, 5.114265
955.0300, 5.342949
955.5121, 5.129478
955.9943, 4.725533
956.4764, 4.189495
956.9585, 3.701389
957.4406, 3.294567
957.9227, 3.180149
958.4048, 3.471394
958.8870, 3.867836
959.3691, 3.943199
959.8512, 4.160030
960.3333, 4.370895
960.8154, 4.316727
961.2975, 4.576324
961.7797, 4.529991
962.2618, 4.311413
962.7439, 3.960381
963.2260, 3.548485
963.7081, 3.210056
964.1902, 2.914078
964.6724, 2.875477
965.1545, 3.463043
965.6366, 3.691559
966.1187, 3.082821
966.6008, 2.286709
967.0829, 1.652779
967.5651, 1.216190
968.0472, 1.130692
968.5293, 1.629025
969.0114, 1.887928
969.4935, 1.550018
969.9756, 1.234009
970.4578, 1.358307
970.9399, 1.542198
971.4220, 1.201237
971.9041, 0.4654850
972.3862, 0.1877900
972.8683, 0.9457630
973.3505, 1.601044
973.8326, 1.382366
974.3147, 0.9566540
974.7968, 1.051788
975.2789, 1.311455
975.7610, 0.8821750
976.2432, 0.2916760
976.7253, 1.256641
977.2074, 1.368450
977.6895, 1.043148
978.1716, 0.5870590
978.6537, 7.5161003E-02
979.1359, 0.4089660
979.6180, 0.8425330
980.1001, 1.138233
980.5822, 1.295658
981.0643, 1.382481
981.5464, 1.492928
982.0286, 1.519070
982.5107, 1.003483
982.9928, 0.1110190
983.4749, 8.9065999E-02
983.9570, 0.5441970
984.4391, 1.158386
984.9213, 1.307232
985.4034, 1.090004
985.8855, 0.5643840
986.3676, 0.2062720
986.8497, 0.5701560
987.3318, 0.4935490
987.8140, 0.3390580
988.2961, 0.1921540
988.7782, 0.1398510
989.2603, 0.8916850
989.7424, 1.742958
990.2245, 2.020290
990.7067, 1.650997
991.1888, 1.374222
991.6709, 1.216564
992.1530, 1.082909
992.6351, 0.9997140
993.1172, 0.8669320
993.5994, 0.4400830
994.0815, 0.1014860
994.5636, 0.1598170
995.0457, 0.4684830
995.5278, 1.075390
996.0099, 1.991535
996.4921, 2.458862
996.9742, 1.931438
997.4563, 1.174664
997.9384, 0.8463360
998.4205, 0.8394240
998.9026, 0.6629370
999.3848, 8.7620001E-03
999.8669, 0.1566280
1000.349, 1.054569
1000.831, 2.086548
1001.313, 2.092377
1001.795, 1.612007
1002.277, 1.109776
1002.760, 0.7131080
1003.242, 0.5835420
1003.724, 0.7687530
1004.206, 1.246044
1004.688, 2.647198
1005.170, 3.700775
1005.652, 3.032341
1006.134, 1.568935
1006.617, 0.6708830
1007.099, 0.5465470
1007.581, 0.7494240
1008.063, 1.205112
1008.545, 1.549965
1009.027, 1.384434
1009.509, 1.024742
1009.991, 0.7466890
1010.473, 0.6097950
1010.956, 0.7170980
1011.438, 1.067364
1011.920, 1.548088
1012.402, 2.110077
1012.884, 2.468517
1013.366, 2.174320
1013.848, 1.625671
1014.330, 1.622150
1014.813, 2.084713
1015.295, 2.601303
1015.777, 2.995697
1016.259, 3.091469
1016.741, 2.663235
1017.223, 1.997395
1017.705, 1.562241
1018.187, 1.345253
1018.669, 1.345234
1019.152, 1.549099
1019.634, 1.970661
1020.116, 2.604240
1020.598, 2.970085
1021.080, 2.410099
1021.562, 1.375305
1022.044, 1.711239
1022.526, 3.224636
1023.008, 3.366844
1023.491, 1.884575
1023.973, 0.8306540
1024.455, 1.097775
1024.937, 1.754185
1025.419, 1.712769
1025.901, 1.174664
1026.383, 1.112049
1026.865, 1.563507
1027.348, 1.862484
1027.830, 1.934502
1028.312, 1.933235
1028.794, 1.937092
1029.276, 1.781326
1029.758, 1.147812
1030.240, 0.1711160
1030.722, 0.1033250
1031.204, 1.182034
1031.687, 2.070610
1032.169, 2.643871
1032.651, 3.030319
1033.133, 3.300331
1033.615, 3.383499
1034.097, 3.122181
1034.579, 2.514271
1035.061, 1.922581
1035.544, 1.394627
1036.026, 0.8262020
1036.508, 5.0560001E-02
1036.990, 0.4765130
1037.472, 3.5641000E-02
1037.954, 1.025990
1038.436, 2.052784
1038.918, 3.092556
1039.401, 3.433453
1039.883, 2.569660
1040.365, 1.952785
1040.847, 1.830421
1041.329, 1.710171
1041.811, 1.287769
1042.293, 0.8392980
1042.775, 0.7280350
1043.257, 0.9522360
1043.740, 1.413120
1044.222, 2.619869
1044.704, 3.213093
1045.186, 2.864532
1045.668, 2.241409
1046.150, 1.225346
1046.632, 0.3568880
1047.114, 0.4331400
1047.596, 1.374104
1048.079, 2.011478
1048.561, 2.098869
1049.043, 2.101128
1049.525, 2.225243
1050.007, 2.090397
1050.489, 1.076611
1050.971, 1.2234000E-02
1051.453, 6.6738002E-02
1051.936, 0.8056720
1052.418, 1.379082
1052.900, 1.327976
1053.382, 1.245762
1053.864, 1.117126
1054.346, 1.127190
1054.828, 1.566650
1055.310, 2.068340
1055.792, 2.089680
1056.275, 1.708576
1056.757, 1.626911
1057.239, 2.237411
1057.721, 2.612103
1058.203, 2.105736
1058.685, 1.791607
1059.167, 2.812199
1059.649, 3.995998
1060.131, 3.681202
1060.614, 2.137337
1061.096, 1.244785
1061.578, 1.745914
1062.060, 2.303028
1062.542, 2.620720
1063.024, 2.686275
1063.506, 2.346733
1063.988, 1.849491
1064.471, 1.443027
1064.953, 1.137802
1065.435, 0.8295630
1065.917, 0.4375110
1066.399, 0.2048760
1066.881, 0.2660450
1067.363, 0.4737170
1067.845, 1.061508
1068.328, 1.508781
1068.810, 0.8410340
1069.292, 0.4463620
1069.774, 0.5767400
1070.256, 1.202763
1070.738, 2.605183
1071.220, 2.431072
1071.702, 1.846043
1072.184, 0.9749570
1072.667, 0.4640880
1073.149, 1.551796
1073.631, 3.459915
1074.113, 3.931355
1074.595, 2.240971
1075.077, 0.8031620
1075.559, 0.8542250
1076.041, 1.273582
1076.523, 1.905224
1077.006, 2.211205
1077.488, 1.240185
1077.970, 0.3424450
1078.452, 1.015823
1078.934, 0.4204140
1079.416, 0.4361880
1079.898, 1.580902
1080.380, 2.281857
1080.862, 1.687405
1081.345, 0.9116900
1081.827, 1.111290
1082.309, 1.836781
1082.791, 1.954147
1083.273, 1.310513
1083.755, 1.100899
1084.237, 2.592346
1084.719, 3.561127
1085.202, 1.999119
1085.684, 0.4079970
1086.166, 1.413452
1086.648, 3.455605
1087.130, 3.786423
1087.612, 2.218365
1088.094, 0.8856350
1088.576, 0.5561600
1089.058, 0.7532390
1089.541, 1.684444
1090.023, 2.557423
1090.505, 2.850639
1090.987, 2.725525
1091.469, 2.226219
1091.951, 1.518234
1092.433, 1.455830
1092.915, 2.611794
1093.397, 3.450768
1093.880, 3.167957
1094.362, 2.607555
1094.844, 2.056095
1095.326, 1.719021
1095.808, 1.926521
1096.290, 2.418762
1096.772, 2.378883
1097.254, 1.449242
1097.737, 0.8296970
1098.219, 0.9995460
1098.701, 1.458576
1099.183, 2.315029
1099.665, 3.076653
1100.147, 3.387932
1100.629, 3.243797
1101.111, 2.482815
1101.594, 0.9726220
1102.076, 0.3247720
1102.558, 1.948006
1103.040, 3.134270
1103.522, 2.475693
1104.004, 1.609943
1104.486, 1.909924
1104.968, 2.681999
1105.450, 2.535107
1105.932, 1.376720
1106.415, 0.8754960
1106.897, 1.733727
1107.379, 2.460312
1107.861, 2.827610
1108.343, 3.074593
1108.825, 3.329914
1109.307, 3.509304
1109.789, 3.432205
1110.272, 3.139988
1110.754, 3.070759
1111.236, 3.614765
1111.718, 3.683880
1112.200, 2.514275
1112.682, 1.712219
1113.164, 2.403423
1113.646, 3.205837
1114.129, 2.547390
1114.611, 0.9788590
1115.093, 0.4948120
1115.575, 1.689964
1116.057, 2.180706
1116.539, 1.470600
1117.021, 0.8004570
1117.503, 0.1819840
1117.985, 4.3063998E-02
1118.468, 0.6853410
1118.950, 1.737469
1119.432, 1.929005
1119.914, 1.149170
1120.396, 0.8993640
1120.878, 1.555325
1121.360, 1.925713
1121.842, 1.771557
1122.324, 1.516964
1122.807, 1.174751
1123.289, 0.9759560
1123.771, 1.277733
1124.253, 1.973145
1124.735, 2.060329
1125.217, 1.110329
1125.699, 1.172699
1126.181, 2.701466
1126.664, 4.189587
1127.146, 5.312016
1127.628, 5.525761
1128.110, 4.045902
1128.592, 1.667873
1129.074, 1.016808
1129.556, 2.319321
1130.038, 2.879093
1130.521, 2.561279
1131.003, 2.513248
1131.485, 3.059368
1131.967, 3.395294
1132.449, 2.975277
1132.931, 2.160545
1133.413, 1.493279
1133.895, 0.9907260
1134.377, 0.7505870
1134.859, 0.7681500
1135.342, 0.9844550
1135.824, 1.354744
1136.306, 1.492374
1136.788, 1.308681
1137.270, 1.102295
1137.752, 1.191952
1138.234, 1.042805
1138.716, 1.297363
1139.199, 0.9532390
1139.681, 0.7433510
1140.163, 0.7248840
1140.645, 1.206554
1141.127, 2.183475
1141.609, 2.825039
1142.091, 2.532757
1142.573, 1.837494
1143.056, 1.342651
1143.538, 1.054195
1144.020, 1.054306
1144.502, 1.278454
1144.984, 1.682648
1145.466, 2.166691
1145.948, 2.453701
1146.430, 2.423504
1146.912, 2.047234
1147.395, 0.9296040
1147.877, 0.1270450
1148.359, 3.8573999E-02
1148.841, 0.5012660
1149.323, 0.4953230
1149.805, 8.3511002E-02
1150.287, 0.1118660
1150.769, 1.240696
1151.251, 2.352776
1151.734, 3.099945
1152.216, 3.321007
1152.698, 2.474339
1153.180, 1.504211
1153.662, 1.280281
1154.144, 1.357815
1154.626, 0.9189190
1155.108, 0.1924860
1155.591, 0.3111420
1156.073, 1.789013
1156.555, 2.731659
1157.037, 2.015053
1157.519, 1.241413
1158.001, 1.073135
1158.483, 1.087250
1158.965, 0.9679830
1159.448, 0.7835120
1159.930, 0.6426280
1160.412, 0.5670970
1160.894, 0.7042500
1161.376, 1.316338
1161.858, 1.753170
1162.340, 2.278229
1162.822, 2.196842
1163.304, 0.5914540
1163.786, 1.050713
1164.269, 1.129116
1164.751, 8.6056001E-02
1165.233, 0.4373740
1165.715, 0.2679330
1166.197, 0.3711430
1166.679, 0.9409330
1167.161, 1.178886
1167.643, 0.7061420
1168.126, 0.5165900
1168.608, 1.321087
1169.090, 2.469410
1169.572, 3.037983
1170.054, 3.043148
1170.536, 2.514446
1171.018, 1.407585
1171.500, 0.7910160
1171.983, 0.7626570
1172.465, 0.9185070
1172.947, 1.120152
1173.429, 1.559105
1173.911, 2.490887
1174.393, 3.278595
1174.875, 2.274441
1175.357, 0.1498260
1175.839, 0.4041180
1176.322, 0.3214760
1176.804, 0.9991490
1177.286, 1.359676
1177.768, 1.457329
1178.250, 1.321823
1178.732, 0.9820370
1179.214, 9.0786003E-02
1179.696, 0.4879530
1180.178, 1.014019
1180.661, 3.183521
1181.143, 3.755589
1181.625, 3.159321
1182.107, 2.656879
1182.589, 2.522655
1183.071, 2.464310
1183.553, 2.400116
1184.035, 2.192970
1184.518, 1.396259
1185.000, 0.8385960
1185.482, 1.203907
1185.964, 2.031548
1186.446, 3.199123
1186.928, 4.292099
1187.410, 4.398830
1187.892, 3.338894
1188.375, 2.530682
1188.857, 2.447685
1189.339, 2.439297
1189.821, 2.588169
1190.303, 2.560055
1190.785, 1.703194
1191.267, 0.8851550
1191.749, 1.370773
1192.231, 2.732773
1192.714, 3.184200
1193.196, 2.458107
1193.678, 1.821175
1194.160, 1.161148
1194.642, 0.9426690
1195.124, 1.417160
1195.606, 1.861340
1196.088, 1.818977
1196.570, 1.650257
1197.053, 1.876484
1197.535, 2.406963
1198.017, 2.823376
1198.499, 3.127033
1198.981, 3.269688
1199.463, 3.243530
1199.945, 2.978344
1200.427, 2.468262
1200.910, 2.049690
1201.392, 1.957878
1201.874, 2.016720
1202.356, 1.990170
1202.838, 1.920715
1203.320, 1.803741
1203.802, 1.755535
1204.284, 2.229534
1204.766, 3.020760
1205.249, 3.293118
1205.731, 2.795311
1206.213, 2.331749
1206.695, 2.400608
1207.177, 2.575214
1207.659, 2.490517
1208.141, 2.304047
1208.623, 2.063770
1209.105, 1.843597
1209.588, 1.762867
1210.070, 1.785156
1210.552, 1.750534
1211.034, 1.604015
1211.516, 1.627831
1211.998, 2.077679
1212.480, 2.425709
1212.962, 2.470387
1213.445, 2.469307
1213.927, 2.380459
1214.409, 2.468140
1214.891, 3.221718
1215.373, 4.395802
1215.855, 4.845287
1216.337, 4.393959
1216.819, 3.864796
1217.302, 3.201660
1217.784, 2.730892
1218.266, 2.560398
1218.748, 2.429771
1219.230, 2.226948
1219.712, 1.782818
1220.194, 0.7114410
1220.676, 0.5337220
1221.158, 0.2029270
1221.641, 1.256496
1222.123, 1.717731
1222.605, 1.355621
1223.087, 1.561077
1223.569, 2.538227
1224.051, 3.064278
1224.533, 2.435333
1225.015, 1.596684
1225.497, 1.608715
1225.980, 1.816154
1226.462, 1.122593
1226.944, 0.4084890
1227.426, 1.148697
1227.908, 2.684658
1228.390, 3.613430
1228.872, 3.683048
1229.354, 3.249344
1229.837, 2.165066
1230.319, 1.325718
1230.801, 1.131252
1231.283, 1.080177
1231.765, 1.167702
1232.247, 1.230854
1232.729, 1.004627
1233.211, 0.7160340
1233.693, 0.9664460
1234.176, 1.696354
1234.658, 2.325947
1235.140, 2.961452
1235.622, 3.113598
1236.104, 2.555920
1236.586, 2.301605
1237.068, 2.733738
1237.550, 3.110172
1238.032, 2.898628
1238.515, 2.288189
1238.997, 1.426086
1239.479, 0.5326120
1239.961, 0.6211010
1240.443, 1.464893
1240.925, 2.179852
1241.407, 2.624535
1241.889, 2.551796
1242.372, 1.974350
1242.854, 1.470337
1243.336, 1.412632
1243.818, 1.438087
1244.300, 1.101883
1244.782, 0.7948610
1245.264, 1.053150
1245.746, 1.438854
1246.229, 1.484741
1246.711, 1.203674
1247.193, 0.5425000
1247.675, 0.4064830
1248.157, 0.7904050
1248.639, 0.2912060
1249.121, 0.5652500
1249.603, 2.515118
1250.085, 3.652023
1250.568, 2.731953
1251.050, 1.645363
1251.532, 1.756325
1252.014, 1.172825
1252.496, 0.9272730
1252.978, 1.101543
1253.460, 0.7537120
1253.942, 0.9826970
1254.424, 1.215187
1254.907, 1.275146
1255.389, 1.082920
1255.871, 0.6254200
1256.353, 0.3682250
1256.835, 0.6001400
1257.317, 1.200809
1257.799, 2.270863
1258.281, 3.297268
1258.764, 3.166142
1259.246, 2.431732
1259.728, 1.938683
1260.210, 1.753559
1260.692, 2.038784
1261.174, 2.595051
1261.656, 2.424446
1262.138, 0.9019050
1262.620, 0.1088790
1263.103, 0.7060620
1263.585, 1.604519
1264.067, 2.002773
1264.549, 2.004425
1265.031, 1.301170
1265.513, 0.5208700
1265.995, 0.5761760
1266.477, 1.345165
1266.959, 2.106789
1267.442, 2.697563
1267.924, 2.943310
1268.406, 2.678947
1268.888, 2.186863
1269.370, 1.470322
1269.852, 1.120422
1270.334, 1.484566
1270.816, 1.926270
1271.299, 1.714176
1271.781, 1.101482
1272.263, 0.5290260
1272.745, 5.2196998E-02
1273.227, 0.1173710
1273.709, 2.2491001E-02
1274.191, 0.2464790
1274.673, 0.5170480
1275.156, 1.102093
1275.638, 1.884331
1276.120, 2.170513
1276.602, 1.266731
1277.084, 0.5006560
1277.566, 0.6069070
1278.048, 0.8772200
1278.530, 0.8049350
1279.012, 0.7754290
1279.495, 1.343952
1279.977, 1.978424
1280.459, 2.232372
1280.941, 2.188049
1281.423, 1.621876
1281.905, 1.669403
1282.387, 1.573833
1282.869, 0.8607600
1283.351, 1.377079
1283.834, 0.6027830
1284.316, 1.2341000E-02
1284.798, 0.6050530
1285.280, 1.439285
1285.762, 1.213329
1286.244, 0.0000000E+00
##END=



