##NAMES=Clinophosinaite
##RRUFFID=R070202
##IDEAL CHEMISTRY=Na_3_Ca(SiO_3_)(PO_4_)
##LOCALITY=Tsentrainly mine, Rasvumchorr Mt, Khibiny Massif, Kola Peninsula, Murmanskaja Oblast', Northern Region, Russia
##OWNER=RRUFF
##SOURCE=Michael Scott
##DESCRIPTION=Pale pink massive, associated with red platy lamprophyllite and eudialyte. Note that our a-cell parameter is doubled that reported, and our crystal is twinned by a 2-fold around [100]
##STATUS=The identification of this mineral has been confirmed by single-crystal X-ray diffraction.
##URL=rruff.info/R070202
181.4815, 0.0000000E+00
181.9637, 4.289063
182.4458, 29.18750
182.9279, 62.71094
183.4100, 91.72266
183.8921, 126.9766
184.3742, 121.9277
184.8564, 102.0586
185.3385, 67.62891
185.8206, 16.13672
186.3027, 21.23242
186.7848, 1.769531
187.2669, 67.24414
187.7491, 133.0840
188.2312, 182.8242
188.7133, 215.0156
189.1954, 220.8926
189.6775, 196.7070
190.1596, 161.4805
190.6418, 135.6738
191.1239, 119.1699
191.6060, 108.9375
192.0881, 104.3691
192.5702, 105.3047
193.0524, 110.9492
193.5345, 121.9922
194.0166, 135.6211
194.4987, 149.4043
194.9808, 163.8516
195.4629, 170.7051
195.9451, 158.5938
196.4272, 128.4199
196.9093, 117.7148
197.3914, 131.0352
197.8735, 158.4766
198.3556, 185.0156
198.8378, 211.6172
199.3199, 230.1543
199.8020, 234.7090
200.2841, 224.3301
200.7662, 207.0684
201.2483, 177.8984
201.7305, 147.0801
202.2126, 144.0762
202.6947, 175.5977
203.1768, 209.9414
203.6589, 228.9062
204.1410, 230.7891
204.6232, 224.7812
205.1053, 206.9766
205.5874, 183.8164
206.0695, 178.7500
206.5516, 196.8633
207.0337, 219.7188
207.5159, 233.9336
207.9980, 235.6895
208.4801, 244.0430
208.9622, 264.7070
209.4443, 293.6367
209.9264, 310.6367
210.4086, 313.3926
210.8907, 308.7949
211.3728, 301.3516
211.8549, 290.9785
212.3370, 278.2266
212.8191, 261.5059
213.3013, 241.8242
213.7834, 227.4902
214.2655, 215.7129
214.7476, 213.9043
215.2297, 233.3340
215.7118, 288.6387
216.1940, 324.4590
216.6761, 322.9297
217.1582, 286.7676
217.6403, 277.5645
218.1224, 311.5254
218.6045, 350.5039
219.0867, 354.7734
219.5688, 307.5078
220.0509, 264.0527
220.5330, 232.9355
221.0151, 213.9590
221.4972, 216.4844
221.9794, 254.2383
222.4615, 298.4395
222.9436, 316.5996
223.4257, 293.2207
223.9078, 276.5410
224.3899, 281.7598
224.8721, 312.4082
225.3542, 321.3379
225.8363, 294.4258
226.3184, 259.4922
226.8005, 251.8613
227.2827, 287.0078
227.7648, 319.9434
228.2469, 340.2793
228.7290, 347.1289
229.2111, 346.5195
229.6932, 334.3457
230.1754, 317.7168
230.6575, 305.2266
231.1396, 294.6211
231.6217, 292.6289
232.1038, 307.0059
232.5859, 346.0176
233.0681, 355.2871
233.5502, 322.3379
234.0323, 268.6816
234.5144, 220.8477
234.9965, 163.2734
235.4786, 139.5273
235.9608, 177.3750
236.4429, 301.6895
236.9250, 364.9121
237.4071, 335.5547
237.8892, 263.8691
238.3713, 230.8945
238.8535, 259.3984
239.3356, 286.1016
239.8177, 291.2090
240.2998, 264.4844
240.7819, 258.2793
241.2640, 291.6777
241.7462, 334.7715
242.2283, 331.2598
242.7104, 244.1094
243.1925, 171.5684
243.6746, 152.0781
244.1567, 207.7734
244.6389, 237.5156
245.1210, 227.5078
245.6031, 198.4277
246.0852, 187.8730
246.5673, 207.6230
247.0494, 225.7559
247.5316, 228.6738
248.0137, 207.7012
248.4958, 203.9688
248.9779, 232.9375
249.4600, 269.5586
249.9421, 261.6914
250.4243, 178.3867
250.9064, 106.2578
251.3885, 79.73242
251.8706, 113.6211
252.3527, 145.6934
252.8348, 177.8535
253.3170, 206.1602
253.7991, 222.7734
254.2812, 223.5293
254.7633, 219.6465
255.2454, 213.9180
255.7275, 204.0996
256.2097, 202.1250
256.6918, 216.7109
257.1739, 232.9355
257.6560, 217.2422
258.1381, 146.3066
258.6202, 91.87109
259.1024, 88.22070
259.5845, 153.3711
260.0666, 192.1230
260.5487, 195.1172
261.0308, 178.6523
261.5129, 176.3281
261.9951, 197.9551
262.4772, 209.6895
262.9593, 194.1973
263.4414, 143.4688
263.9235, 100.4785
264.4056, 55.50000
264.8878, 27.35742
265.3699, 62.07031
265.8520, 190.7363
266.3341, 294.7754
266.8162, 320.4883
267.2983, 252.5137
267.7805, 200.5938
268.2626, 164.9121
268.7447, 145.4746
269.2268, 147.7402
269.7089, 179.4160
270.1910, 205.0977
270.6732, 212.4258
271.1553, 200.6035
271.6374, 171.7793
272.1195, 117.1562
272.6016, 58.44727
273.0837, 32.13281
273.5659, 41.58203
274.0480, 65.83984
274.5301, 108.0312
275.0122, 169.6172
275.4943, 188.7402
275.9764, 152.0508
276.4586, 98.04102
276.9407, 93.90820
277.4228, 147.4297
277.9049, 180.9961
278.3870, 146.3477
278.8691, 48.57422
279.3513, 10.92773
279.8334, 44.24219
280.3155, 109.8457
280.7976, 167.2930
281.2798, 216.7812
281.7619, 237.4316
282.2440, 206.6191
282.7261, 133.6895
283.2082, 91.06445
283.6903, 81.75977
284.1725, 91.63281
284.6546, 112.4531
285.1367, 143.0254
285.6188, 159.7500
286.1009, 140.1875
286.5830, 96.71680
287.0652, 91.54297
287.5473, 130.6309
288.0294, 171.5547
288.5115, 153.3438
288.9936, 85.03125
289.4757, 41.74609
289.9579, 63.84961
290.4400, 125.1172
290.9221, 152.9238
291.4042, 146.0781
291.8863, 127.9434
292.3684, 124.5703
292.8506, 131.8984
293.3327, 126.1543
293.8148, 90.07812
294.2969, 43.04297
294.7790, 18.51562
295.2611, 17.62305
295.7433, 28.94531
296.2254, 44.36133
296.7075, 64.87109
297.1896, 93.86719
297.6717, 148.1777
298.1538, 199.0684
298.6360, 191.6641
299.1181, 130.4531
299.6002, 67.10742
300.0823, 41.60352
300.5644, 41.78906
301.0465, 44.82812
301.5287, 44.89062
302.0108, 45.16602
302.4929, 50.32422
302.9750, 59.58398
303.4571, 67.03516
303.9392, 74.43555
304.4214, 76.13672
304.9035, 61.75391
305.3856, 15.92383
305.8677, 25.98828
306.3498, 28.78125
306.8319, 0.2285160
307.3141, 32.97852
307.7962, 71.33984
308.2783, 98.51562
308.7604, 92.30078
309.2425, 28.93359
309.7246, 26.59375
310.2068, 24.28516
310.6889, 19.41602
311.1710, 61.83398
311.6531, 83.43164
312.1352, 95.29297
312.6173, 106.7656
313.0995, 122.9004
313.5816, 127.2070
314.0637, 97.51953
314.5458, 51.50391
315.0279, 22.39062
315.5100, 37.61133
315.9922, 61.97656
316.4743, 77.65039
316.9564, 81.53711
317.4385, 80.94141
317.9206, 74.72852
318.4027, 66.26562
318.8849, 60.29688
319.3670, 50.62109
319.8491, 50.21094
320.3312, 72.00781
320.8133, 124.3477
321.2954, 153.5117
321.7776, 121.5918
322.2597, 72.31445
322.7418, 52.30273
323.2239, 114.0352
323.7060, 159.9238
324.1881, 159.5918
324.6703, 107.7285
325.1524, 66.97656
325.6345, 26.21875
326.1166, 6.605469
326.5987, 27.18359
327.0808, 137.2910
327.5630, 225.8809
328.0451, 280.3906
328.5272, 302.9629
329.0093, 308.9453
329.4914, 298.1621
329.9735, 270.5801
330.4557, 222.9043
330.9378, 124.7676
331.4199, 62.10742
331.9020, 53.20117
332.3841, 87.75586
332.8662, 108.8613
333.3484, 110.7559
333.8305, 108.2148
334.3126, 111.9473
334.7947, 129.9062
335.2768, 126.3750
335.7589, 86.73828
336.2411, 28.92188
336.7232, 4.404297
337.2053, 26.06445
337.6874, 52.97461
338.1695, 65.32812
338.6516, 59.27539
339.1338, 55.59570
339.6159, 54.09375
340.0980, 56.89844
340.5801, 74.78906
341.0622, 112.1348
341.5443, 127.2598
342.0265, 86.25000
342.5086, 1.064453
342.9907, 39.28320
343.4728, 21.88867
343.9549, 20.17383
344.4370, 60.52930
344.9192, 97.38867
345.4013, 114.7852
345.8834, 97.71484
346.3655, 59.21094
346.8476, 33.12305
347.3297, 19.74023
347.8119, 10.40234
348.2940, 11.47070
348.7761, 36.91016
349.2582, 35.93750
349.7403, 19.93750
350.2225, 86.00781
350.7046, 82.71094
351.1867, 19.89062
351.6688, 27.62305
352.1509, 23.65820
352.6331, 117.0684
353.1152, 162.5781
353.5973, 120.5098
354.0794, 63.04688
354.5615, 57.06055
355.0436, 89.21484
355.5258, 118.9434
356.0079, 128.4766
356.4900, 123.3535
356.9721, 102.6738
357.4542, 57.93945
357.9363, 26.14648
358.4185, 38.27148
358.9006, 76.31641
359.3827, 109.1738
359.8648, 122.9355
360.3469, 129.7910
360.8290, 137.4531
361.3112, 148.0332
361.7933, 149.0820
362.2754, 118.5254
362.7575, 83.34961
363.2396, 72.88281
363.7217, 123.3164
364.2039, 169.1289
364.6860, 197.0703
365.1681, 206.3652
365.6502, 197.0840
366.1323, 148.6641
366.6144, 94.28320
367.0966, 56.74805
367.5787, 45.70898
368.0608, 40.48047
368.5429, 39.33008
369.0250, 42.83984
369.5071, 55.29297
369.9893, 82.31641
370.4714, 111.5234
370.9535, 138.8730
371.4356, 171.0195
371.9177, 184.0801
372.3998, 171.4023
372.8820, 142.7246
373.3641, 117.9883
373.8462, 95.81250
374.3283, 81.26562
374.8104, 78.31445
375.2925, 88.30078
375.7747, 96.87695
376.2568, 106.3262
376.7389, 110.2734
377.2210, 91.54297
377.7031, 47.21094
378.1852, 24.01953
378.6674, 47.55859
379.1495, 103.0762
379.6316, 121.6445
380.1137, 98.77344
380.5958, 76.96094
381.0779, 114.2676
381.5601, 194.2148
382.0422, 228.3125
382.5243, 184.7109
383.0064, 103.0547
383.4885, 36.22461
383.9706, 14.70312
384.4528, 38.72266
384.9349, 9.064453
385.4170, 47.45312
385.8991, 90.55078
386.3812, 117.3652
386.8633, 121.8691
387.3455, 77.05078
387.8276, 4.751953
388.3097, 45.38672
388.7918, 24.70508
389.2739, 13.45703
389.7560, 25.01758
390.2382, 4.669922
390.7203, 19.05664
391.2024, 33.07422
391.6845, 41.28320
392.1666, 48.07422
392.6487, 64.90820
393.1309, 71.15234
393.6130, 46.99219
394.0951, 3.511719
394.5772, 32.11328
395.0593, 1.089844
395.5414, 39.58008
396.0236, 58.53125
396.5057, 31.04883
396.9878, 5.833984
397.4699, 10.54297
397.9520, 21.09961
398.4341, 35.43555
398.9163, 66.44922
399.3984, 87.66797
399.8805, 85.07422
400.3626, 41.78906
400.8447, 24.97266
401.3268, 49.42969
401.8090, 92.60742
402.2911, 125.2754
402.7732, 148.9961
403.2553, 155.9062
403.7374, 137.3730
404.2195, 95.61523
404.7017, 70.68555
405.1838, 63.08398
405.6659, 71.36523
406.1480, 102.0957
406.6301, 155.4473
407.1122, 192.2832
407.5944, 204.6621
408.0765, 198.4883
408.5586, 184.5898
409.0407, 163.2324
409.5228, 148.0977
410.0049, 153.9707
410.4871, 174.5273
410.9692, 199.4551
411.4513, 231.3242
411.9334, 253.2422
412.4155, 227.5781
412.8976, 173.7637
413.3798, 147.5371
413.8619, 207.1953
414.3440, 287.9629
414.8261, 320.3066
415.3082, 302.8750
415.7903, 275.3027
416.2725, 252.4219
416.7546, 238.0879
417.2367, 237.0703
417.7188, 261.2031
418.2009, 287.2129
418.6830, 301.0605
419.1652, 307.0742
419.6473, 319.7773
420.1294, 361.3711
420.6115, 398.4727
421.0937, 411.2012
421.5758, 381.5566
422.0579, 359.4609
422.5400, 354.7500
423.0221, 360.6953
423.5042, 366.5742
423.9864, 366.2402
424.4685, 372.2168
424.9506, 393.8125
425.4327, 433.5527
425.9148, 448.4277
426.3969, 427.4043
426.8791, 394.1016
427.3612, 365.9199
427.8433, 339.1172
428.3254, 331.0352
428.8075, 351.8691
429.2896, 390.1660
429.7718, 405.9277
430.2539, 397.0098
430.7360, 377.9395
431.2181, 346.4727
431.7002, 305.3613
432.1823, 302.2812
432.6645, 347.6992
433.1466, 404.2891
433.6287, 421.2383
434.1108, 403.5977
434.5929, 375.4141
435.0750, 338.4219
435.5572, 300.5371
436.0393, 269.1348
436.5214, 244.9863
437.0035, 244.7617
437.4856, 319.9863
437.9677, 415.8008
438.4499, 450.1387
438.9320, 374.0117
439.4141, 279.5410
439.8962, 218.9316
440.3783, 190.0020
440.8604, 185.8145
441.3426, 225.4355
441.8247, 270.4668
442.3068, 299.4004
442.7889, 309.4004
443.2710, 322.4512
443.7531, 356.3730
444.2353, 389.5801
444.7174, 399.0605
445.1995, 358.6465
445.6816, 318.0000
446.1637, 277.6660
446.6458, 243.0059
447.1280, 231.6387
447.6101, 258.9688
448.0922, 288.3301
448.5743, 298.0293
449.0564, 279.0801
449.5385, 269.0352
450.0207, 276.0410
450.5028, 285.3672
450.9849, 261.6621
451.4670, 195.7793
451.9491, 156.8750
452.4312, 186.5840
452.9134, 268.7500
453.3955, 285.9961
453.8776, 233.2012
454.3597, 164.4395
454.8418, 123.6113
455.3239, 107.3301
455.8061, 105.8066
456.2882, 120.8496
456.7703, 143.6094
457.2524, 166.6367
457.7345, 188.0098
458.2166, 200.5801
458.6988, 197.3555
459.1809, 184.5273
459.6630, 165.2539
460.1451, 138.9043
460.6272, 113.5078
461.1093, 86.95117
461.5915, 66.49219
462.0736, 61.45117
462.5557, 82.98242
463.0378, 112.5156
463.5199, 150.9102
464.0020, 194.8828
464.4842, 223.4395
464.9663, 217.2559
465.4484, 205.0332
465.9305, 202.5234
466.4126, 220.4688
466.8947, 230.6016
467.3769, 230.5234
467.8590, 223.6348
468.3411, 213.2383
468.8232, 189.9004
469.3053, 190.6035
469.7874, 235.3008
470.2696, 315.7578
470.7517, 348.3379
471.2338, 330.9004
471.7159, 287.8555
472.1980, 221.3398
472.6801, 132.9609
473.1623, 102.8164
473.6444, 160.6895
474.1265, 253.9863
474.6086, 295.5664
475.0907, 289.2070
475.5728, 265.9844
476.0550, 237.7734
476.5371, 210.1016
477.0192, 186.0977
477.5013, 165.6797
477.9834, 155.9102
478.4655, 169.5586
478.9477, 195.2656
479.4298, 216.4219
479.9119, 217.8633
480.3940, 228.1836
480.8761, 287.3320
481.3582, 369.6328
481.8404, 403.3008
482.3225, 316.0039
482.8046, 216.0586
483.2867, 150.8203
483.7688, 121.9570
484.2509, 120.0703
484.7331, 180.8867
485.2152, 253.1641
485.6973, 289.7070
486.1794, 270.1914
486.6615, 251.2500
487.1436, 238.4570
487.6258, 229.9609
488.1079, 223.6523
488.5900, 220.1250
489.0721, 216.8867
489.5542, 213.9883
490.0363, 211.5703
490.5185, 198.9492
491.0006, 171.5898
491.4827, 148.0547
491.9648, 154.5078
492.4470, 187.2617
492.9291, 229.4570
493.4112, 294.6758
493.8933, 348.2109
494.3754, 310.6641
494.8575, 199.8047
495.3397, 111.8789
495.8218, 132.1758
496.3039, 187.9180
496.7860, 196.7383
497.2681, 133.2500
497.7502, 89.56250
498.2324, 134.9375
498.7145, 223.7461
499.1966, 295.2305
499.6787, 329.7461
500.1608, 345.2188
500.6429, 342.6680
501.1251, 323.0938
501.6072, 299.0508
502.0893, 254.9961
502.5714, 221.0938
503.0535, 214.0195
503.5356, 251.0391
504.0178, 272.6328
504.4999, 271.8320
504.9820, 261.5742
505.4641, 268.9766
505.9462, 303.2930
506.4283, 303.3398
506.9105, 231.6250
507.3926, 116.6094
507.8747, 82.34375
508.3568, 132.7656
508.8389, 192.2734
509.3210, 195.4219
509.8032, 164.9180
510.2853, 172.3750
510.7674, 236.6094
511.2495, 296.5508
511.7316, 274.5938
512.2137, 202.7930
512.6959, 146.5430
513.1780, 149.0547
513.6601, 162.6953
514.1422, 152.7266
514.6243, 123.3477
515.1064, 105.5234
515.5886, 120.8398
516.0707, 144.8789
516.5528, 164.0234
517.0349, 181.3828
517.5170, 184.3164
517.9991, 152.4258
518.4813, 112.7695
518.9634, 101.2773
519.4455, 139.6406
519.9276, 169.2930
520.4097, 179.5430
520.8918, 171.2812
521.3740, 146.9531
521.8561, 97.99609
522.3382, 61.29297
522.8203, 71.07031
523.3024, 123.3789
523.7845, 155.4258
524.2667, 164.3672
524.7488, 151.0625
525.2309, 103.6016
525.7130, 32.46484
526.1951, 26.51562
526.6772, 71.80078
527.1594, 89.10547
527.6415, 40.11719
528.1236, 59.39844
528.6057, 141.8555
529.0878, 175.4297
529.5699, 171.6602
530.0521, 127.9961
530.5342, 31.62500
531.0163, 47.60547
531.4984, 92.89844
531.9805, 108.0547
532.4626, 97.41797
532.9448, 32.98828
533.4269, 23.76562
533.9090, 71.69531
534.3911, 107.6289
534.8732, 113.3945
535.3553, 72.05469
535.8375, 32.66406
536.3196, 19.44141
536.8017, 34.17969
537.2838, 35.16016
537.7659, 18.33984
538.2480, 1.730469
538.7302, 13.78906
539.2123, 48.35547
539.6944, 56.34375
540.1765, 15.16406
540.6586, 35.19141
541.1407, 29.62109
541.6229, 17.33594
542.1050, 53.69141
542.5871, 40.38281
543.0692, 11.32812
543.5513, 10.78906
544.0334, 24.34375
544.5156, 14.94141
544.9977, 53.51172
545.4798, 130.9219
545.9619, 175.9141
546.4440, 154.9414
546.9261, 139.7812
547.4083, 143.7422
547.8904, 158.9648
548.3725, 172.1953
548.8546, 191.9023
549.3367, 195.6875
549.8188, 174.7422
550.3010, 131.1562
550.7831, 88.73828
551.2652, 47.58594
551.7473, 7.089844
552.2294, 45.86719
552.7115, 106.1250
553.1937, 110.5820
553.6758, 46.04688
554.1579, 40.28516
554.6400, 97.89062
555.1221, 130.9141
555.6042, 150.2148
556.0864, 161.3398
556.5685, 159.5234
557.0506, 130.5117
557.5327, 81.89453
558.0148, 42.01953
558.4969, 25.91797
558.9791, 21.96484
559.4612, 21.36328
559.9433, 20.52344
560.4254, 36.57422
560.9075, 97.55469
561.3896, 162.5703
561.8718, 195.1758
562.3539, 162.7266
562.8360, 155.2109
563.3181, 192.9961
563.8002, 252.9062
564.2823, 278.3320
564.7645, 263.3906
565.2466, 237.4453
565.7287, 200.4297
566.2108, 160.9219
566.6929, 170.6758
567.1750, 231.2852
567.6572, 300.1367
568.1393, 337.0234
568.6214, 356.2188
569.1035, 387.4219
569.5856, 440.1992
570.0677, 487.0078
570.5499, 500.5508
571.0320, 494.5898
571.5141, 491.2500
571.9962, 493.2461
572.4783, 504.7148
572.9604, 539.4648
573.4426, 589.4648
573.9247, 615.1367
574.4068, 578.1289
574.8889, 544.4414
575.3710, 540.6914
575.8531, 572.9531
576.3353, 604.5938
576.8174, 643.1133
577.2995, 669.1562
577.7816, 654.3672
578.2637, 592.4453
578.7458, 560.2188
579.2280, 576.1367
579.7101, 612.9141
580.1922, 618.6719
580.6743, 599.3633
581.1564, 588.0898
581.6385, 612.2461
582.1207, 646.6875
582.6028, 655.0859
583.0849, 640.2969
583.5670, 625.9141
584.0491, 620.0625
584.5313, 620.3672
585.0134, 631.1641
585.4955, 665.7773
585.9776, 685.5625
586.4597, 670.5938
586.9418, 633.8164
587.4240, 587.8477
587.9061, 500.4922
588.3882, 455.4648
588.8703, 470.2773
589.3524, 527.5195
589.8345, 577.6406
590.3167, 623.5039
590.7988, 661.9961
591.2809, 688.5430
591.7630, 701.5312
592.2451, 696.5117
592.7272, 672.5469
593.2094, 653.4336
593.6915, 662.3594
594.1736, 689.3008
594.6557, 713.9805
595.1378, 729.0820
595.6199, 754.0117
596.1021, 825.3281
596.5842, 910.5234
597.0663, 961.6953
597.5485, 916.6211
598.0306, 881.8477
598.5127, 889.6016
598.9948, 936.6133
599.4769, 997.4609
599.9590, 1100.594
600.4412, 1175.836
600.9233, 1186.328
601.4054, 1124.172
601.8875, 1118.719
602.3696, 1192.559
602.8517, 1273.176
603.3339, 1292.859
603.8160, 1256.070
604.2981, 1205.434
604.7802, 1137.320
605.2623, 1086.961
605.7444, 1130.957
606.2266, 1232.070
606.7087, 1286.047
607.1908, 1209.809
607.6729, 1119.957
608.1550, 1122.246
608.6371, 1190.031
609.1193, 1237.422
609.6014, 1219.555
610.0835, 1178.801
610.5656, 1126.742
611.0477, 1063.141
611.5298, 1033.371
612.0120, 1058.688
612.4941, 1092.922
612.9762, 1108.000
613.4583, 1100.523
613.9404, 1086.684
614.4225, 1068.812
614.9047, 1041.449
615.3868, 994.9414
615.8689, 929.9219
616.3510, 857.0117
616.8331, 775.0586
617.3152, 692.5508
617.7974, 620.2578
618.2795, 558.2266
618.7616, 503.5039
619.2437, 456.5078
619.7258, 414.9219
620.2079, 374.8516
620.6901, 336.3828
621.1722, 308.3945
621.6543, 294.1328
622.1364, 291.2383
622.6185, 301.2031
623.1006, 341.4102
623.5828, 354.9023
624.0649, 330.5547
624.5470, 289.7148
625.0291, 254.4922
625.5112, 223.1289
625.9933, 209.3984
626.4755, 222.2109
626.9576, 245.2773
627.4397, 245.4219
627.9218, 224.2812
628.4039, 194.1953
628.8860, 137.6836
629.3682, 88.07422
629.8503, 111.4102
630.3324, 196.3242
630.8145, 256.3203
631.2966, 201.7930
631.7787, 130.9102
632.2609, 121.6445
632.7430, 206.1055
633.2251, 264.2539
633.7072, 247.3359
634.1893, 209.8633
634.6714, 200.0625
635.1536, 247.3555
635.6357, 252.1523
636.1178, 186.4883
636.5999, 96.83594
637.0820, 78.42969
637.5641, 134.7578
638.0463, 175.5977
638.5284, 158.5820
639.0105, 119.9570
639.4926, 143.0898
639.9747, 217.3359
640.4568, 279.5977
640.9390, 284.3555
641.4211, 265.1016
641.9032, 249.1406
642.3853, 238.4727
642.8674, 233.7344
643.3495, 251.5742
643.8317, 264.3594
644.3138, 250.1914
644.7959, 174.5820
645.2780, 136.3477
645.7601, 149.9219
646.2422, 185.1133
646.7244, 209.6562
647.2065, 224.8164
647.6886, 217.7109
648.1707, 177.0977
648.6528, 125.6172
649.1349, 110.7031
649.6171, 128.4883
650.0992, 150.9141
650.5813, 162.8711
651.0634, 173.5781
651.5455, 199.6797
652.0276, 237.4336
652.5098, 264.6250
652.9919, 258.7852
653.4740, 247.0859
653.9561, 247.1680
654.4382, 263.0273
654.9203, 277.2383
655.4025, 294.0234
655.8846, 303.4414
656.3667, 296.0000
656.8488, 261.4023
657.3309, 240.1758
657.8130, 240.2773
658.2952, 245.4062
658.7773, 228.4414
659.2594, 191.7539
659.7415, 164.7344
660.2236, 158.4336
660.7057, 159.6641
661.1879, 145.9023
661.6700, 124.6992
662.1521, 115.8984
662.6342, 147.1953
663.1163, 178.7266
663.5984, 180.0469
664.0806, 153.6367
664.5627, 132.5820
665.0448, 126.2617
665.5269, 128.0898
666.0090, 137.6445
666.4911, 157.3008
666.9733, 164.9648
667.4554, 157.4453
667.9375, 144.2812
668.4196, 130.6133
668.9017, 116.7031
669.3839, 112.5898
669.8660, 120.6523
670.3481, 131.2969
670.8302, 137.0586
671.3123, 136.6602
671.7944, 125.5195
672.2766, 91.52344
672.7587, 63.85156
673.2408, 68.34766
673.7229, 91.95703
674.2050, 109.4531
674.6871, 111.3516
675.1693, 108.9258
675.6514, 101.0039
676.1335, 90.20312
676.6156, 91.85156
677.0977, 113.2852
677.5798, 130.4766
678.0620, 131.8828
678.5441, 118.9883
679.0262, 104.8828
679.5083, 89.55078
679.9904, 72.84375
680.4725, 48.92188
680.9547, 25.24609
681.4368, 17.81250
681.9189, 30.01172
682.4010, 42.93750
682.8831, 27.51562
683.3652, 14.22656
683.8474, 36.98828
684.3295, 151.8672
684.8116, 225.9375
685.2937, 221.3086
685.7758, 173.9922
686.2579, 121.9805
686.7401, 49.34375
687.2222, 20.70312
687.7043, 64.68359
688.1864, 143.3594
688.6685, 151.3398
689.1506, 95.74609
689.6328, 66.64062
690.1149, 136.1328
690.5970, 239.5781
691.0791, 283.4766
691.5612, 274.3477
692.0433, 244.8125
692.5255, 180.4219
693.0076, 126.9102
693.4897, 124.1602
693.9718, 180.8867
694.4539, 212.2383
694.9360, 194.5391
695.4182, 159.8320
695.9003, 118.9336
696.3824, 63.80469
696.8645, 43.55469
697.3466, 67.87109
697.8287, 101.5508
698.3109, 105.5938
698.7930, 84.91016
699.2751, 62.58594
699.7572, 39.34375
700.2393, 27.62109
700.7214, 62.55469
701.2036, 113.3906
701.6857, 127.8555
702.1678, 31.27344
702.6499, 39.32422
703.1320, 1.390625
703.6141, 99.47266
704.0963, 146.4375
704.5784, 87.44531
705.0605, 45.99219
705.5426, 54.16406
706.0247, 99.59375
706.5068, 130.6758
706.9890, 150.2656
707.4711, 147.9609
707.9532, 104.9180
708.4353, 43.21484
708.9174, 24.11328
709.3995, 44.43750
709.8817, 74.17578
710.3638, 115.1094
710.8459, 141.5586
711.3280, 120.4844
711.8101, 41.94141
712.2922, 22.15234
712.7744, 52.22656
713.2565, 60.31641
713.7386, 55.98438
714.2207, 39.86328
714.7028, 5.574219
715.1849, 58.73047
715.6671, 121.3672
716.1492, 148.9180
716.6313, 142.7070
717.1134, 117.8008
717.5955, 72.22266
718.0776, 22.53906
718.5598, 11.92969
719.0419, 35.33984
719.5240, 56.10547
720.0061, 85.65234
720.4882, 103.0703
720.9703, 95.19531
721.4525, 67.87109
721.9346, 33.77344
722.4167, 0.3789060
722.8988, 40.93750
723.3809, 106.2461
723.8630, 181.8164
724.3452, 206.3828
724.8273, 170.3945
725.3094, 124.0664
725.7915, 90.15234
726.2736, 74.79688
726.7557, 115.9688
727.2379, 203.6914
727.7200, 259.8008
728.2021, 204.6484
728.6842, 117.0781
729.1663, 57.98438
729.6484, 33.29688
730.1306, 20.08984
730.6127, 10.44922
731.0948, 12.42188
731.5769, 32.86719
732.0590, 80.07812
732.5411, 111.4688
733.0233, 123.7148
733.5054, 127.5586
733.9875, 129.5352
734.4696, 130.7227
734.9517, 142.2344
735.4338, 168.0273
735.9160, 188.7422
736.3981, 176.7188
736.8802, 148.0391
737.3623, 130.4961
737.8444, 136.4844
738.3266, 147.7891
738.8087, 160.9570
739.2908, 174.2266
739.7729, 185.9141
740.2551, 209.3008
740.7372, 205.2383
741.2193, 156.7812
741.7014, 89.23047
742.1835, 51.76953
742.6656, 44.85156
743.1478, 73.06250
743.6299, 163.3438
744.1120, 257.7969
744.5941, 252.7617
745.0762, 172.9336
745.5583, 94.25781
746.0405, 16.45703
746.5226, 16.09766
747.0047, 54.34375
747.4868, 205.7148
747.9689, 312.5938
748.4510, 339.2695
748.9332, 334.6992
749.4153, 310.5352
749.8974, 268.2383
750.3795, 215.4609
750.8616, 146.8750
751.3438, 109.8047
751.8259, 154.8008
752.3080, 248.2852
752.7901, 323.4492
753.2722, 377.4805
753.7543, 398.2891
754.2365, 355.0703
754.7186, 291.4609
755.2007, 238.2930
755.6828, 197.4805
756.1649, 169.5977
756.6470, 165.6211
757.1292, 165.5547
757.6113, 157.2344
758.0934, 138.3125
758.5755, 122.8281
759.0576, 109.3828
759.5397, 99.75391
760.0219, 93.00781
760.5040, 91.40234
760.9861, 108.9297
761.4682, 140.3555
761.9503, 175.8789
762.4324, 236.7227
762.9146, 284.5781
763.3967, 269.0352
763.8788, 96.96094
764.3609, 5.878906
764.8430, 51.93359
765.3251, 165.4141
765.8073, 216.4688
766.2894, 188.0117
766.7715, 164.7539
767.2536, 160.6953
767.7357, 162.1875
768.2178, 136.1953
768.7000, 92.44922
769.1821, 74.42578
769.6642, 105.3789
770.1463, 150.9688
770.6284, 201.6875
771.1105, 243.8398
771.5927, 249.7969
772.0748, 171.8359
772.5569, 103.2344
773.0390, 64.99609
773.5211, 50.51953
774.0032, 43.45312
774.4854, 38.73828
774.9675, 48.55469
775.4496, 83.57812
775.9317, 130.0195
776.4138, 156.3945
776.8959, 162.4375
777.3781, 150.7617
777.8602, 110.4531
778.3423, 63.07031
778.8244, 12.70703
779.3065, 32.06641
779.7886, 39.93359
780.2708, 67.71484
780.7529, 137.5898
781.2350, 92.51953
781.7171, 47.23828
782.1992, 74.52344
782.6813, 41.87891
783.1635, 147.2305
783.6456, 148.3477
784.1277, 80.06641
784.6098, 56.68359
785.0919, 74.03906
785.5740, 94.27734
786.0562, 88.39453
786.5383, 78.71484
787.0204, 88.11719
787.5025, 117.7930
787.9846, 134.7188
788.4667, 120.5391
788.9489, 101.9219
789.4310, 88.08984
789.9131, 79.01562
790.3952, 76.96484
790.8773, 83.13281
791.3594, 90.98828
791.8416, 102.6289
792.3237, 111.1602
792.8058, 87.30078
793.2879, 30.41016
793.7700, 9.464844
794.2521, 6.554688
794.7343, 51.51953
795.2164, 111.0156
795.6985, 193.2305
796.1806, 245.9102
796.6627, 265.9180
797.1448, 255.5000
797.6270, 202.7500
798.1091, 97.53125
798.5912, 44.55859
799.0733, 47.94922
799.5554, 70.57422
800.0375, 82.88672
800.5197, 86.85938
801.0018, 85.30859
801.4839, 78.38672
801.9660, 68.75000
802.4481, 39.50781
802.9302, 19.50000
803.4124, 40.54297
803.8945, 156.9336
804.3766, 190.4336
804.8587, 90.49609
805.3408, 19.22266
805.8229, 4.832031
806.3051, 132.5234
806.7872, 207.2773
807.2693, 199.3867
807.7514, 156.7734
808.2335, 105.3125
808.7156, 59.89062
809.1978, 49.54297
809.6799, 94.84766
810.1620, 125.6250
810.6441, 99.91016
811.1262, 53.46484
811.6083, 20.32812
812.0905, 0.1914060
812.5726, 1.148438
813.0547, 21.80469
813.5368, 55.44141
814.0189, 93.03906
814.5010, 130.0977
814.9832, 131.3828
815.4653, 82.75000
815.9474, 39.73438
816.4295, 80.39453
816.9116, 145.4961
817.3937, 154.0586
817.8759, 29.56250
818.3580, 39.83594
818.8401, 29.50781
819.3222, 141.2812
819.8043, 213.2227
820.2864, 244.9453
820.7686, 226.8984
821.2507, 139.9492
821.7328, 55.85156
822.2149, 94.41016
822.6970, 210.2656
823.1791, 275.0820
823.6613, 250.7031
824.1434, 203.9688
824.6255, 150.2148
825.1076, 107.3594
825.5897, 98.38281
826.0718, 189.4766
826.5540, 230.6289
827.0361, 201.6953
827.5182, 146.8086
828.0003, 113.7930
828.4824, 104.0078
828.9645, 122.6914
829.4467, 178.6055
829.9288, 218.1914
830.4109, 157.1367
830.8930, 53.66406
831.3751, 0.8593750
831.8572, 34.26562
832.3394, 80.59375
832.8215, 123.1445
833.3036, 157.6523
833.7857, 183.1523
834.2678, 207.4102
834.7499, 195.4727
835.2321, 129.2344
835.7142, 62.98047
836.1963, 82.59375
836.6784, 160.9844
837.1605, 189.8125
837.6426, 140.0156
838.1248, 94.04297
838.6069, 115.4102
839.0890, 167.2422
839.5711, 206.6406
840.0532, 244.4648
840.5353, 251.5703
841.0175, 190.5547
841.4996, 114.4453
841.9817, 90.72266
842.4638, 126.5156
842.9459, 142.4844
843.4280, 127.9375
843.9102, 109.5156
844.3923, 122.8438
844.8744, 149.1680
845.3565, 155.6953
845.8386, 129.1055
846.3207, 109.9766
846.8029, 123.0586
847.2850, 145.7734
847.7671, 157.6172
848.2492, 145.6562
848.7313, 153.2227
849.2134, 187.1367
849.6956, 224.1328
850.1777, 244.9375
850.6598, 248.9922
851.1419, 237.5938
851.6240, 209.8945
852.1061, 175.1094
852.5883, 103.4766
853.0704, 47.53906
853.5525, 72.88672
854.0346, 245.2188
854.5167, 313.8164
854.9988, 204.5352
855.4810, 69.71094
855.9631, 18.59766
856.4452, 52.22266
856.9273, 88.47266
857.4094, 126.7656
857.8915, 149.8477
858.3737, 121.9258
858.8558, 79.76172
859.3379, 79.32422
859.8200, 130.9688
860.3021, 161.0234
860.7842, 92.35156
861.2664, 38.93359
861.7485, 76.70703
862.2306, 221.0742
862.7127, 294.7891
863.1948, 287.0273
863.6769, 247.4688
864.1591, 195.5859
864.6412, 138.6484
865.1233, 94.42969
865.6054, 63.91797
866.0875, 53.45312
866.5696, 65.36719
867.0518, 99.45312
867.5339, 182.4375
868.0160, 318.8359
868.4981, 342.2891
868.9802, 186.3281
869.4623, 57.35156
869.9445, 72.47266
870.4266, 193.8359
870.9087, 228.6602
871.3908, 187.2773
871.8729, 174.2617
872.3550, 310.1445
872.8372, 455.5234
873.3193, 479.5117
873.8014, 400.1758
874.2835, 336.8281
874.7656, 335.0586
875.2477, 329.4609
875.7299, 305.5352
876.2120, 261.5195
876.6941, 196.7266
877.1762, 108.8359
877.6583, 44.30078
878.1404, 28.07812
878.6226, 42.31250
879.1047, 85.62891
879.5869, 139.8477
880.0690, 162.0625
880.5511, 106.9766
881.0332, 49.32812
881.5153, 6.238281
881.9974, 44.91406
882.4796, 23.89453
882.9617, 72.31250
883.4438, 139.2578
883.9259, 149.8281
884.4080, 124.4844
884.8901, 78.49219
885.3723, 23.03906
885.8544, 16.58203
886.3365, 36.48438
886.8186, 30.17188
887.3007, 34.39453
887.7828, 114.7031
888.2650, 148.4219
888.7471, 107.9727
889.2292, 94.07812
889.7113, 131.0938
890.1934, 169.1719
890.6755, 123.3945
891.1577, 25.03516
891.6398, 26.95312
892.1219, 10.28125
892.6040, 34.82031
893.0861, 113.5977
893.5682, 187.0430
894.0504, 215.7969
894.5325, 171.6758
895.0146, 139.3594
895.4967, 121.6250
895.9788, 109.6289
896.4609, 107.9648
896.9431, 109.7930
897.4252, 49.67578
897.9073, 76.83984
898.3894, 167.9141
898.8715, 111.3906
899.3536, 12.85156
899.8358, 40.36719
900.3179, 36.35547
900.8000, 27.97656
901.2821, 14.50391
901.7642, 7.152344
902.2463, 13.25781
902.7285, 30.59766
903.2106, 49.60938
903.6927, 69.38281
904.1748, 75.26562
904.6569, 36.94922
905.1390, 3.000000
905.6212, 12.75781
906.1033, 68.58203
906.5854, 96.02344
907.0675, 33.91016
907.5496, 8.421875
908.0317, 3.265625
908.5139, 38.07422
908.9960, 90.76172
909.4781, 154.6055
909.9602, 198.8398
910.4423, 206.2539
910.9244, 197.4766
911.4066, 189.9336
911.8887, 187.6133
912.3708, 196.6562
912.8529, 232.1836
913.3350, 262.6016
913.8171, 289.6562
914.2993, 305.2031
914.7814, 284.0273
915.2635, 220.5195
915.7456, 197.7930
916.2277, 234.4805
916.7098, 282.8672
917.1920, 277.2070
917.6741, 252.0781
918.1562, 261.5938
918.6383, 327.5078
919.1204, 385.3242
919.6025, 417.3477
920.0847, 435.6250
920.5668, 444.3281
921.0489, 440.9648
921.5310, 441.9492
922.0131, 444.7656
922.4952, 470.3594
922.9774, 549.8359
923.4595, 656.0820
923.9416, 719.8164
924.4237, 747.2852
924.9058, 875.4141
925.3879, 1359.711
925.8701, 1746.090
926.3522, 1810.516
926.8343, 1601.805
927.3164, 1493.703
927.7985, 1490.910
928.2806, 1561.316
928.7628, 1704.363
929.2449, 1896.098
929.7270, 2132.863
930.2091, 2389.090
930.6912, 2602.035
931.1733, 2693.621
931.6555, 2796.188
932.1376, 2963.730
932.6197, 3159.133
933.1018, 3315.574
933.5839, 3422.062
934.0660, 3576.738
934.5482, 3817.141
935.0303, 4055.277
935.5124, 4178.395
935.9945, 4220.562
936.4766, 4233.980
936.9587, 4214.590
937.4409, 4214.898
937.9230, 4289.684
938.4051, 4362.086
938.8872, 4375.832
939.3693, 4325.551
939.8514, 4238.176
940.3336, 4118.520
940.8157, 3964.977
941.2978, 3735.742
941.7799, 3484.309
942.2620, 3290.141
942.7441, 3156.500
943.2263, 3034.293
943.7084, 2945.398
944.1905, 2819.188
944.6726, 2600.742
945.1547, 2321.332
945.6368, 2167.523
946.1190, 2143.469
946.6011, 2153.555
947.0832, 2184.066
947.5653, 2194.406
948.0474, 2085.453
948.5295, 1916.082
949.0117, 1823.285
949.4938, 1931.336
949.9759, 2021.371
950.4580, 2024.266
950.9401, 2007.629
951.4222, 2085.945
951.9044, 2261.305
952.3865, 2412.410
952.8686, 2517.500
953.3507, 2606.477
953.8328, 2690.699
954.3149, 2787.676
954.7971, 2932.367
955.2792, 3153.816
955.7613, 3315.887
956.2434, 3379.625
956.7255, 3413.648
957.2076, 3446.883
957.6898, 3476.039
958.1719, 3536.129
958.6540, 3626.988
959.1361, 3697.926
959.6182, 3720.461
960.1003, 3704.016
960.5825, 3638.609
961.0646, 3535.129
961.5467, 3455.988
962.0288, 3447.820
962.5109, 3410.383
962.9930, 3316.027
963.4752, 3182.895
963.9573, 3034.305
964.4394, 2878.098
964.9215, 2765.707
965.4036, 2747.051
965.8857, 2708.668
966.3679, 2515.969
966.8500, 2265.934
967.3321, 2086.617
967.8142, 2046.062
968.2963, 1986.113
968.7784, 1898.160
969.2606, 1807.602
969.7427, 1747.316
970.2248, 1706.777
970.7069, 1642.520
971.1890, 1551.836
971.6711, 1469.406
972.1533, 1437.059
972.6354, 1405.457
973.1175, 1334.461
973.5996, 1224.254
974.0817, 1135.090
974.5638, 1067.230
975.0460, 1020.086
975.5281, 997.1445
976.0102, 990.9570
976.4923, 1002.941
976.9744, 1019.309
977.4565, 999.6641
977.9387, 895.8516
978.4208, 788.7344
978.9029, 694.7461
979.3850, 619.7578
979.8671, 578.1367
980.3492, 579.1992
980.8314, 560.3555
981.3135, 514.6250
981.7956, 448.6719
982.2777, 360.3359
982.7598, 260.3672
983.2419, 152.9961
983.7241, 32.25391
984.2062, 37.63672
984.6883, 17.77344
985.1704, 72.43359
985.6525, 61.30078
986.1346, 5.531250
986.6168, 8.945313
987.0989, 48.67578
987.5810, 91.98047
988.0631, 60.36328
988.5452, 9.191406
989.0273, 2.421875
989.5095, 8.238281
989.9916, 2.375000
990.4737, 99.46484
990.9558, 143.3164
991.4379, 98.31641
991.9200, 19.91797
992.4022, 4.195313
992.8843, 14.69141
993.3664, 27.96094
993.8485, 27.35938
994.3306, 16.80859
994.8127, 4.375000
995.2949, 32.21484
995.7770, 64.95703
996.2591, 103.7422
996.7412, 137.8867
997.2233, 169.7812
997.7054, 186.6992
998.1876, 169.6211
998.6697, 136.4727
999.1518, 128.9688
999.6339, 141.8906
1000.116, 154.4844
1000.598, 159.1719
1001.080, 159.9258
1001.562, 149.3008
1002.044, 139.8203
1002.527, 160.3906
1003.009, 213.6758
1003.491, 256.2930
1003.973, 281.7969
1004.455, 284.7031
1004.937, 219.6250
1005.419, 146.6797
1005.901, 151.2695
1006.384, 271.2539
1006.866, 372.5781
1007.348, 459.5742
1007.830, 493.8789
1008.312, 423.4609
1008.794, 277.6016
1009.276, 248.1562
1009.758, 321.3047
1010.240, 380.6758
1010.723, 337.8633
1011.205, 280.1094
1011.687, 268.6094
1012.169, 283.7461
1012.651, 268.3555
1013.133, 206.9727
1013.615, 156.0078
1014.097, 122.3086
1014.580, 105.5586
1015.062, 108.0469
1015.544, 126.1719
1016.026, 164.6914
1016.508, 234.6484
1016.990, 260.7031
1017.472, 143.8281
1017.954, 39.97656
1018.436, 55.79688
1018.919, 182.2656
1019.401, 207.9336
1019.883, 132.4922
1020.365, 71.13281
1020.847, 126.8555
1021.329, 197.8516
1021.811, 159.5430
1022.293, 58.30078
1022.776, 9.304688
1023.258, 74.50391
1023.740, 128.6211
1024.222, 162.1562
1024.704, 176.4844
1025.186, 163.6367
1025.668, 132.6328
1026.150, 110.2422
1026.632, 99.19141
1027.115, 110.2070
1027.597, 186.7344
1028.079, 255.9414
1028.561, 263.8086
1029.043, 213.2891
1029.525, 154.0078
1030.007, 80.09375
1030.489, 54.44531
1030.972, 141.3789
1031.454, 252.8555
1031.936, 253.5586
1032.418, 186.6523
1032.900, 144.5391
1033.382, 190.9336
1033.864, 214.2109
1034.346, 196.7891
1034.828, 161.5898
1035.311, 125.4258
1035.793, 91.70703
1036.275, 92.75391
1036.757, 131.4688
1037.239, 161.4688
1037.721, 134.7734
1038.203, 100.7617
1038.685, 98.09375
1039.167, 123.5586
1039.650, 130.2969
1040.132, 111.8633
1040.614, 103.5742
1041.096, 122.5391
1041.578, 148.6484
1042.060, 147.0938
1042.542, 129.1719
1043.024, 110.0859
1043.507, 85.89453
1043.989, 79.48828
1044.471, 106.8047
1044.953, 139.3516
1045.435, 166.7305
1045.917, 185.4961
1046.399, 121.4844
1046.881, 20.39062
1047.364, 116.3672
1047.846, 28.05469
1048.328, 80.25391
1048.810, 83.01562
1049.292, 13.70312
1049.774, 20.49219
1050.256, 127.1172
1050.738, 220.6914
1051.220, 285.1484
1051.703, 312.9219
1052.185, 260.3086
1052.667, 172.9648
1053.149, 128.7812
1053.631, 151.7070
1054.113, 190.2109
1054.595, 242.3203
1055.077, 288.0742
1055.559, 322.9062
1056.042, 345.9570
1056.524, 344.9766
1057.006, 323.4883
1057.488, 310.3281
1057.970, 320.3164
1058.452, 344.5312
1058.934, 385.2422
1059.416, 435.0312
1059.899, 482.3203
1060.381, 536.8281
1060.863, 548.2578
1061.345, 505.3359
1061.827, 457.4102
1062.309, 460.6523
1062.791, 488.5391
1063.273, 509.2500
1063.755, 519.5312
1064.238, 502.1445
1064.720, 399.8203
1065.202, 349.0898
1065.684, 404.4688
1066.166, 511.1953
1066.648, 532.5820
1067.130, 489.1094
1067.612, 455.6719
1068.094, 458.8086
1068.577, 469.4844
1069.059, 482.6719
1069.541, 487.5859
1070.023, 477.4727
1070.505, 445.0586
1070.987, 409.9102
1071.469, 370.1680
1071.951, 347.5234
1072.434, 374.6758
1072.916, 413.0195
1073.398, 414.6758
1073.880, 388.2070
1074.362, 365.4844
1074.844, 333.3945
1075.326, 343.4805
1075.808, 420.3438
1076.291, 510.6719
1076.773, 535.9180
1077.255, 517.3359
1077.737, 508.0938
1078.219, 510.0391
1078.701, 501.2852
1079.183, 446.3594
1079.665, 403.6289
1080.147, 412.2188
1080.630, 456.3633
1081.112, 448.3164
1081.594, 390.6562
1082.076, 352.1875
1082.558, 365.5625
1083.040, 394.3281
1083.522, 422.9102
1084.004, 439.4258
1084.486, 423.2305
1084.969, 349.9258
1085.451, 309.3906
1085.933, 304.0156
1086.415, 322.9414
1086.897, 389.1211
1087.379, 458.0586
1087.861, 436.0469
1088.343, 342.2969
1088.826, 262.7383
1089.308, 233.7148
1089.790, 215.4102
1090.272, 199.1133
1090.754, 191.7617
1091.236, 212.2305
1091.718, 252.3633
1092.200, 274.3633
1092.682, 271.5820
1093.165, 261.8711
1093.647, 267.1094
1094.129, 258.1406
1094.611, 203.9297
1095.093, 116.0312
1095.575, 72.93359
1096.057, 73.98047
1096.539, 104.4648
1097.022, 180.4570
1097.504, 240.2773
1097.986, 192.8125
1098.468, 99.66797
1098.950, 46.56641
1099.432, 57.08203
1099.914, 84.56641
1100.396, 136.6797
1100.879, 179.0977
1101.361, 184.9570
1101.843, 164.5898
1102.325, 124.1758
1102.807, 73.48047
1103.289, 48.07422
1103.771, 83.34766
1104.253, 118.1133
1104.735, 144.3867
1105.218, 159.2344
1105.700, 178.4375
1106.182, 193.2344
1106.664, 159.9766
1107.146, 72.82422
1107.628, 10.71094
1108.110, 44.50391
1108.592, 94.49219
1109.074, 125.3984
1109.557, 134.8008
1110.039, 98.87891
1110.521, 16.56641
1111.003, 39.81641
1111.485, 52.40625
1111.967, 22.39844
1112.449, 98.62500
1112.931, 232.6484
1113.414, 288.3594
1113.896, 240.1758
1114.378, 197.3398
1114.860, 156.9180
1115.342, 133.1094
1115.824, 151.3828
1116.306, 176.0078
1116.788, 126.1836
1117.271, 40.88672
1117.753, 6.558594
1118.235, 124.2500
1118.717, 179.8477
1119.199, 137.7461
1119.681, 74.79688
1120.163, 78.37109
1120.645, 120.6055
1121.127, 117.7070
1121.609, 69.17578
1122.092, 9.863281
1122.574, 97.10156
1123.056, 140.1367
1123.538, 54.38281
1124.020, 88.33594
1124.502, 134.9570
1124.984, 98.66406
1125.466, 105.2617
1125.949, 185.6406
1126.431, 228.2695
1126.913, 93.63672
1127.395, 55.11328
1127.877, 94.28125
1128.359, 36.15234
1128.841, 25.21875
1129.323, 90.99609
1129.806, 148.5664
1130.288, 198.5664
1130.770, 227.4961
1131.252, 204.4297
1131.734, 160.6523
1132.216, 138.7266
1132.698, 159.6836
1133.180, 141.0938
1133.662, 73.18750
1134.145, 6.839844
1134.627, 47.71875
1135.109, 66.87891
1135.591, 37.07812
1136.073, 204.4961
1136.555, 280.8867
1137.037, 100.5898
1137.519, 22.48438
1138.001, 94.53125
1138.484, 200.7617
1138.966, 212.3906
1139.448, 164.4414
1139.930, 135.4766
1140.412, 129.5195
1140.894, 136.0703
1141.376, 171.9648
1141.858, 191.5312
1142.341, 178.6250
1142.823, 148.8594
1143.305, 121.9453
1143.787, 102.2969
1144.269, 118.1328
1144.751, 178.9141
1145.233, 220.9180
1145.715, 180.2930
1146.198, 139.4062
1146.680, 148.8945
1147.162, 195.2812
1147.644, 208.1328
1148.126, 190.9297
1148.608, 192.1484
1149.090, 237.3047
1149.572, 279.0352
1150.054, 270.5352
1150.536, 249.4336
1151.019, 262.8242
1151.501, 318.8398
1151.983, 280.7852
1152.465, 142.8867
1152.947, 51.72656
1153.429, 136.2930
1153.911, 247.5078
1154.393, 225.7422
1154.876, 136.5195
1155.358, 95.73438
1155.840, 125.8281
1156.322, 157.4648
1156.804, 188.0508
1157.286, 227.1055
1157.768, 309.6406
1158.250, 386.2227
1158.733, 379.3906
1159.215, 309.1562
1159.697, 260.0312
1160.179, 272.7461
1160.661, 241.7383
1161.143, 141.3984
1161.625, 33.62109
1162.107, 23.44531
1162.589, 34.55078
1163.072, 4.839844
1163.554, 91.51172
1164.036, 176.4648
1164.518, 268.0430
1165.000, 316.0234
1165.482, 290.5273
1165.964, 243.9844
1166.446, 294.2695
1166.928, 389.6289
1167.411, 403.9961
1167.893, 301.2734
1168.375, 211.8203
1168.857, 160.9844
1169.339, 154.5234
1169.821, 221.8945
1170.303, 320.9453
1170.785, 299.9375
1171.268, 198.2734
1171.750, 152.0039
1172.232, 231.4492
1172.714, 299.0430
1173.196, 289.1719
1173.678, 259.3828
1174.160, 234.4922
1174.642, 217.2812
1175.125, 240.8086
1175.607, 296.5117
1176.089, 339.6055
1176.571, 335.4922
1177.053, 327.1406
1177.535, 339.3828
1178.017, 351.7578
1178.499, 347.6797
1178.981, 327.3359
1179.464, 266.0508
1179.946, 168.2812
1180.428, 120.8242
1180.910, 278.1016
1181.392, 412.7500
1181.874, 356.9180
1182.356, 215.2656
1182.838, 161.9570
1183.320, 199.4570
1183.803, 185.0273
1184.285, 105.2812
1184.767, 47.17578
1185.249, 96.07031
1185.731, 163.3320
1186.213, 188.1562
1186.695, 187.3828
1187.177, 223.5469
1187.660, 302.5352
1188.142, 288.4648
1188.624, 143.2188
1189.106, 32.12500
1189.588, 175.3359
1190.070, 351.6016
1190.552, 352.9414
1191.034, 204.5781
1191.516, 149.6992
1191.999, 196.7734
1192.481, 253.8828
1192.963, 315.7578
1193.445, 335.2070
1193.927, 183.7422
1194.409, 6.546875
1194.891, 35.80078
1195.373, 68.75391
1195.855, 168.0742
1196.338, 267.4180
1196.820, 310.2812
1197.302, 254.9336
1197.784, 173.6797
1198.266, 126.5781
1198.748, 115.5508
1199.230, 149.0781
1199.712, 226.3359
1200.195, 244.3516
1200.677, 194.4922
1201.159, 152.5039
1201.641, 166.6133
1202.123, 198.8984
1202.605, 212.0508
1203.087, 211.0703
1203.569, 205.3047
1204.052, 200.8125
1204.534, 170.2070
1205.016, 105.3828
1205.498, 63.74219
1205.980, 100.6211
1206.462, 169.3555
1206.944, 236.6758
1207.426, 290.8398
1207.908, 299.6406
1208.391, 249.7773
1208.873, 184.3945
1209.355, 95.76562
1209.837, 41.01953
1210.319, 93.57031
1210.801, 185.9883
1211.283, 258.6016
1211.765, 306.1875
1212.247, 315.2422
1212.730, 278.6367
1213.212, 225.4648
1213.694, 152.3008
1214.176, 96.11328
1214.658, 116.7695
1215.140, 156.0898
1215.622, 128.9766
1216.104, 51.43750
1216.587, 44.40234
1217.069, 143.2109
1217.551, 211.6328
1218.033, 228.0078
1218.515, 207.4492
1218.997, 125.7852
1219.479, 42.60156
1219.961, 33.94922
1220.443, 103.1250
1220.926, 167.0469
1221.408, 225.2695
1221.890, 256.7734
1222.372, 254.5312
1222.854, 231.6602
1223.336, 184.4844
1223.818, 138.1953
1224.300, 124.0742
1224.782, 147.7344
1225.265, 176.6445
1225.747, 215.9219
1226.229, 232.3555
1226.711, 209.0352
1227.193, 177.5195
1227.675, 176.6211
1228.157, 189.1055
1228.639, 196.0938
1229.122, 195.3398
1229.604, 190.3203
1230.086, 183.8555
1230.568, 155.5195
1231.050, 85.04688
1231.532, 15.95703
1232.014, 5.003906
1232.496, 20.57031
1232.979, 21.82422
1233.461, 2.101563
1233.943, 0.1601560
1234.425, 14.71875
1234.907, 44.29297
1235.389, 105.1758
1235.871, 151.3359
1236.353, 98.00391
1236.835, 26.43750
1237.318, 67.97656
1237.800, 255.0234
1238.282, 313.4609
1238.764, 237.7109
1239.246, 137.7305
1239.728, 41.85938
1240.210, 5.976563
1240.692, 78.37891
1241.175, 208.9531
1241.657, 266.2773
1242.139, 240.2930
1242.621, 206.2305
1243.103, 164.3086
1243.585, 125.6250
1244.067, 78.60547
1244.549, 51.79297
1245.031, 103.4336
1245.514, 174.7539
1245.996, 183.3789
1246.478, 121.0938
1246.960, 104.7695
1247.442, 133.9180
1247.924, 173.8633
1248.406, 240.7109
1248.888, 268.3945
1249.370, 177.4922
1249.853, 49.78906
1250.335, 5.992188
1250.817, 7.226563
1251.299, 22.73047
1251.781, 37.32422
1252.263, 71.98438
1252.745, 182.9219
1253.227, 261.4570
1253.710, 238.5977
1254.192, 173.4258
1254.674, 146.3750
1255.156, 145.4180
1255.638, 72.78906
1256.120, 67.24609
1256.602, 142.0195
1257.084, 0.7382810
1257.567, 124.0195
1258.049, 129.5820
1258.531, 101.6953
1259.013, 183.8633
1259.495, 331.4688
1259.977, 361.2891
1260.459, 270.4883
1260.941, 192.3047
1261.423, 205.5898
1261.906, 212.9844
1262.388, 186.2656
1262.870, 151.3555
1263.352, 148.2930
1263.834, 169.8594
1264.316, 226.8867
1264.798, 312.3359
1265.280, 334.7695
1265.762, 194.2930
1266.245, 116.3594
1266.727, 151.0156
1267.209, 232.6406
1267.691, 311.2188
1268.173, 363.0000
1268.655, 327.4062
1269.137, 207.5469
1269.619, 165.0039
1270.102, 254.0234
1270.584, 308.8242
1271.066, 291.5039
1271.548, 242.1250
1272.030, 167.3906
1272.512, 116.2500
1272.994, 172.0820
1273.476, 327.9766
1273.958, 392.4766
1274.441, 334.4453
1274.923, 301.2266
1275.405, 334.4727
1275.887, 415.6133
1276.369, 476.0391
1276.851, 488.8867
1277.333, 391.2461
1277.815, 210.2070
1278.297, 113.8164
1278.780, 105.8906
1279.262, 118.1445
1279.744, 138.3516
1280.226, 155.3711
1280.708, 155.7344
1281.190, 154.1445
1281.672, 160.5469
1282.154, 174.1797
1282.637, 194.8477
1283.119, 221.5508
1283.601, 242.9414
1284.083, 258.9102
1284.565, 257.6562
1285.047, 207.5703
1285.529, 162.8320
1286.011, 154.4883
1286.494, 167.1484
1286.976, 160.5703
1287.458, 137.2695
1287.940, 95.67188
1288.422, 28.93359
1288.904, 1.984375
1289.386, 93.92188
1289.868, 152.3203
1290.350, 114.7031
1290.833, 33.70312
1291.315, 2.339844
1291.797, 4.300781
1292.279, 36.66406
1292.761, 45.78125
1293.243, 0.0000000E+00
##END=



