##NAMES=Clinoatacamite
##RRUFFID=R061066
##IDEAL CHEMISTRY=Cu^2+^_2_Cl(OH)_3_
##LOCALITY=Esperanza mine, Diego de Almagro, Chile
##OWNER=RRUFF
##SOURCE=Bob Jenkins
##DESCRIPTION=Aggregates of dark green pseudo-octahedral crystals associated with malachite
##STATUS=The identification of this mineral is confirmed by single-crystal X-ray diffraction and chemical analysis.
##URL=rruff.info/R061066
##MEASURED CHEMISTRY=Cu_2.00_Cl_1.00_(OH)_3_
109.4752, 0.0000000E+00
109.9573, 22.09241
110.4395, 36.54980
110.9216, 14.60083
111.4037, 7.435791
111.8858, 9.705444
112.3679, 17.43225
112.8500, 63.48865
113.3322, 116.9066
113.8143, 172.9172
114.2964, 238.3905
114.7785, 332.5387
115.2606, 471.6603
115.7427, 583.5737
116.2249, 629.8196
116.7070, 636.7637
117.1891, 627.5382
117.6712, 608.1700
118.1533, 581.1267
118.6354, 553.6768
119.1175, 531.1254
119.5997, 497.2686
120.0818, 427.7892
120.5639, 348.3384
121.0460, 296.6642
121.5281, 297.4554
122.0102, 344.1438
122.4924, 397.2150
122.9745, 442.3970
123.4566, 513.1375
123.9387, 613.9285
124.4208, 746.0828
124.9029, 910.5483
125.3851, 1108.092
125.8672, 1339.254
126.3493, 1602.485
126.8314, 1925.026
127.3135, 2258.260
127.7956, 2557.594
128.2778, 2848.953
128.7599, 3210.971
129.2420, 3733.085
129.7241, 4456.006
130.2062, 5096.498
130.6884, 5726.847
131.1705, 6228.206
131.6526, 6534.385
132.1347, 6649.066
132.6168, 6623.801
133.0989, 6515.852
133.5811, 6335.362
134.0632, 6012.301
134.5453, 5467.645
135.0274, 4868.301
135.5095, 4278.573
135.9916, 3725.768
136.4738, 3238.059
136.9559, 2858.588
137.4380, 2627.948
137.9201, 2442.281
138.4022, 2312.384
138.8843, 2216.772
139.3665, 2133.751
139.8486, 2059.320
140.3307, 2011.088
140.8128, 2018.450
141.2949, 2112.653
141.7770, 2214.610
142.2592, 2317.536
142.7413, 2429.479
143.2234, 2553.293
143.7055, 2688.966
144.1876, 2849.280
144.6697, 3059.642
145.1519, 3306.313
145.6340, 3627.051
146.1161, 4083.477
146.5982, 4525.491
147.0803, 4856.196
147.5624, 5130.772
148.0446, 5314.092
148.5267, 5305.422
149.0088, 5097.503
149.4909, 4815.634
149.9730, 4438.860
150.4551, 4011.375
150.9372, 3616.071
151.4194, 3278.194
151.9015, 2985.630
152.3836, 2711.126
152.8657, 2443.343
153.3478, 2201.348
153.8299, 1990.001
154.3121, 1808.803
154.7942, 1656.882
155.2763, 1534.066
155.7584, 1442.318
156.2405, 1383.654
156.7226, 1361.880
157.2048, 1355.990
157.6869, 1358.107
158.1690, 1365.964
158.6511, 1379.014
159.1332, 1404.243
159.6153, 1432.902
160.0975, 1447.826
160.5796, 1446.349
161.0617, 1433.920
161.5438, 1417.710
162.0259, 1398.025
162.5080, 1366.721
162.9902, 1318.447
163.4723, 1255.961
163.9544, 1183.872
164.4365, 1097.984
164.9186, 1016.397
165.4007, 952.0657
165.8829, 901.2291
166.3650, 852.2042
166.8471, 802.5316
167.3292, 753.5795
167.8113, 707.1910
168.2934, 659.0885
168.7756, 619.2310
169.2577, 603.3739
169.7398, 613.3190
170.2219, 617.6908
170.7040, 595.3512
171.1861, 561.1891
171.6683, 535.5059
172.1504, 524.7516
172.6325, 518.0210
173.1146, 504.3978
173.5967, 483.3757
174.0788, 459.4329
174.5610, 429.0297
175.0431, 398.2209
175.5252, 374.3048
176.0073, 359.1028
176.4894, 350.4650
176.9715, 349.5802
177.4537, 358.2974
177.9358, 358.5374
178.4179, 334.3873
178.9000, 301.2463
179.3821, 273.8624
179.8642, 256.4082
180.3464, 243.8719
180.8285, 231.8907
181.3106, 221.3398
181.7927, 205.2164
182.2748, 157.7814
182.7569, 164.5324
183.2391, 164.7803
183.7212, 158.6383
184.2033, 127.9260
184.6854, 128.7891
185.1675, 117.0475
185.6496, 104.8707
186.1318, 110.3188
186.6139, 83.23401
187.0960, 88.32935
187.5781, 80.60040
188.0602, 78.82227
188.5423, 64.39282
189.0245, 53.94299
189.5066, 56.23987
189.9887, 51.45178
190.4708, 35.52637
190.9529, 18.87927
191.4350, 36.33826
191.9172, 45.44452
192.3993, 46.67969
192.8814, 16.47144
193.3635, 26.90717
193.8456, 21.04736
194.3277, 14.49384
194.8099, 30.59711
195.2920, 4.940186
195.7741, 20.67761
196.2562, 19.88440
196.7383, 26.64978
197.2204, 17.03247
197.7026, 12.46802
198.1847, 24.28265
198.6668, 27.02094
199.1489, 15.49835
199.6310, 22.71393
200.1131, 3.565308
200.5953, 0.4649050
201.0774, 15.31006
201.5595, 4.580811
202.0416, 12.06494
202.5237, 12.60297
203.0058, 18.40149
203.4880, 5.426697
203.9701, 5.530823
204.4522, 18.72552
204.9343, 3.200073
205.4164, 19.21844
205.8985, 15.99780
206.3807, 9.379089
206.8628, 0.3121340
207.3449, 5.339844
207.8270, 1.215698
208.3091, 21.55804
208.7912, 37.63745
209.2734, 44.97516
209.7555, 47.05597
210.2376, 45.03662
210.7197, 39.17010
211.2018, 31.50891
211.6839, 23.11548
212.1661, 13.88031
212.6482, 6.503418
213.1303, 1.385315
213.6124, 1.222839
214.0945, 0.2794190
214.5766, 3.975952
215.0588, 8.495605
215.5409, 10.57025
216.0230, 10.24347
216.5051, 9.879944
216.9872, 10.99457
217.4693, 10.84015
217.9515, 5.607483
218.4336, 3.860962
218.9157, 10.36212
219.3978, 6.822876
219.8799, 5.605591
220.3620, 16.56989
220.8442, 27.09064
221.3263, 33.05420
221.8084, 31.02625
222.2905, 22.14484
222.7726, 12.17664
223.2547, 2.540894
223.7369, 5.858398
224.2190, 7.414612
224.7011, 3.019470
225.1832, 13.11932
225.6653, 12.68140
226.1474, 4.898987
226.6296, 8.0570001E-03
227.1117, 8.198303
227.5938, 23.69208
228.0759, 27.75989
228.5580, 14.85144
229.0401, 0.3633420
229.5223, 5.691406
230.0044, 5.812317
230.4865, 5.144592
230.9686, 4.857544
231.4507, 5.843262
231.9328, 9.954651
232.4150, 19.00476
232.8971, 25.88324
233.3792, 23.20166
233.8613, 15.62237
234.3434, 10.79987
234.8255, 12.14044
235.3077, 16.96313
235.7898, 22.50684
236.2719, 29.31732
236.7540, 33.49768
237.2361, 30.20776
237.7182, 23.39539
238.2004, 19.33630
238.6825, 20.46198
239.1646, 23.53510
239.6467, 24.17828
240.1288, 22.25873
240.6109, 24.36249
241.0931, 38.22290
241.5752, 56.04205
242.0573, 63.58997
242.5394, 54.40649
243.0215, 43.77673
243.5036, 45.54431
243.9858, 57.73743
244.4679, 65.40112
244.9500, 60.86188
245.4321, 49.88000
245.9142, 43.12067
246.3963, 41.06702
246.8785, 41.81995
247.3606, 44.61774
247.8427, 49.44580
248.3248, 57.31238
248.8069, 70.50916
249.2890, 83.76251
249.7712, 86.99646
250.2533, 77.80322
250.7354, 71.53638
251.2175, 76.14246
251.6996, 86.94574
252.1817, 95.68713
252.6639, 100.2501
253.1460, 102.5085
253.6281, 104.9998
254.1102, 108.0079
254.5923, 109.5483
255.0744, 108.1990
255.5566, 105.6729
256.0387, 103.4711
256.5208, 101.8539
257.0029, 101.6948
257.4850, 104.1793
257.9671, 109.7483
258.4492, 115.5763
258.9314, 125.0092
259.4135, 132.1843
259.8956, 130.9540
260.3777, 121.7807
260.8598, 111.3783
261.3419, 106.6764
261.8241, 107.5590
262.3062, 104.8462
262.7883, 96.04504
263.2704, 87.22455
263.7525, 82.69324
264.2346, 81.94659
264.7168, 81.90872
265.1989, 80.10590
265.6810, 77.16547
266.1631, 78.65430
266.6452, 91.69012
267.1273, 100.5017
267.6095, 100.6023
268.0916, 93.93695
268.5737, 83.62082
269.0558, 70.72952
269.5379, 57.94376
270.0201, 53.70605
270.5022, 68.73816
270.9843, 79.54816
271.4664, 84.02911
271.9485, 84.06171
272.4306, 80.34756
272.9128, 73.33606
273.3949, 65.52606
273.8770, 61.57568
274.3591, 64.51715
274.8412, 65.85733
275.3233, 64.19321
275.8055, 62.54709
276.2876, 63.72052
276.7697, 67.25266
277.2518, 70.42548
277.7339, 69.00516
278.2160, 61.54364
278.6982, 55.52069
279.1803, 52.47177
279.6624, 50.48047
280.1445, 49.92554
280.6266, 50.25754
281.1087, 50.04410
281.5909, 47.51425
282.0730, 42.42535
282.5551, 38.92020
283.0372, 38.93457
283.5193, 38.88141
284.0014, 37.37091
284.4836, 35.16492
284.9657, 33.03412
285.4478, 31.28668
285.9299, 30.57602
286.4120, 33.05676
286.8941, 42.72595
287.3763, 46.14545
287.8584, 30.81088
288.3405, 10.19141
288.8226, 0.8123470
289.3047, 3.788147
289.7868, 15.78665
290.2690, 26.14398
290.7511, 35.01816
291.2332, 38.56870
291.7153, 30.40182
292.1974, 19.52316
292.6795, 14.22015
293.1617, 15.63452
293.6438, 20.20306
294.1259, 26.50427
294.6080, 34.00107
295.0901, 40.73981
295.5722, 47.46674
296.0544, 51.19278
296.5365, 47.54413
297.0186, 37.21368
297.5007, 28.48206
297.9828, 26.01389
298.4649, 26.75589
298.9471, 25.50632
299.4292, 21.21017
299.9113, 16.48792
300.3934, 12.55035
300.8755, 9.773468
301.3576, 10.90213
301.8398, 20.33893
302.3219, 30.77170
302.8040, 36.17590
303.2861, 36.89291
303.7682, 36.65414
304.2503, 37.56610
304.7325, 39.49902
305.2146, 41.47104
305.6967, 46.67514
306.1788, 48.48996
306.6609, 40.04028
307.1430, 27.28262
307.6252, 22.60492
308.1073, 31.81705
308.5894, 47.45264
309.0715, 53.10977
309.5536, 37.68219
310.0357, 28.57260
310.5179, 32.20639
311.0000, 39.17200
311.4821, 40.54962
311.9642, 34.74341
312.4463, 26.34952
312.9284, 20.84317
313.4106, 18.40347
313.8927, 18.46893
314.3748, 24.06424
314.8569, 29.00586
315.3390, 28.42966
315.8211, 24.20358
316.3033, 22.82449
316.7854, 30.55127
317.2675, 45.99457
317.7496, 52.05600
318.2317, 41.71951
318.7138, 29.82053
319.1960, 17.22137
319.6781, 6.174713
320.1602, 0.2508240
320.6423, 0.3806150
321.1244, 3.582275
321.6065, 7.780640
322.0887, 12.81262
322.5708, 16.24396
323.0529, 17.95523
323.5350, 17.51447
324.0171, 12.18893
324.4992, 1.533386
324.9814, 5.873474
325.4635, 0.9846500
325.9456, 20.72409
326.4277, 35.04477
326.9098, 40.31595
327.3919, 40.28110
327.8741, 36.91858
328.3562, 30.98459
328.8383, 26.20065
329.3204, 22.86844
329.8025, 22.07565
330.2846, 27.86609
330.7668, 42.01932
331.2489, 53.75107
331.7310, 53.09097
332.2131, 43.65948
332.6952, 37.52008
333.1773, 37.09219
333.6595, 39.73160
334.1416, 45.77438
334.6237, 53.28320
335.1058, 54.43314
335.5879, 43.68851
336.0700, 27.23822
336.5522, 22.41422
337.0343, 38.33569
337.5164, 48.06476
337.9985, 39.60321
338.4806, 25.98120
338.9627, 23.50821
339.4449, 35.65027
339.9270, 51.67468
340.4091, 57.84528
340.8912, 50.38315
341.3733, 46.66589
341.8554, 47.97903
342.3376, 51.18582
342.8197, 56.68265
343.3018, 62.91101
343.7839, 66.05682
344.2660, 62.58521
344.7481, 53.89465
345.2303, 51.12024
345.7124, 55.29694
346.1945, 64.43176
346.6766, 84.81567
347.1587, 107.4426
347.6408, 120.0867
348.1230, 117.6974
348.6051, 108.9512
349.0872, 108.2866
349.5693, 117.8876
350.0514, 124.8060
350.5335, 123.0038
351.0157, 120.8551
351.4978, 124.4232
351.9799, 133.6070
352.4620, 142.8366
352.9441, 148.6036
353.4262, 151.3503
353.9084, 151.0976
354.3905, 145.0574
354.8726, 142.9507
355.3547, 159.8752
355.8368, 186.7535
356.3189, 201.9767
356.8011, 190.6047
357.2832, 173.3347
357.7653, 169.4171
358.2474, 177.1541
358.7295, 184.1181
359.2116, 183.2214
359.6938, 179.3336
360.1759, 186.0560
360.6580, 210.5083
361.1401, 229.5150
361.6222, 232.7966
362.1043, 228.9494
362.5865, 229.6985
363.0686, 237.6781
363.5507, 246.2442
364.0328, 246.8894
364.5149, 236.8063
364.9970, 230.6227
365.4792, 232.3840
365.9613, 233.7661
366.4434, 230.5063
366.9255, 223.3216
367.4076, 214.4158
367.8897, 204.6518
368.3719, 195.2380
368.8540, 192.3181
369.3361, 203.3215
369.8182, 209.2790
370.3003, 206.3299
370.7824, 197.8685
371.2646, 186.3167
371.7467, 172.4844
372.2288, 157.5146
372.7109, 141.1819
373.1930, 123.0564
373.6751, 111.3221
374.1573, 112.2902
374.6394, 114.1513
375.1215, 108.0895
375.6036, 95.86456
376.0857, 84.97693
376.5678, 79.38565
377.0500, 77.33643
377.5321, 76.83954
378.0142, 78.16116
378.4963, 77.60156
378.9784, 72.35275
379.4605, 63.76831
379.9427, 55.95200
380.4248, 47.21295
380.9069, 41.81213
381.3890, 44.77084
381.8711, 52.09875
382.3532, 55.83749
382.8354, 53.32501
383.3175, 46.97046
383.7996, 38.19119
384.2817, 24.13757
384.7638, 16.36011
385.2459, 21.17404
385.7281, 26.88754
386.2102, 26.22134
386.6923, 19.54913
387.1744, 10.05017
387.6565, 0.8677670
388.1386, 11.93973
388.6208, 13.78323
389.1029, 7.522247
389.5850, 19.24265
390.0671, 7.032654
390.5492, 12.15741
391.0313, 19.92062
391.5135, 10.95389
391.9956, 3.551239
392.4777, 9.013306
392.9598, 4.486969
393.4419, 2.227844
393.9240, 5.449524
394.4062, 8.931213
394.8883, 8.249359
395.3704, 4.782288
395.8525, 3.669952
396.3346, 11.10419
396.8167, 20.73029
397.2989, 20.48068
397.7810, 9.768555
398.2631, 1.618256
398.7452, 3.777344
399.2273, 12.38138
399.7094, 17.61728
400.1916, 18.32590
400.6737, 18.08136
401.1558, 17.78946
401.6379, 17.76694
402.1200, 17.81653
402.6021, 18.20547
403.0843, 18.45850
403.5664, 17.61334
404.0485, 15.10217
404.5306, 17.36392
405.0127, 29.48700
405.4948, 38.84573
405.9770, 36.50912
406.4591, 27.48251
406.9412, 19.46368
407.4233, 17.96979
407.9054, 22.62231
408.3875, 33.25058
408.8697, 59.34961
409.3518, 73.23468
409.8339, 61.08127
410.3160, 44.98633
410.7981, 41.55005
411.2802, 52.24399
411.7624, 65.59192
412.2445, 72.74591
412.7266, 74.70642
413.2087, 73.95807
413.6908, 69.49194
414.1729, 64.94888
414.6551, 63.21298
415.1372, 62.96225
415.6193, 61.65839
416.1014, 57.70239
416.5835, 55.12271
417.0656, 57.28699
417.5478, 62.01877
418.0299, 63.72723
418.5120, 59.68060
418.9941, 54.13312
419.4762, 53.99344
419.9583, 61.96277
420.4405, 67.17087
420.9226, 66.79697
421.4047, 65.09412
421.8868, 64.94086
422.3689, 66.12570
422.8510, 66.87769
423.3332, 65.95038
423.8153, 63.61237
424.2974, 61.27515
424.7795, 58.95004
425.2616, 56.63074
425.7437, 53.46390
426.2259, 50.80423
426.7080, 50.41782
427.1901, 52.48520
427.6722, 54.60315
428.1543, 53.07449
428.6364, 48.45062
429.1186, 49.09650
429.6007, 59.65024
430.0828, 68.10672
430.5649, 63.05661
431.0470, 50.62082
431.5291, 43.73898
432.0113, 49.44656
432.4934, 57.57343
432.9755, 60.02805
433.4576, 57.60190
433.9397, 52.87997
434.4218, 46.13608
434.9040, 39.10739
435.3861, 34.24283
435.8682, 30.86319
436.3503, 32.14713
436.8324, 45.13651
437.3145, 57.41360
437.7967, 57.76099
438.2788, 48.62540
438.7609, 25.62314
439.2430, 41.79922
439.7251, 50.69537
440.2072, 52.70297
440.6894, 27.19049
441.1715, 37.21774
441.6536, 33.00253
442.1357, 28.20319
442.6178, 43.23212
443.0999, 21.72253
443.5821, 36.43661
444.0642, 36.69064
444.5463, 43.56247
445.0284, 36.10376
445.5105, 33.02002
445.9926, 43.73309
446.4748, 46.39215
446.9569, 37.27985
447.4390, 44.57178
447.9211, 22.55566
448.4032, 25.65317
448.8853, 39.35770
449.3675, 30.43921
449.8496, 37.97507
450.3317, 39.45712
450.8138, 13.33273
451.2959, 35.18701
451.7780, 36.30203
452.2602, 16.11658
452.7423, 36.34894
453.2244, 19.09134
453.7065, 15.20761
454.1886, 21.40613
454.6707, 5.479279
455.1529, 19.32596
455.6350, 26.70154
456.1171, 27.93280
456.5992, 4.709076
457.0813, 13.08759
457.5634, 8.806061
458.0455, 4.005371
458.5276, 16.83017
459.0098, 2.823761
459.4919, 9.719543
459.9740, 9.409576
460.4561, 14.98230
460.9382, 5.727295
461.4203, 5.321625
461.9025, 13.70676
462.3846, 3.152618
462.8667, 12.73178
463.3488, 15.42203
463.8309, 9.409973
464.3130, 1.291779
464.7952, 2.249115
465.2773, 6.375916
465.7594, 9.321991
466.2415, 11.51834
466.7236, 3.858521
467.2057, 4.775452
467.6879, 12.31049
468.1700, 0.7031250
468.6521, 5.556946
469.1342, 6.734406
469.6163, 1.062286
470.0984, 10.73480
470.5806, 14.07388
471.0627, 9.124786
471.5448, 2.386414
472.0269, 2.158325
472.5090, 7.548279
472.9911, 6.764404
473.4733, 5.187897
473.9554, 14.88391
474.4375, 10.32562
474.9196, 2.765900
475.4017, 13.70865
475.8839, 22.59952
476.3660, 26.35983
476.8481, 17.51645
477.3302, 2.576263
477.8123, 2.209961
478.2944, 8.142426
478.7766, 23.11191
479.2587, 29.49362
479.7408, 25.41364
480.2229, 22.21292
480.7050, 20.20132
481.1871, 18.60449
481.6693, 14.80563
482.1514, 11.77826
482.6335, 15.45059
483.1156, 28.61661
483.5977, 45.27307
484.0798, 55.08588
484.5620, 56.99249
485.0441, 60.08597
485.5262, 68.92264
486.0083, 74.46243
486.4904, 67.04120
486.9725, 51.09598
487.4547, 42.12201
487.9368, 51.78735
488.4189, 65.77753
488.9010, 66.68112
489.3831, 58.22278
489.8652, 58.80045
490.3474, 76.98401
490.8295, 101.6445
491.3116, 115.5107
491.7937, 114.2951
492.2758, 112.8917
492.7579, 110.3828
493.2401, 108.5280
493.7222, 108.9657
494.2043, 110.8329
494.6864, 111.2061
495.1685, 108.0189
495.6506, 104.9417
496.1328, 112.1303
496.6149, 134.1488
497.0970, 149.5688
497.5791, 146.7191
498.0612, 143.7903
498.5433, 155.1324
499.0255, 178.1436
499.5076, 197.7436
499.9897, 205.1790
500.4718, 206.8736
500.9539, 209.1673
501.4360, 212.2885
501.9182, 217.9926
502.4003, 227.6435
502.8824, 238.8441
503.3645, 247.2261
503.8466, 251.5649
504.3287, 255.8536
504.8109, 260.3624
505.2930, 264.6593
505.7751, 267.7165
506.2572, 270.3322
506.7393, 274.3633
507.2214, 280.8079
507.7036, 289.5347
508.1857, 302.9820
508.6678, 326.5199
509.1499, 334.5341
509.6320, 308.0536
510.1141, 277.1765
510.5963, 259.9750
511.0784, 256.3392
511.5605, 261.0396
512.0426, 284.0211
512.5247, 306.1045
513.0068, 299.0485
513.4890, 268.1827
513.9711, 245.8939
514.4532, 247.1912
514.9353, 258.4736
515.4174, 255.1287
515.8995, 227.6217
516.3817, 208.9001
516.8638, 209.0795
517.3459, 208.5950
517.8280, 191.7390
518.3101, 165.2094
518.7922, 146.4163
519.2744, 144.7768
519.7565, 151.5016
520.2386, 150.6330
520.7207, 139.8285
521.2028, 129.4025
521.6849, 119.3105
522.1671, 111.9792
522.6492, 109.6452
523.1313, 110.4281
523.6134, 106.9387
524.0955, 90.58441
524.5776, 73.40915
525.0598, 62.06464
525.5419, 56.29050
526.0240, 56.23532
526.5061, 62.24844
526.9882, 69.91376
527.4703, 73.09485
527.9525, 70.54492
528.4346, 66.10135
528.9167, 55.62906
529.3988, 47.91724
529.8809, 50.18103
530.3630, 56.43588
530.8452, 56.64139
531.3273, 46.20877
531.8094, 30.71753
532.2915, 17.03662
532.7736, 5.675323
533.2557, 0.6956790
533.7379, 0.4464110
534.2200, 2.305542
534.7021, 5.962402
535.1842, 9.757446
535.6663, 10.74512
536.1484, 6.226379
536.6306, 2.209808
537.1127, 0.4022520
537.5948, 1.333405
538.0769, 7.483551
538.5590, 19.31650
539.0411, 30.82458
539.5233, 36.31482
540.0054, 36.13293
540.4875, 31.81503
540.9696, 19.11313
541.4517, 8.095886
541.9338, 1.3428000E-02
542.4160, 4.701508
542.8981, 4.371002
543.3802, 1.261597
543.8623, 7.112579
544.3444, 9.220337
544.8265, 8.976990
545.3087, 9.109924
545.7908, 9.889435
546.2729, 13.43628
546.7550, 22.33414
547.2371, 33.79129
547.7192, 38.73318
548.2014, 34.28317
548.6835, 29.15414
549.1656, 23.04001
549.6477, 17.64069
550.1298, 13.79483
550.6119, 11.86615
551.0941, 12.68561
551.5762, 17.30338
552.0583, 23.99783
552.5404, 27.37149
553.0225, 26.20587
553.5046, 27.75009
553.9868, 37.43066
554.4689, 46.46304
554.9510, 45.79230
555.4331, 36.74985
555.9152, 29.93073
556.3973, 31.38184
556.8795, 33.86273
557.3616, 29.48227
557.8437, 21.40933
558.3258, 18.94086
558.8079, 26.13892
559.2900, 37.19983
559.7722, 43.88373
560.2543, 47.07285
560.7364, 45.86594
561.2185, 30.72916
561.7006, 21.50580
562.1827, 30.49979
562.6649, 46.50037
563.1470, 53.63263
563.6291, 46.91257
564.1112, 34.75183
564.5933, 22.18835
565.0754, 10.47363
565.5576, 3.750488
566.0397, 2.527832
566.5218, 6.228241
567.0039, 17.25937
567.4860, 32.36768
567.9681, 36.57718
568.4503, 18.45807
568.9324, 7.204559
569.4145, 10.07150
569.8966, 18.81693
570.3787, 27.77310
570.8608, 35.96628
571.3430, 44.80304
571.8251, 56.33102
572.3072, 67.31232
572.7893, 66.98456
573.2714, 52.88763
573.7535, 42.79733
574.2357, 42.93073
574.7178, 46.65805
575.1999, 48.05923
575.6820, 47.29007
576.1641, 45.26755
576.6462, 42.12772
577.1284, 37.87506
577.6105, 28.40582
578.0926, 18.59018
578.5747, 19.76349
579.0568, 35.22815
579.5389, 55.37885
580.0211, 68.99237
580.5032, 76.15298
580.9853, 75.15686
581.4674, 59.22327
581.9495, 44.70004
582.4316, 36.18155
582.9138, 32.12592
583.3959, 31.67911
583.8780, 34.99133
584.3601, 37.64810
584.8422, 34.69949
585.3243, 30.32599
585.8065, 32.58029
586.2886, 41.18530
586.7707, 48.24164
587.2528, 49.11893
587.7349, 45.88779
588.2170, 44.11237
588.6992, 47.46863
589.1813, 45.29254
589.6634, 30.45404
590.1455, 17.45859
590.6276, 16.24210
591.1097, 22.68945
591.5919, 26.66406
592.0740, 22.52792
592.5561, 16.57999
593.0382, 18.55774
593.5203, 26.41162
594.0024, 29.26089
594.4846, 24.76855
594.9667, 16.73984
595.4488, 5.184570
595.9309, 8.188019
596.4130, 6.736572
596.8951, 29.56119
597.3773, 52.81671
597.8594, 42.89478
598.3415, 23.19656
598.8236, 15.84506
599.3057, 21.69049
599.7878, 27.34180
600.2700, 22.48090
600.7521, 10.89566
601.2342, 0.7071230
601.7163, 8.495453
602.1984, 11.56967
602.6805, 5.000458
603.1627, 4.810791
603.6448, 12.23187
604.1269, 17.53729
604.6090, 18.19839
605.0911, 7.673737
605.5732, 0.7966920
606.0554, 1.289337
606.5375, 8.736877
607.0196, 13.36444
607.5017, 13.21445
607.9838, 12.86334
608.4659, 18.42618
608.9481, 28.77304
609.4302, 32.15045
609.9123, 26.62888
610.3944, 19.58740
610.8765, 11.94727
611.3586, 5.460205
611.8408, 2.477753
612.3229, 3.684143
612.8050, 6.249176
613.2871, 7.890686
613.7692, 9.921051
614.2513, 17.68329
614.7335, 27.21329
615.2156, 26.56265
615.6977, 11.08203
616.1798, 7.638397
616.6619, 11.00793
617.1440, 2.998444
617.6262, 12.98993
618.1083, 18.33145
618.5904, 21.27823
619.0725, 18.81400
619.5546, 15.68219
620.0367, 18.85580
620.5189, 31.23502
621.0010, 38.95844
621.4831, 28.80899
621.9652, 15.48489
622.4473, 19.01871
622.9294, 35.76309
623.4116, 45.82977
623.8937, 38.60715
624.3758, 22.59512
624.8579, 13.76547
625.3400, 12.24579
625.8221, 18.53995
626.3043, 44.50424
626.7864, 63.20752
627.2685, 58.35410
627.7506, 39.90131
628.2327, 23.55145
628.7148, 11.68564
629.1970, 5.564423
629.6791, 9.229767
630.1612, 17.41742
630.6433, 23.37445
631.1254, 26.44461
631.6075, 27.82654
632.0897, 27.55185
632.5718, 26.24991
633.0539, 24.81357
633.5360, 21.83063
634.0181, 22.91339
634.5002, 36.07556
634.9824, 45.07620
635.4645, 37.56976
635.9466, 21.01779
636.4287, 11.33350
636.9108, 14.85107
637.3929, 20.19409
637.8751, 20.07867
638.3572, 16.89117
638.8393, 13.83072
639.3214, 11.46289
639.8035, 9.484741
640.2856, 7.409363
640.7678, 6.344055
641.2499, 10.53604
641.7320, 24.01843
642.2141, 32.29007
642.6962, 29.00809
643.1783, 25.36383
643.6605, 27.03091
644.1426, 32.62683
644.6247, 39.07126
645.1068, 47.27341
645.5889, 52.36252
646.0710, 49.50449
646.5532, 42.08594
647.0353, 35.31595
647.5174, 29.81503
647.9995, 22.91669
648.4816, 11.90033
648.9637, 0.4081420
649.4459, 1.368378
649.9280, 21.41849
650.4101, 35.68555
650.8922, 39.68176
651.3743, 39.48553
651.8564, 36.44196
652.3386, 32.03983
652.8207, 30.18283
653.3028, 34.80011
653.7849, 35.56937
654.2670, 19.40939
654.7491, 0.2791750
655.2313, 2.227692
655.7134, 24.20071
656.1955, 41.54211
656.6776, 37.82547
657.1597, 20.75760
657.6418, 11.78036
658.1240, 13.75140
658.6061, 13.28354
659.0882, 6.076111
659.5703, 0.6255800
660.0524, 3.410858
660.5345, 1.329987
661.0167, 7.604218
661.4988, 29.27121
661.9809, 45.29257
662.4630, 42.87198
662.9451, 32.95578
663.4272, 28.08835
663.9094, 28.95294
664.3915, 29.84961
664.8736, 27.16302
665.3557, 23.32312
665.8378, 25.20892
666.3199, 34.52731
666.8021, 37.11331
667.2842, 28.26581
667.7663, 18.25348
668.2484, 14.93976
668.7305, 14.94348
669.2126, 10.29706
669.6948, 4.092926
670.1769, 12.99051
670.6590, 8.577484
671.1411, 1.105133
671.6232, 11.41217
672.1053, 20.47180
672.5875, 25.52496
673.0696, 25.03738
673.5517, 21.38260
674.0338, 17.79178
674.5159, 14.56513
674.9980, 8.970337
675.4802, 3.204010
675.9623, 7.156921
676.4444, 11.92157
676.9265, 42.07404
677.4086, 52.25189
677.8907, 33.77380
678.3729, 20.63385
678.8550, 21.01382
679.3371, 24.32404
679.8192, 21.35162
680.3013, 16.90247
680.7834, 24.73746
681.2656, 50.08771
681.7477, 71.84808
682.2298, 58.32889
682.7119, 21.27570
683.1940, 6.269623
683.6761, 16.80069
684.1583, 28.80649
684.6404, 31.71481
685.1225, 28.29300
685.6046, 22.56873
686.0867, 11.57584
686.5688, 8.314240
687.0510, 23.74017
687.5331, 33.74075
688.0152, 23.68567
688.4973, 6.176849
688.9794, 1.632263
689.4615, 3.762024
689.9437, 11.27182
690.4258, 11.78616
690.9079, 8.706787
691.3900, 11.19504
691.8721, 18.67627
692.3542, 28.15201
692.8364, 38.85751
693.3185, 47.59668
693.8006, 50.15607
694.2827, 46.38205
694.7648, 39.15540
695.2469, 21.41937
695.7291, 11.65414
696.2112, 21.54361
696.6933, 35.67450
697.1754, 39.65598
697.6575, 33.92365
698.1396, 31.46899
698.6218, 42.21942
699.1039, 52.75482
699.5860, 51.50195
700.0681, 44.22858
700.5502, 42.46710
701.0323, 47.68890
701.5145, 50.26096
701.9966, 32.96945
702.4787, 49.29788
702.9608, 58.34433
703.4429, 60.50015
703.9250, 35.13199
704.4072, 45.30124
704.8893, 41.22629
705.3714, 36.56564
705.8535, 51.73187
706.3356, 30.33615
706.8177, 44.98111
707.2999, 45.21158
707.7820, 38.42401
708.2641, 36.17502
708.7462, 31.36987
709.2283, 26.51862
709.7104, 28.40683
710.1926, 42.19852
710.6747, 55.68396
711.1568, 48.87186
711.6389, 26.65671
712.1210, 8.460388
712.6031, 4.057739
713.0853, 8.237732
713.5674, 1.021637
714.0495, 12.95581
714.5316, 23.09485
715.0137, 30.12424
715.4958, 31.43817
715.9780, 20.61316
716.4601, 11.46564
716.9422, 11.28116
717.4243, 14.79288
717.9064, 12.74570
718.3885, 3.039246
718.8707, 0.7821040
719.3528, 22.68857
719.8349, 48.54086
720.3170, 52.20480
720.7991, 39.45834
721.2813, 29.27139
721.7634, 28.30649
722.2455, 33.74136
722.7276, 44.24078
723.2097, 58.69351
723.6918, 62.36017
724.1740, 51.74591
724.6561, 41.79013
725.1382, 36.62683
725.6203, 33.84460
726.1024, 30.17960
726.5845, 26.04507
727.0667, 26.41077
727.5488, 36.99628
728.0309, 44.47079
728.5130, 44.58090
728.9951, 41.20822
729.4772, 35.84247
729.9594, 29.84454
730.4415, 26.45639
730.9236, 28.84564
731.4057, 31.60355
731.8878, 25.23126
732.3699, 12.32458
732.8521, 3.157043
733.3342, 1.172760
733.8163, 2.129608
734.2984, 3.6469001E-02
734.7805, 5.246521
735.2626, 16.81686
735.7448, 41.97513
736.2269, 56.02460
736.7090, 51.19705
737.1911, 43.64865
737.6732, 37.81274
738.1553, 33.82196
738.6375, 31.29160
739.1196, 29.88525
739.6017, 32.26682
740.0838, 48.27469
740.5659, 60.92786
741.0480, 49.35577
741.5302, 24.29623
742.0123, 8.825500
742.4944, 9.635559
742.9765, 16.79172
743.4586, 21.47073
743.9407, 23.70129
744.4229, 22.67200
744.9050, 17.54697
745.3871, 18.18842
745.8692, 31.32819
746.3513, 41.42081
746.8334, 28.70599
747.3156, 3.929993
747.7977, 15.28784
748.2798, 17.15005
748.7619, 38.96332
749.2440, 39.25287
749.7261, 32.73572
750.2083, 26.04529
750.6904, 21.31052
751.1725, 22.57642
751.6546, 34.39859
752.1367, 42.46567
752.6188, 27.97400
753.1010, 7.723358
753.5831, 12.11151
754.0652, 36.25034
754.5473, 47.79156
755.0294, 30.98932
755.5115, 4.580536
755.9937, 0.7769470
756.4758, 15.04520
756.9579, 23.55072
757.4400, 22.72592
757.9221, 22.06076
758.4042, 26.08917
758.8864, 30.86261
759.3685, 30.03842
759.8506, 22.48730
760.3327, 20.60974
760.8148, 31.19815
761.2969, 38.95682
761.7791, 36.76956
762.2612, 32.02151
762.7433, 32.95935
763.2254, 38.56256
763.7075, 40.37109
764.1896, 32.42114
764.6718, 22.41205
765.1539, 17.86310
765.6360, 16.59857
766.1181, 14.59717
766.6002, 11.36761
767.0823, 7.199127
767.5645, 1.887543
768.0466, 1.714142
768.5287, 4.875458
769.0108, 23.41168
769.4929, 28.77875
769.9750, 12.77115
770.4572, 4.055267
770.9393, 20.91556
771.4214, 49.68359
771.9035, 67.48016
772.3856, 73.42004
772.8677, 74.84717
773.3499, 68.64032
773.8320, 60.65933
774.3141, 54.64676
774.7962, 47.27271
775.2783, 29.33063
775.7604, 4.101563
776.2426, 6.848297
776.7247, 18.39093
777.2068, 48.63428
777.6889, 48.05975
778.1710, 31.42416
778.6531, 33.13971
779.1353, 54.60336
779.6174, 67.65164
780.0995, 52.77579
780.5816, 26.52737
781.0637, 26.93253
781.5458, 55.74435
782.0280, 67.83853
782.5101, 55.94446
782.9922, 44.02780
783.4743, 44.40948
783.9564, 50.73618
784.4385, 51.82446
784.9207, 45.58957
785.4028, 43.69611
785.8849, 51.59259
786.3670, 56.76981
786.8491, 50.69464
787.3312, 42.45108
787.8134, 43.48514
788.2955, 53.57892
788.7776, 61.46841
789.2597, 60.76614
789.7418, 57.15555
790.2239, 54.00046
790.7061, 50.97357
791.1882, 45.09015
791.6703, 38.22205
792.1524, 41.12512
792.6345, 61.31982
793.1166, 82.67957
793.5988, 71.40146
794.0809, 32.72421
794.5630, 21.19244
795.0451, 43.12650
795.5272, 60.13263
796.0093, 53.45111
796.4915, 36.77560
796.9736, 31.00797
797.4557, 37.89609
797.9378, 40.50351
798.4199, 34.94403
798.9020, 30.68527
799.3842, 32.58557
799.8663, 34.05078
800.3484, 28.47614
800.8305, 17.34497
801.3126, 8.191101
801.7947, 2.489502
802.2769, 1.956635
802.7590, 29.28989
803.2411, 62.07718
803.7232, 66.24033
804.2053, 48.70911
804.6874, 32.77963
805.1696, 27.93076
805.6517, 30.36816
806.1338, 45.19012
806.6159, 63.07825
807.0980, 60.68399
807.5801, 40.54135
808.0623, 25.06635
808.5444, 21.83170
809.0265, 27.59769
809.5086, 40.71564
809.9907, 59.29245
810.4728, 66.17798
810.9550, 57.45868
811.4371, 51.36026
811.9192, 53.52945
812.4013, 55.17007
812.8834, 48.85291
813.3655, 36.67435
813.8477, 26.62967
814.3298, 18.55969
814.8119, 13.53433
815.2940, 14.16229
815.7761, 15.20984
816.2582, 11.80063
816.7404, 8.081635
817.2225, 12.33899
817.7046, 25.80838
818.1867, 34.90497
818.6688, 25.37961
819.1509, 14.66898
819.6331, 20.79828
820.1152, 35.72968
820.5973, 46.15192
821.0794, 49.18640
821.5615, 45.76968
822.0436, 35.13821
822.5258, 23.14075
823.0079, 22.17734
823.4900, 30.18442
823.9721, 34.31827
824.4542, 33.24911
824.9363, 28.72794
825.4185, 20.75546
825.9006, 12.58234
826.3827, 10.74857
826.8648, 15.90393
827.3469, 19.85687
827.8290, 24.01233
828.3111, 23.85361
828.7932, 14.83575
829.2753, 4.110931
829.7574, 4.065796
830.2396, 8.840668
830.7217, 4.025818
831.2038, 26.56796
831.6859, 44.68460
832.1680, 32.99686
832.6501, 16.11652
833.1323, 11.65714
833.6144, 15.19095
834.0965, 13.72809
834.5786, 4.078064
835.0607, 3.140747
835.5428, 2.946167
836.0250, 11.91068
836.5071, 12.46722
836.9892, 7.230896
837.4713, 1.936188
837.9534, 1.645325
838.4355, 3.201019
838.9177, 2.196747
839.3998, 0.4622800
839.8819, 3.465851
840.3640, 6.584839
840.8461, 8.708008
841.3282, 9.703857
841.8104, 7.687408
842.2925, 1.033722
842.7746, 7.716614
843.2567, 14.10416
843.7388, 18.45203
844.2209, 17.29092
844.7031, 7.174500
845.1852, 8.6060002E-02
845.6673, 1.956909
846.1494, 5.423279
846.6315, 0.1592710
847.1136, 13.12677
847.5958, 18.97064
848.0779, 5.315765
848.5600, 1.467590
849.0421, 26.49631
849.5242, 47.57864
850.0063, 37.88889
850.4885, 10.60635
850.9706, 7.304504
851.4527, 9.220551
851.9348, 6.313568
852.4169, 0.4543150
852.8990, 4.875244
853.3812, 6.078491
853.8633, 5.268768
854.3454, 6.077087
854.8275, 8.961121
855.3096, 11.78979
855.7917, 13.32455
856.2739, 13.74701
856.7560, 10.66885
857.2381, 7.202637
857.7202, 16.57736
858.2023, 36.73114
858.6844, 42.19217
859.1666, 19.60376
859.6487, 10.95355
860.1308, 17.44806
860.6129, 1.930267
861.0950, 6.490906
861.5771, 6.764252
862.0593, 10.75504
862.5414, 22.91272
863.0235, 35.57486
863.5056, 41.42163
863.9877, 41.95148
864.4698, 45.48126
864.9520, 56.10242
865.4341, 60.11975
865.9162, 52.46515
866.3983, 44.08298
866.8804, 40.16534
867.3625, 38.63931
867.8447, 36.13168
868.3268, 32.10620
868.8089, 31.66296
869.2910, 43.04236
869.7731, 48.40552
870.2552, 35.42264
870.7374, 19.06622
871.2195, 12.56329
871.7016, 14.98315
872.1837, 18.38318
872.6658, 19.62161
873.1479, 23.04102
873.6301, 35.49890
874.1122, 47.70490
874.5943, 50.16492
875.0764, 45.35791
875.5585, 37.02658
876.0406, 27.37415
876.5228, 23.68329
877.0049, 36.16953
877.4870, 52.59805
877.9691, 48.77740
878.4512, 34.87241
878.9333, 43.17963
879.4155, 74.68753
879.8976, 100.5055
880.3797, 103.9483
880.8618, 97.21570
881.3439, 101.0092
881.8260, 113.4965
882.3082, 115.3374
882.7903, 105.8423
883.2724, 98.73499
883.7545, 98.17676
884.2366, 101.4914
884.7188, 105.8254
885.2009, 112.0006
885.6830, 126.0070
886.1651, 153.7990
886.6472, 168.5164
887.1293, 163.2560
887.6115, 153.6838
888.0936, 145.2434
888.5757, 139.7625
889.0578, 140.1042
889.5399, 147.2496
890.0220, 151.5482
890.5042, 152.4931
890.9863, 151.4184
891.4684, 143.4290
891.9505, 138.0734
892.4326, 146.2587
892.9147, 162.3345
893.3969, 170.7061
893.8790, 166.3395
894.3611, 159.9380
894.8432, 156.3350
895.3253, 149.7324
895.8074, 130.0549
896.2896, 108.6868
896.7717, 104.4427
897.2538, 117.2232
897.7359, 125.5390
898.2180, 116.8801
898.7001, 103.1456
899.1823, 89.28448
899.6644, 78.15314
900.1465, 76.28058
900.6286, 79.67096
901.1107, 77.71844
901.5928, 66.63702
902.0750, 52.61426
902.5571, 36.25806
903.0392, 24.18719
903.5213, 32.95728
904.0034, 54.52692
904.4855, 65.50568
904.9677, 62.21271
905.4498, 56.87250
905.9319, 57.67212
906.4140, 59.37195
906.8961, 49.33344
907.3782, 31.21442
907.8604, 27.60413
908.3425, 39.06714
908.8246, 54.54260
909.3067, 71.54688
909.7888, 82.00775
910.2709, 76.19672
910.7531, 58.00970
911.2352, 45.04187
911.7173, 37.07434
912.1994, 37.38934
912.6815, 48.92242
913.1636, 59.14594
913.6458, 60.75452
914.1279, 59.03296
914.6100, 63.08411
915.0921, 73.71948
915.5742, 78.04022
916.0563, 72.17401
916.5385, 68.07690
917.0206, 67.37073
917.5027, 69.31482
917.9848, 74.61871
918.4669, 83.61298
918.9490, 93.34070
919.4312, 105.6204
919.9133, 113.7480
920.3954, 114.4734
920.8775, 114.9587
921.3596, 118.5748
921.8417, 122.0751
922.3239, 122.0529
922.8060, 118.8730
923.2881, 115.0246
923.7702, 106.2906
924.2523, 105.2709
924.7344, 124.6474
925.2166, 142.8324
925.6987, 143.2648
926.1808, 135.3623
926.6629, 135.9497
927.1450, 146.5930
927.6271, 150.2656
928.1093, 136.1123
928.5914, 117.4434
929.0735, 94.06458
929.5556, 75.44250
930.0377, 76.45374
930.5198, 89.52228
931.0020, 95.77802
931.4841, 89.05505
931.9662, 76.40845
932.4483, 54.45520
932.9304, 38.63269
933.4125, 52.32971
933.8947, 79.25958
934.3768, 93.58051
934.8589, 92.57416
935.3410, 84.58344
935.8231, 73.49072
936.3052, 64.99628
936.7874, 67.58307
937.2695, 73.41821
937.7516, 68.52478
938.2337, 57.39752
938.7158, 55.26184
939.1979, 64.32611
939.6801, 71.25513
940.1622, 65.83765
940.6443, 53.93982
941.1264, 41.19946
941.6085, 30.67139
942.0906, 37.31586
942.5728, 58.91589
943.0549, 73.84375
943.5370, 74.37604
944.0191, 68.67114
944.5012, 64.12781
944.9833, 60.96326
945.4655, 58.95068
945.9476, 58.45404
946.4297, 67.24475
946.9118, 86.36285
947.3939, 93.86902
947.8760, 77.61670
948.3582, 55.27258
948.8403, 51.22906
949.3224, 63.29211
949.8045, 72.89502
950.2866, 79.60162
950.7687, 91.11914
951.2509, 111.2114
951.7330, 122.0349
952.2151, 109.8839
952.6972, 88.11877
953.1793, 82.94464
953.6614, 95.64899
954.1436, 103.8600
954.6257, 107.3491
955.1078, 106.7310
955.5899, 100.5179
956.0720, 93.96362
956.5541, 89.95056
957.0363, 89.65900
957.5184, 97.16266
958.0005, 115.1304
958.4826, 130.0754
958.9647, 141.9462
959.4468, 150.5377
959.9290, 153.9940
960.4111, 156.9395
960.8932, 167.1017
961.3753, 180.2544
961.8574, 174.6663
962.3395, 132.6776
962.8217, 111.2819
963.3038, 118.2313
963.7859, 132.9720
964.2680, 151.9431
964.7501, 171.9847
965.2322, 194.4247
965.7144, 217.3751
966.1965, 220.8365
966.6786, 178.8721
967.1607, 156.2229
967.6428, 171.8940
968.1249, 185.8939
968.6071, 178.2339
969.0892, 162.2172
969.5713, 156.5685
970.0534, 161.2670
970.5355, 155.4461
971.0176, 124.0407
971.4998, 102.0620
971.9819, 99.05792
972.4640, 101.3931
972.9461, 101.3189
973.4282, 102.0332
973.9103, 112.7998
974.3925, 134.9245
974.8746, 141.8976
975.3567, 108.0063
975.8388, 86.18896
976.3209, 102.7676
976.8030, 121.8612
977.2852, 116.4557
977.7673, 97.43915
978.2494, 87.76282
978.7315, 91.48346
979.2136, 89.93268
979.6957, 73.67883
980.1779, 58.23157
980.6600, 46.20306
981.1421, 39.58093
981.6242, 44.70898
982.1063, 55.07275
982.5884, 55.88123
983.0706, 43.10803
983.5527, 32.79053
984.0348, 29.32526
984.5169, 29.89380
984.9990, 34.30084
985.4811, 41.47736
985.9633, 52.24268
986.4454, 64.41541
986.9275, 74.26111
987.4096, 81.94531
987.8917, 80.12451
988.3738, 62.53174
988.8560, 39.10193
989.3381, 4.917419
989.8202, 24.85956
990.3023, 31.34119
990.7844, 20.48965
991.2665, 13.31232
991.7487, 16.38812
992.2308, 17.79944
992.7129, 8.681183
993.1950, 1.055481
993.6771, 7.968201
994.1592, 15.69263
994.6414, 5.584045
995.1235, 17.94513
995.6056, 34.66602
996.0877, 37.15747
996.5698, 39.08801
997.0519, 51.39166
997.5341, 59.60706
998.0162, 49.11639
998.4983, 33.26935
998.9804, 27.51666
999.4625, 31.51746
999.9446, 36.29498
1000.427, 38.72504
1000.909, 42.77356
1001.391, 57.78992
1001.873, 66.78961
1002.355, 50.30597
1002.837, 26.91626
1003.319, 21.19647
1003.802, 30.97693
1004.284, 35.87341
1004.766, 25.91089
1005.248, 20.88501
1005.730, 38.07568
1006.212, 54.33582
1006.694, 53.36890
1007.176, 42.99921
1007.659, 28.47827
1008.141, 14.68811
1008.623, 15.06262
1009.105, 40.21240
1009.587, 59.24475
1010.069, 53.16034
1010.551, 42.06561
1011.033, 36.91211
1011.515, 35.67590
1011.998, 33.84796
1012.480, 32.56561
1012.962, 39.21863
1013.444, 60.70197
1013.926, 75.49377
1014.408, 69.68622
1014.890, 59.99945
1015.372, 54.83173
1015.854, 52.85950
1016.337, 53.16229
1016.819, 54.62738
1017.301, 54.50287
1017.783, 52.18323
1018.265, 47.66858
1018.747, 40.94324
1019.229, 32.00739
1019.711, 12.43951
1020.194, 3.195282
1020.676, 7.205811
1021.158, 36.67621
1021.640, 55.63281
1022.122, 56.88782
1022.604, 47.53052
1023.086, 17.01263
1023.568, 8.373993
1024.051, 14.20352
1024.533, 9.680328
1025.015, 2.781311
1025.497, 5.604126
1025.979, 16.39648
1026.461, 31.54236
1026.943, 43.09644
1027.425, 47.06122
1027.907, 49.83734
1028.390, 57.95074
1028.872, 62.92834
1029.354, 51.13318
1029.836, 29.88171
1030.318, 24.99579
1030.800, 48.79852
1031.282, 56.82312
1031.764, 19.73517
1032.246, 5.474243
1032.729, 13.49695
1033.211, 40.29260
1033.693, 43.84271
1034.175, 31.41473
1034.657, 25.64648
1035.139, 29.93158
1035.621, 33.94318
1036.103, 39.55737
1036.586, 41.16791
1037.068, 29.58209
1037.550, 21.13062
1038.032, 33.08887
1038.514, 55.42017
1038.996, 64.42456
1039.478, 56.05560
1039.960, 50.69598
1040.443, 56.02289
1040.925, 54.33057
1041.407, 36.72699
1041.889, 18.70129
1042.371, 7.185974
1042.853, 3.211975
1043.335, 9.920227
1043.817, 28.69318
1044.299, 45.37048
1044.781, 61.08380
1045.264, 72.38293
1045.746, 78.57141
1046.228, 79.68091
1046.710, 74.59265
1047.192, 65.33594
1047.674, 51.87091
1048.156, 35.60791
1048.638, 32.03467
1049.121, 47.95935
1049.603, 49.08521
1050.085, 25.22595
1050.567, 7.350464
1051.049, 12.02472
1051.531, 23.04065
1052.013, 19.39093
1052.495, 5.358093
1052.978, 3.696350
1053.460, 15.67261
1053.942, 27.10535
1054.424, 37.63690
1054.906, 41.11804
1055.388, 34.06604
1055.870, 24.62177
1056.352, 21.64221
1056.834, 23.01318
1057.317, 21.62122
1057.799, 17.18372
1058.281, 12.61237
1058.763, 8.169067
1059.245, 15.72650
1059.727, 39.53784
1060.209, 54.48486
1060.691, 37.13971
1061.173, 5.534607
1061.656, 1.715271
1062.138, 9.574524
1062.620, 13.35773
1063.102, 9.720581
1063.584, 3.617920
1064.066, 2.808472
1064.548, 1.842163
1065.030, 12.55975
1065.513, 29.34216
1065.995, 31.90759
1066.477, 25.88721
1066.959, 22.27637
1067.441, 20.88794
1067.923, 21.38550
1068.405, 22.88507
1068.887, 21.33020
1069.370, 14.58246
1069.852, 9.832458
1070.334, 17.21338
1070.816, 27.80676
1071.298, 31.30603
1071.780, 29.78113
1072.262, 25.21582
1072.744, 19.17401
1073.226, 13.48077
1073.708, 8.915222
1074.191, 9.278320
1074.673, 24.53430
1075.155, 36.67285
1075.637, 23.03003
1076.119, 7.995117
1076.601, 21.87738
1077.083, 50.03516
1077.565, 61.33282
1078.047, 50.65295
1078.530, 41.97504
1079.012, 47.71405
1079.494, 50.58368
1079.976, 38.20349
1080.458, 26.71667
1080.940, 27.84790
1081.422, 34.51538
1081.904, 41.31647
1082.387, 46.93445
1082.869, 44.51208
1083.351, 24.87262
1083.833, 14.12683
1084.315, 21.89716
1084.797, 31.15930
1085.279, 40.89209
1085.761, 46.00104
1086.244, 31.79126
1086.726, 9.105408
1087.208, 10.71991
1087.690, 47.78351
1088.172, 63.54279
1088.654, 48.58441
1089.136, 30.81750
1089.618, 8.270630
1090.100, 0.3884280
1090.583, 25.52081
1091.065, 62.91675
1091.547, 69.90424
1092.029, 47.50677
1092.511, 35.23663
1092.993, 34.22876
1093.475, 36.01160
1093.957, 39.89453
1094.439, 45.74426
1094.922, 55.00946
1095.404, 55.53699
1095.886, 29.19598
1096.368, 10.20831
1096.850, 15.48877
1097.332, 8.722168
1097.814, 31.78180
1098.296, 50.20453
1098.779, 51.86340
1099.261, 34.41772
1099.743, 17.18127
1100.225, 14.94733
1100.707, 18.29669
1101.189, 13.36346
1101.671, 4.331360
1102.153, 2.021057
1102.635, 4.584595
1103.118, 0.3853150
1103.600, 11.51953
1104.082, 19.65491
1104.564, 20.36823
1105.046, 24.37061
1105.528, 51.13257
1106.010, 73.82098
1106.492, 60.45428
1106.974, 34.15686
1107.457, 18.82355
1107.939, 16.00385
1108.421, 24.16528
1108.903, 42.12469
1109.385, 56.37415
1109.867, 59.67645
1110.349, 60.78009
1110.831, 63.78607
1111.314, 64.67853
1111.796, 58.44745
1112.278, 50.19415
1112.760, 49.34656
1113.242, 53.96179
1113.724, 46.45770
1114.206, 6.129333
1114.688, 4.921753
1115.171, 47.56775
1115.653, 77.39191
1116.135, 46.27063
1116.617, 7.509705
1117.099, 1.809631
1117.581, 15.12183
1118.063, 13.91675
1118.545, 3.741699
1119.027, 1.328430
1119.510, 26.99023
1119.992, 41.81598
1120.474, 34.90253
1120.956, 28.76727
1121.438, 34.61102
1121.920, 44.77100
1122.402, 50.52417
1122.884, 51.45862
1123.366, 42.04285
1123.849, 26.14166
1124.331, 28.51050
1124.813, 47.44647
1125.295, 61.98108
1125.777, 66.06445
1126.259, 63.79987
1126.741, 56.83350
1127.223, 51.15179
1127.706, 56.30194
1128.188, 65.59924
1128.670, 71.04504
1129.152, 72.40259
1129.634, 71.07904
1130.116, 65.91309
1130.598, 49.99854
1131.080, 20.66840
1131.563, 0.6180420
1132.045, 6.434875
1132.527, 14.28906
1133.009, 2.405701
1133.491, 9.785828
1133.973, 7.883667
1134.455, 5.752686
1134.937, 34.88037
1135.419, 75.08105
1135.901, 85.56049
1136.384, 30.14209
1136.866, 0.1311040
1137.348, 23.42010
1137.830, 42.02008
1138.312, 34.72540
1138.794, 22.72266
1139.276, 24.19128
1139.758, 31.46912
1140.241, 24.21857
1140.723, 0.4764400
1141.205, 0.5045170
1141.687, 27.22766
1142.169, 32.11670
1142.651, 2.882629
1143.133, 14.80676
1143.615, 1.533447
1144.098, 29.29211
1144.580, 44.91376
1145.062, 50.28021
1145.544, 45.62305
1146.026, 35.26367
1146.508, 35.64008
1146.990, 43.62073
1147.472, 47.92023
1147.954, 46.70227
1148.437, 48.39392
1148.919, 58.70117
1149.401, 63.87463
1149.883, 43.18073
1150.365, 19.46417
1150.847, 14.06702
1151.329, 19.91852
1151.811, 32.94366
1152.293, 47.53229
1152.776, 54.89478
1153.258, 53.22772
1153.740, 45.02380
1154.222, 20.26862
1154.704, 4.178284
1155.186, 7.824402
1155.668, 17.34930
1156.150, 30.71002
1156.633, 43.37592
1157.115, 49.98889
1157.597, 52.50629
1158.079, 57.73560
1158.561, 66.76440
1159.043, 74.09515
1159.525, 83.26581
1160.007, 71.94006
1160.490, 28.93622
1160.972, 3.393433
1161.454, 23.23816
1161.936, 57.78571
1162.418, 69.26697
1162.900, 63.75446
1163.382, 57.46204
1163.864, 50.27740
1164.346, 38.21460
1164.828, 24.57025
1165.311, 27.89355
1165.793, 48.62982
1166.275, 59.68280
1166.757, 43.99255
1167.239, 26.81335
1167.721, 35.79126
1168.203, 49.60345
1168.685, 44.65332
1169.168, 34.62042
1169.650, 38.95502
1170.132, 51.17249
1170.614, 53.12122
1171.096, 42.11963
1171.578, 32.97736
1172.060, 30.88000
1172.542, 28.83636
1173.025, 25.41492
1173.507, 23.10400
1173.989, 24.58044
1174.471, 25.39032
1174.953, 18.41742
1175.435, 10.69342
1175.917, 23.49902
1176.399, 59.32501
1176.881, 60.97607
1177.364, 22.95380
1177.846, 0.9718020
1178.328, 2.677917
1178.810, 1.296570
1179.292, 5.104797
1179.774, 2.027222
1180.256, 23.43121
1180.738, 54.39319
1181.220, 63.01624
1181.703, 58.76288
1182.185, 55.34076
1182.667, 54.57776
1183.149, 60.07709
1183.631, 69.77557
1184.113, 74.54260
1184.595, 70.96191
1185.077, 60.17786
1185.560, 33.20758
1186.042, 12.16534
1186.524, 9.629395
1187.006, 15.92682
1187.488, 29.40173
1187.970, 43.68036
1188.452, 52.88391
1188.934, 55.87354
1189.417, 47.18042
1189.899, 16.73572
1190.381, 8.830078
1190.863, 32.55023
1191.345, 53.66821
1191.827, 67.61041
1192.309, 72.22449
1192.791, 63.76697
1193.273, 53.21417
1193.755, 56.34064
1194.238, 65.97241
1194.720, 54.86450
1195.202, 30.77606
1195.684, 26.75970
1196.166, 39.94305
1196.648, 54.24939
1197.130, 64.14575
1197.612, 61.87262
1198.095, 42.39191
1198.577, 26.23682
1199.059, 35.57306
1199.541, 47.31769
1200.023, 41.50580
1200.505, 32.13654
1200.987, 31.88544
1201.469, 38.46490
1201.952, 46.08105
1202.434, 52.36572
1202.916, 45.53436
1203.398, 11.04974
1203.880, 6.226929
1204.362, 1.919250
1204.844, 10.50787
1205.326, 15.31018
1205.808, 15.72528
1206.291, 9.457520
1206.773, 5.012512
1207.255, 15.76422
1207.737, 37.29193
1208.219, 54.66010
1208.701, 67.43420
1209.183, 72.21509
1209.665, 69.94202
1210.147, 64.86200
1210.630, 58.15601
1211.112, 51.38672
1211.594, 45.19781
1212.076, 42.44684
1212.558, 50.05426
1213.040, 56.33875
1213.522, 48.84363
1214.004, 39.27032
1214.487, 38.76569
1214.969, 43.46436
1215.451, 46.84143
1215.933, 48.30096
1216.415, 48.31409
1216.897, 43.71863
1217.379, 47.17291
1217.861, 62.94745
1218.344, 77.55487
1218.826, 91.42450
1219.308, 91.91791
1219.790, 68.92944
1220.272, 44.70959
1220.754, 48.67847
1221.236, 66.95410
1221.718, 57.47986
1222.200, 30.60785
1222.682, 20.52490
1223.165, 25.40515
1223.647, 38.92242
1224.129, 57.08441
1224.611, 66.08203
1225.093, 60.78387
1225.575, 52.05566
1226.057, 42.20099
1226.539, 37.17944
1227.022, 44.08350
1227.504, 52.52496
1227.986, 55.34985
1228.468, 55.35046
1228.950, 57.35071
1229.432, 59.68060
1229.914, 53.84949
1230.396, 37.27985
1230.879, 33.61560
1231.361, 46.02417
1231.843, 56.71002
1232.325, 64.00775
1232.807, 63.46613
1233.289, 53.12909
1233.771, 38.40973
1234.253, 22.36719
1234.735, 11.89050
1235.218, 24.79901
1235.700, 43.79858
1236.182, 45.47253
1236.664, 33.75006
1237.146, 3.929138
1237.628, 27.67462
1238.110, 17.65479
1238.592, 37.35400
1239.074, 67.38763
1239.557, 25.91663
1240.039, 5.406677
1240.521, 50.34253
1241.003, 85.11823
1241.485, 80.32098
1241.967, 68.23724
1242.449, 68.26263
1242.931, 74.70721
1243.414, 80.11566
1243.896, 83.48694
1244.378, 75.03937
1244.860, 57.66608
1245.342, 68.63330
1245.824, 102.8212
1246.306, 111.3787
1246.788, 89.59601
1247.271, 81.06696
1247.753, 106.5535
1248.235, 124.2661
1248.717, 82.19177
1249.199, 44.28229
1249.681, 70.56354
1250.163, 104.2891
1250.645, 95.85046
1251.127, 70.56641
1251.609, 64.54492
1252.092, 74.06830
1252.574, 69.77704
1253.056, 65.22778
1253.538, 53.69202
1254.020, 21.57269
1254.502, 5.175354
1254.984, 7.406311
1255.466, 22.60669
1255.949, 49.28186
1256.431, 70.53961
1256.913, 73.71777
1257.395, 63.84235
1257.877, 40.15717
1258.359, 14.34784
1258.841, 2.066345
1259.323, 1.537903
1259.806, 14.08069
1260.288, 35.02521
1260.770, 59.06873
1261.252, 79.58398
1261.734, 83.77301
1262.216, 59.13098
1262.698, 36.43903
1263.180, 12.26172
1263.662, 1.033508
1264.145, 2.881470
1264.627, 13.73199
1265.109, 30.21844
1265.591, 36.74646
1266.073, 24.85773
1266.555, 3.642273
1267.037, 0.0000000E+00
##END=



