##NAMES=Colquiriite
##RRUFFID=R070417
##IDEAL CHEMISTRY=CaLiAlF_6_
##LOCALITY=Serra Branca pegmatite, Pedra Lavrada, Picuí, Paraíba; Northeast, Brazil
##OWNER=RRUFF
##SOURCE=Michael Scott
##DESCRIPTION=Colorless thin hexagonal plates associated with strengite and triplite, sample used to update X-ray data in JCPDS files
##STATUS=The identification of this mineral has been confirmed by single-crystal X-ray diffraction.
##URL=rruff.info/R070417
202.4971, 0.0000000E+00
202.9792, 3.229980
203.4613, 15.89941
203.9435, 46.79590
204.4256, 60.12744
204.9077, 37.24219
205.3898, 10.31982
205.8719, 3.882813
206.3540, 22.93945
206.8362, 49.11670
207.3183, 58.07227
207.8004, 39.18066
208.2825, 30.43506
208.7646, 41.94775
209.2467, 55.06787
209.7289, 68.80518
210.2110, 65.25977
210.6931, 52.23828
211.1752, 37.50342
211.6573, 17.23340
212.1395, 10.09814
212.6216, 31.51709
213.1037, 51.99609
213.5858, 56.25195
214.0679, 44.90967
214.5500, 28.22217
215.0322, 15.79980
215.5143, 8.200684
215.9964, 1.430176
216.4785, 9.398926
216.9606, 14.94434
217.4427, 10.23193
217.9249, 3.279297
218.4070, 21.44189
218.8891, 42.49219
219.3712, 66.80225
219.8533, 80.17285
220.3354, 65.37646
220.8176, 56.00244
221.2997, 67.21875
221.7818, 90.90332
222.2639, 109.9561
222.7460, 111.9170
223.2281, 98.37305
223.7103, 85.92236
224.1924, 71.81885
224.6745, 62.23096
225.1566, 60.44971
225.6387, 63.53857
226.1208, 67.51318
226.6030, 70.23584
227.0851, 71.75049
227.5672, 71.64111
228.0493, 63.00293
228.5314, 62.78662
229.0135, 83.51367
229.4957, 110.0684
229.9778, 123.2124
230.4599, 113.8452
230.9420, 92.56934
231.4241, 86.02930
231.9062, 103.6685
232.3884, 120.7095
232.8705, 141.0039
233.3526, 155.6968
233.8347, 153.8296
234.3168, 132.3687
234.7989, 103.4414
235.2811, 88.54492
235.7632, 94.21973
236.2453, 98.73682
236.7274, 97.98438
237.2095, 97.18506
237.6916, 99.49512
238.1738, 105.6504
238.6559, 114.8115
239.1380, 126.4692
239.6201, 141.3530
240.1022, 156.2368
240.5843, 175.5415
241.0665, 191.1118
241.5486, 198.3701
242.0307, 197.5684
242.5128, 192.1396
242.9949, 182.9517
243.4770, 168.9790
243.9592, 163.8599
244.4413, 178.4155
244.9234, 192.0200
245.4055, 199.2749
245.8876, 199.4761
246.3697, 191.8394
246.8519, 171.4653
247.3340, 141.2383
247.8161, 129.0771
248.2982, 149.7114
248.7803, 169.5747
249.2624, 181.1919
249.7446, 183.7773
250.2267, 175.4189
250.7088, 153.0532
251.1909, 122.0889
251.6730, 96.46387
252.1551, 75.99121
252.6373, 64.19092
253.1194, 66.23047
253.6015, 74.59668
254.0836, 83.71387
254.5657, 92.67480
255.0478, 98.19775
255.5300, 92.38770
256.0121, 69.41162
256.4942, 54.15869
256.9763, 59.03613
257.4584, 71.39795
257.9406, 84.96240
258.4227, 99.45947
258.9048, 108.6929
259.3869, 103.3491
259.8690, 82.21484
260.3511, 75.59863
260.8333, 105.3188
261.3154, 138.4321
261.7975, 149.7715
262.2796, 139.3945
262.7617, 126.1670
263.2438, 123.4443
263.7260, 129.5435
264.2081, 134.7568
264.6902, 138.1089
265.1723, 140.3994
265.6544, 144.8291
266.1365, 149.5474
266.6187, 147.7007
267.1008, 129.6450
267.5829, 103.9478
268.0650, 88.78564
268.5471, 85.74365
269.0292, 89.52539
269.5114, 100.2354
269.9935, 115.0566
270.4756, 129.8521
270.9577, 145.2505
271.4398, 158.8057
271.9219, 166.3315
272.4041, 167.6387
272.8862, 170.1641
273.3683, 179.1748
273.8504, 190.9346
274.3325, 196.5381
274.8146, 189.7241
275.2968, 188.6831
275.7789, 210.4556
276.2610, 249.1699
276.7431, 283.3462
277.2252, 305.6777
277.7073, 319.5576
278.1895, 329.1133
278.6716, 332.5020
279.1537, 340.3521
279.6358, 368.5762
280.1179, 401.0264
280.6000, 404.3130
281.0822, 367.7588
281.5643, 322.8501
282.0464, 311.9268
282.5285, 339.3838
283.0106, 344.9717
283.4927, 303.9399
283.9749, 249.5967
284.4570, 210.5225
284.9391, 189.1177
285.4212, 174.8823
285.9033, 160.3706
286.3854, 145.6357
286.8676, 131.4111
287.3497, 114.9751
287.8318, 101.5674
288.3139, 95.16260
288.7960, 93.97314
289.2781, 93.69092
289.7603, 92.28564
290.2424, 89.39014
290.7245, 83.24902
291.2066, 68.92578
291.6887, 57.66162
292.1708, 49.20264
292.6530, 45.41113
293.1351, 52.44336
293.6172, 72.05273
294.0993, 92.98047
294.5814, 94.52148
295.0635, 62.11475
295.5457, 36.90137
296.0278, 19.51123
296.5099, 8.330566
296.9920, 5.424805
297.4741, 9.138184
297.9562, 12.17090
298.4384, 5.453125
298.9205, 14.23779
299.4026, 20.82959
299.8847, 2.689453
300.3668, 16.48975
300.8489, 33.00391
301.3310, 44.15918
301.8131, 45.26025
302.2953, 31.62842
302.7774, 7.195313
303.2595, 7.978516
303.7416, 10.95264
304.2237, 7.927734
304.7058, 4.558105
305.1880, 19.57764
305.6701, 30.51074
306.1522, 34.97217
306.6343, 33.39502
307.1164, 23.57080
307.5985, 0.7817380
308.0807, 12.45557
308.5628, 2.694824
309.0449, 11.46240
309.5270, 18.92578
310.0091, 18.88916
310.4912, 18.24316
310.9734, 25.11572
311.4555, 38.30615
311.9376, 44.12988
312.4197, 39.78467
312.9018, 30.09961
313.3839, 11.46240
313.8661, 10.29248
314.3482, 18.99121
314.8303, 2.740234
315.3124, 37.53857
315.7945, 52.65869
316.2766, 44.72363
316.7588, 36.65625
317.2409, 39.37891
317.7230, 50.44287
318.2051, 66.69580
318.6872, 91.60205
319.1693, 114.7910
319.6515, 128.2114
320.1336, 133.0537
320.6157, 133.4321
321.0978, 127.6484
321.5799, 122.8008
322.0620, 132.7065
322.5442, 159.5107
323.0263, 183.1768
323.5084, 195.0298
323.9905, 201.9673
324.4726, 213.8232
324.9547, 232.2700
325.4369, 250.2725
325.9190, 259.8770
326.4011, 259.7856
326.8832, 270.0654
327.3653, 297.3013
327.8474, 328.5981
328.3296, 356.3394
328.8117, 382.1182
329.2938, 411.1045
329.7759, 446.7920
330.2580, 488.7979
330.7401, 532.3262
331.2223, 598.5093
331.7044, 640.0474
332.1865, 641.9429
332.6686, 621.7202
333.1507, 596.5391
333.6328, 572.4697
334.1150, 546.0894
334.5971, 512.7466
335.0792, 474.3555
335.5613, 423.7666
336.0434, 338.5342
336.5255, 261.5391
337.0077, 221.9639
337.4898, 212.5229
337.9719, 203.3770
338.4540, 168.3809
338.9361, 112.2568
339.4182, 78.75293
339.9004, 84.19727
340.3825, 89.32080
340.8646, 82.00635
341.3467, 67.92139
341.8288, 53.22852
342.3109, 39.87744
342.7931, 29.95947
343.2752, 28.72510
343.7573, 38.51514
344.2394, 43.55908
344.7215, 34.44287
345.2036, 23.77100
345.6858, 23.32520
346.1679, 33.32715
346.6500, 41.46191
347.1321, 36.61133
347.6142, 24.01318
348.0963, 18.58057
348.5785, 22.96191
349.0606, 30.87842
349.5427, 41.01514
350.0248, 51.21191
350.5069, 54.09326
350.9890, 40.37256
351.4712, 25.19971
351.9533, 18.28809
352.4354, 19.91748
352.9175, 33.88281
353.3996, 67.19385
353.8817, 107.9370
354.3639, 121.6831
354.8460, 94.84033
355.3281, 75.85547
355.8102, 81.23584
356.2923, 97.47070
356.7744, 108.9917
357.2566, 112.5894
357.7387, 113.3159
358.2208, 115.4355
358.7029, 119.6089
359.1850, 121.0396
359.6671, 111.1929
360.1493, 107.3438
360.6314, 126.8066
361.1135, 157.8428
361.5956, 173.2456
362.0777, 155.4326
362.5598, 116.4131
363.0420, 100.2002
363.5241, 121.8462
364.0062, 143.3564
364.4883, 171.6982
364.9704, 191.0737
365.4525, 184.6299
365.9347, 122.0088
366.4168, 145.2114
366.8989, 156.5298
367.3810, 156.5640
367.8631, 111.4927
368.3452, 124.6890
368.8274, 114.5488
369.3095, 103.4653
369.7916, 124.8950
370.2737, 86.43848
370.7558, 117.3467
371.2379, 119.9907
371.7201, 118.3853
372.2022, 112.3477
372.6843, 104.0728
373.1664, 93.37500
373.6485, 80.06445
374.1306, 61.97119
374.6128, 35.31201
375.0949, 17.31543
375.5770, 24.83936
376.0591, 46.13281
376.5412, 57.17773
377.0233, 52.50439
377.5055, 42.11426
377.9876, 35.51416
378.4697, 33.20068
378.9518, 30.91455
379.4339, 24.59277
379.9160, 21.91992
380.3982, 33.73730
380.8803, 53.63232
381.3624, 62.98779
381.8445, 50.92041
382.3266, 24.39697
382.8087, 4.154785
383.2909, 8.781738
383.7730, 15.59033
384.2551, 10.60010
384.7372, 3.308594
385.2193, 3.732422
385.7014, 12.03320
386.1836, 18.18506
386.6657, 9.844238
387.1478, 14.14551
387.6299, 29.96240
388.1120, 35.96191
388.5941, 34.78418
389.0763, 16.72168
389.5584, 5.208496
390.0405, 7.328125
390.5226, 25.62988
391.0047, 67.25781
391.4868, 70.28076
391.9690, 29.45508
392.4511, 1.901367
392.9332, 8.281250
393.4153, 0.4536130
393.8974, 13.94092
394.3795, 34.51416
394.8617, 50.78809
395.3438, 58.40967
395.8259, 58.23193
396.3080, 47.84961
396.7901, 24.70703
397.2722, 8.876465
397.7544, 19.48291
398.2365, 49.10498
398.7186, 58.06396
399.2007, 22.45508
399.6828, 6.668945
400.1649, 8.432129
400.6471, 8.995117
401.1292, 35.85205
401.6113, 69.28906
402.0934, 100.7817
402.5755, 117.7744
403.0576, 114.4194
403.5398, 114.3599
404.0219, 120.1147
404.5040, 124.8418
404.9861, 125.2778
405.4682, 121.2368
405.9503, 111.4858
406.4325, 93.35742
406.9146, 72.98535
407.3967, 74.84766
407.8788, 114.3252
408.3609, 144.4219
408.8430, 151.1270
409.3252, 149.1333
409.8073, 148.7393
410.2894, 151.7935
410.7715, 155.7417
411.2536, 156.7529
411.7357, 157.4707
412.2179, 167.0767
412.7000, 190.7612
413.1821, 209.0796
413.6642, 204.3799
414.1463, 185.4238
414.6284, 168.0791
415.1106, 151.2222
415.5927, 142.5576
416.0748, 153.0156
416.5569, 175.3745
417.0390, 187.5679
417.5211, 181.3833
418.0033, 164.4863
418.4854, 147.4326
418.9675, 130.0776
419.4496, 113.2290
419.9317, 86.04834
420.4138, 68.64600
420.8960, 87.44678
421.3781, 130.0117
421.8602, 154.3242
422.3423, 130.9819
422.8244, 73.25586
423.3065, 38.34033
423.7887, 34.35938
424.2708, 42.34766
424.7529, 69.46191
425.2350, 100.3442
425.7171, 124.6753
426.1992, 140.5073
426.6814, 147.9849
427.1635, 142.1343
427.6456, 125.2749
428.1277, 118.4341
428.6098, 125.7808
429.0919, 135.2598
429.5741, 141.3823
430.0562, 145.4443
430.5383, 149.9038
431.0204, 157.4507
431.5025, 160.9253
431.9846, 150.1084
432.4668, 129.5513
432.9489, 117.4805
433.4310, 120.8911
433.9131, 125.6875
434.3952, 111.9834
434.8773, 76.78809
435.3595, 56.64111
435.8416, 67.71680
436.3237, 81.75293
436.8058, 77.77002
437.2879, 62.45898
437.7701, 58.26270
438.2522, 76.52490
438.7343, 103.9497
439.2164, 105.9321
439.6985, 56.84326
440.1806, 32.19727
440.6628, 48.04395
441.1449, 73.35303
441.6270, 92.62793
442.1091, 103.3281
442.5912, 106.3926
443.0733, 100.9692
443.5555, 88.91553
444.0376, 77.99609
444.5197, 69.08398
445.0018, 61.83984
445.4839, 55.70557
445.9660, 49.85156
446.4482, 43.96680
446.9303, 38.91553
447.4124, 32.92529
447.8945, 21.25146
448.3766, 9.294922
448.8587, 8.111816
449.3409, 19.62451
449.8230, 36.39844
450.3051, 53.84961
450.7872, 71.45996
451.2693, 85.84326
451.7514, 108.8862
452.2336, 114.7998
452.7157, 75.18848
453.1978, 20.49707
453.6799, 3.813965
454.1620, 14.32959
454.6441, 49.22314
455.1263, 68.47559
455.6084, 69.51514
456.0905, 69.48682
456.5726, 72.58203
457.0547, 70.03662
457.5368, 53.95117
458.0190, 31.46436
458.5011, 14.20898
458.9832, 6.789551
459.4653, 3.940918
459.9474, 4.882324
460.4295, 19.92480
460.9117, 20.04004
461.3938, 9.425781
461.8759, 40.46338
462.3580, 44.18652
462.8401, 25.95850
463.3222, 13.66992
463.8044, 17.48975
464.2865, 28.30371
464.7686, 41.30566
465.2507, 54.96777
465.7328, 64.34814
466.2149, 67.27881
466.6971, 64.89746
467.1792, 59.46729
467.6613, 51.58350
468.1434, 38.58301
468.6255, 8.657227
469.1076, 16.13818
469.5898, 18.84473
470.0719, 3.880371
470.5540, 14.92041
471.0361, 30.17041
471.5182, 39.88330
472.0003, 35.49805
472.4825, 8.260254
472.9646, 9.028809
473.4467, 2.752930
473.9288, 11.28955
474.4109, 26.02734
474.8930, 40.12207
475.3752, 50.68945
475.8573, 57.88623
476.3394, 59.80127
476.8215, 48.31006
477.3036, 23.13867
477.7857, 6.944824
478.2679, 14.10400
478.7500, 34.89844
479.2321, 45.80908
479.7142, 44.21387
480.1963, 41.17285
480.6784, 37.76904
481.1606, 34.48633
481.6427, 33.01123
482.1248, 32.55371
482.6069, 28.41211
483.0890, 15.71143
483.5711, 2.169434
484.0533, 5.907715
484.5354, 15.44141
485.0175, 33.28174
485.4996, 41.85059
485.9817, 46.93066
486.4638, 53.25830
486.9460, 61.20410
487.4281, 67.59668
487.9102, 71.77197
488.3923, 72.42432
488.8744, 63.13428
489.3565, 41.66064
489.8387, 23.20312
490.3208, 16.33350
490.8029, 17.11084
491.2850, 15.46777
491.7671, 7.643555
492.2492, 8.098633
492.7314, 36.20361
493.2135, 67.04199
493.6956, 67.72168
494.1777, 38.15479
494.6598, 3.915527
495.1419, 17.18848
495.6241, 25.10938
496.1062, 19.05566
496.5883, 23.64990
497.0704, 48.05469
497.5525, 36.80908
498.0346, 14.37744
498.5168, 1.477539
498.9989, 7.543945
499.4810, 7.641113
499.9631, 1.387207
500.4452, 8.200195
500.9273, 7.936035
501.4095, 4.980957
501.8916, 16.13477
502.3737, 20.93066
502.8558, 19.05811
503.3379, 10.63037
503.8200, 5.023438
504.3022, 24.36475
504.7843, 58.93408
505.2664, 89.10107
505.7485, 84.10889
506.2306, 46.64062
506.7127, 11.06836
507.1949, 0.5986330
507.6770, 9.913086
508.1591, 16.56836
508.6412, 18.52441
509.1233, 20.70947
509.6054, 26.61670
510.0876, 30.38965
510.5697, 24.31055
511.0518, 10.77051
511.5339, 0.8945310
512.0161, 5.961914
512.4982, 20.52979
512.9803, 33.03418
513.4624, 44.09814
513.9445, 48.07910
514.4266, 37.22510
514.9088, 23.25488
515.3909, 22.66602
515.8730, 36.60742
516.3551, 48.28857
516.8372, 53.35254
517.3193, 53.28271
517.8015, 43.94775
518.2836, 28.78662
518.7657, 24.41943
519.2478, 42.14893
519.7299, 69.27783
520.2120, 77.32031
520.6942, 47.01318
521.1763, 34.61914
521.6584, 57.92480
522.1405, 80.44824
522.6226, 79.48877
523.1047, 61.46924
523.5869, 45.45117
524.0690, 40.31689
524.5511, 44.45752
525.0332, 61.01172
525.5153, 89.81934
525.9974, 103.9268
526.4796, 93.48047
526.9617, 70.54395
527.4438, 44.27881
527.9259, 16.83398
528.4080, 3.497070
528.8901, 11.32910
529.3723, 27.82568
529.8544, 56.31201
530.3365, 85.99170
530.8186, 90.38525
531.3007, 62.80664
531.7828, 31.09424
532.2650, 36.87598
532.7471, 90.32324
533.2292, 116.9746
533.7113, 80.56982
534.1934, 58.92676
534.6755, 90.48486
535.1577, 144.8110
535.6398, 179.2261
536.1219, 180.8223
536.6040, 172.3862
537.0861, 175.6733
537.5682, 186.0610
538.0504, 185.1758
538.5325, 168.6699
539.0146, 158.3247
539.4967, 171.8267
539.9788, 204.2456
540.4609, 230.2451
540.9431, 256.0864
541.4252, 267.7661
541.9073, 249.8511
542.3894, 226.0986
542.8715, 214.5410
543.3536, 218.7412
543.8358, 236.9531
544.3179, 269.8618
544.8000, 313.6025
545.2821, 350.4331
545.7642, 376.4937
546.2463, 406.2583
546.7285, 452.4219
547.2106, 496.5312
547.6926, 520.7290
548.1747, 526.4116
548.6569, 536.0977
549.1390, 558.4619
549.6211, 590.2959
550.1032, 633.6445
550.5853, 684.9424
551.0674, 726.6831
551.5496, 750.9038
552.0317, 769.8389
552.5138, 803.7515
552.9959, 857.4175
553.4780, 906.7378
553.9601, 952.5151
554.4423, 996.6338
554.9244, 1032.326
555.4065, 1067.044
555.8886, 1112.863
556.3707, 1174.299
556.8528, 1241.833
557.3350, 1306.723
557.8171, 1369.098
558.2992, 1427.162
558.7813, 1481.022
559.2634, 1528.147
559.7455, 1565.083
560.2277, 1594.356
560.7098, 1624.134
561.1919, 1657.620
561.6740, 1687.560
562.1561, 1716.095
562.6382, 1736.062
563.1204, 1740.308
563.6025, 1728.152
564.0846, 1702.018
564.5667, 1662.543
565.0488, 1611.684
565.5309, 1556.412
566.0131, 1494.324
566.4952, 1433.678
566.9773, 1375.689
567.4594, 1319.491
567.9415, 1269.110
568.4236, 1221.387
568.9058, 1162.910
569.3879, 1078.102
569.8700, 988.6172
570.3521, 913.8628
570.8342, 852.1108
571.3163, 798.6021
571.7985, 752.2285
572.2806, 710.2588
572.7627, 669.7026
573.2448, 630.2041
573.7269, 594.2515
574.2090, 554.2495
574.6912, 526.1445
575.1733, 521.1567
575.6554, 526.3774
576.1375, 528.9434
576.6196, 525.4946
577.1017, 517.7622
577.5839, 505.4736
578.0660, 490.1797
578.5481, 478.8906
579.0302, 472.8560
579.5123, 460.4722
579.9944, 434.6753
580.4766, 402.3623
580.9587, 372.4165
581.4408, 338.8032
581.9229, 318.1245
582.4050, 326.0757
582.8871, 338.5410
583.3693, 340.0029
583.8514, 332.5000
584.3335, 324.1782
584.8156, 318.8276
585.2977, 311.4756
585.7798, 291.8623
586.2620, 258.4629
586.7441, 232.1411
587.2262, 209.4023
587.7083, 195.2666
588.1904, 207.8970
588.6725, 227.4946
589.1547, 215.9795
589.6368, 151.4751
590.1189, 102.9541
590.6010, 114.0967
591.0831, 148.8247
591.5652, 170.4243
592.0474, 173.7129
592.5295, 160.2324
593.0116, 128.1318
593.4937, 88.23975
593.9758, 76.44434
594.4579, 110.5376
594.9401, 130.5771
595.4222, 121.5933
595.9043, 106.2568
596.3864, 93.90527
596.8685, 84.14990
597.3506, 74.04150
597.8328, 61.26904
598.3149, 50.32471
598.7970, 43.53760
599.2791, 41.85742
599.7612, 50.80518
600.2433, 71.51465
600.7255, 89.50000
601.2076, 91.00195
601.6897, 78.93555
602.1718, 77.28125
602.6539, 103.1377
603.1360, 115.8701
603.6182, 101.4946
604.1003, 81.78760
604.5824, 74.16553
605.0645, 77.17285
605.5466, 77.07568
606.0287, 62.61279
606.5109, 45.34180
606.9930, 47.20312
607.4751, 64.84814
607.9572, 69.29639
608.4393, 50.38184
608.9214, 29.86572
609.4036, 26.06934
609.8857, 37.26904
610.3678, 51.85156
610.8499, 88.49756
611.3320, 107.0122
611.8141, 80.30127
612.2963, 42.16943
612.7784, 29.06836
613.2605, 42.70850
613.7426, 57.80518
614.2247, 55.01367
614.7068, 40.38330
615.1890, 25.33887
615.6711, 9.337402
616.1532, 7.320801
616.6353, 29.74365
617.1174, 56.72900
617.5995, 65.71143
618.0817, 56.24072
618.5638, 45.86035
619.0459, 28.44043
619.5280, 18.07861
620.0101, 26.82666
620.4922, 42.43799
620.9744, 49.85107
621.4565, 46.22412
621.9386, 38.01074
622.4207, 30.17822
622.9028, 22.75244
623.3849, 14.46826
623.8671, 3.786133
624.3492, 1.854004
624.8313, 15.52881
625.3134, 35.43262
625.7955, 54.50537
626.2776, 72.72754
626.7598, 76.52051
627.2419, 43.98486
627.7240, 18.20898
628.2061, 32.48926
628.6882, 62.72119
629.1703, 68.62158
629.6525, 43.69434
630.1346, 19.03809
630.6167, 29.17432
631.0988, 65.15674
631.5809, 73.36963
632.0630, 45.01025
632.5452, 23.44824
633.0273, 24.21094
633.5094, 34.96582
633.9915, 43.43311
634.4736, 49.65771
634.9557, 53.47607
635.4379, 55.89404
635.9200, 54.76855
636.4021, 51.23486
636.8842, 42.49707
637.3663, 17.80713
637.8484, 22.04150
638.3306, 53.54102
638.8127, 50.38281
639.2948, 18.92822
639.7769, 1.952637
640.2590, 10.19629
640.7411, 15.22119
641.2233, 17.67139
641.7054, 19.82568
642.1875, 27.60010
642.6696, 39.80566
643.1517, 39.86475
643.6339, 5.074707
644.1160, 22.09912
644.5981, 8.177246
645.0802, 24.40820
645.5623, 42.73340
646.0444, 39.25635
646.5266, 22.84326
647.0087, 3.166016
647.4908, 32.34668
647.9729, 29.46973
648.4550, 15.07764
648.9371, 53.57568
649.4193, 75.48828
649.9014, 85.29834
650.3835, 87.01855
650.8656, 80.88281
651.3477, 67.08984
651.8298, 30.23877
652.3120, 3.898926
652.7941, 7.627441
653.2762, 27.39746
653.7583, 48.37061
654.2404, 66.06299
654.7225, 78.70947
655.2047, 85.00684
655.6868, 85.01514
656.1689, 77.21045
656.6510, 59.86523
657.1331, 44.58691
657.6152, 30.55029
658.0974, 23.99121
658.5795, 38.40527
659.0616, 67.39062
659.5437, 81.31885
660.0258, 65.30225
660.5079, 49.13916
660.9901, 44.27490
661.4722, 43.39941
661.9543, 37.81348
662.4364, 27.89746
662.9185, 19.76074
663.4006, 16.97559
663.8828, 19.92529
664.3649, 36.07227
664.8470, 66.55127
665.3291, 68.21045
665.8112, 21.79590
666.2933, 24.47607
666.7755, 34.82861
667.2576, 15.08691
667.7397, 6.031250
668.2218, 30.85889
668.7039, 53.19873
669.1860, 75.82373
669.6682, 92.25244
670.1503, 96.43018
670.6324, 89.99268
671.1145, 76.70605
671.5966, 57.33447
672.0787, 39.69580
672.5609, 38.54590
673.0430, 50.70215
673.5251, 51.74121
674.0072, 37.41455
674.4893, 22.74805
674.9714, 14.58643
675.4536, 13.70215
675.9357, 23.46240
676.4178, 54.05225
676.8999, 72.91260
677.3820, 72.93262
677.8641, 67.45117
678.3463, 56.42871
678.8284, 47.00928
679.3105, 52.00830
679.7926, 75.46143
680.2747, 100.9839
680.7568, 116.9663
681.2390, 122.5635
681.7211, 111.7886
682.2032, 85.43799
682.6853, 58.99707
683.1674, 37.78857
683.6495, 24.23438
684.1317, 23.48975
684.6138, 39.32422
685.0959, 48.03125
685.5780, 46.04297
686.0601, 41.12988
686.5422, 27.23730
687.0244, 16.11035
687.5065, 23.18701
687.9886, 48.67725
688.4707, 72.90234
688.9528, 86.39648
689.4349, 91.68896
689.9171, 90.70557
690.3992, 83.90137
690.8813, 73.25488
691.3634, 60.39600
691.8455, 48.28955
692.3276, 39.66406
692.8098, 34.45654
693.2919, 32.46484
693.7740, 34.13281
694.2561, 38.09570
694.7382, 46.30225
695.2203, 54.79541
695.7025, 61.74023
696.1846, 65.13672
696.6667, 61.68994
697.1488, 45.69531
697.6309, 33.57178
698.1130, 28.33789
698.5952, 30.81250
699.0773, 52.49707
699.5594, 88.03564
700.0415, 112.4868
700.5236, 109.4419
701.0057, 92.39990
701.4879, 92.35303
701.9700, 109.5142
702.4521, 107.4507
702.9342, 71.01904
703.4163, 44.75928
703.8984, 64.44727
704.3806, 108.8936
704.8627, 125.8345
705.3448, 104.5146
705.8269, 85.25342
706.3090, 69.99365
706.7911, 62.91016
707.2733, 80.86328
707.7554, 105.0620
708.2375, 100.1938
708.7196, 55.53809
709.2017, 7.710938
709.6838, 9.878418
710.1660, 4.667480
710.6481, 8.444824
711.1302, 28.44092
711.6123, 44.66357
712.0944, 53.67041
712.5765, 55.39160
713.0587, 47.01611
713.5408, 27.28711
714.0229, 24.73486
714.5050, 58.85547
714.9871, 83.60254
715.4692, 88.80615
715.9514, 84.58301
716.4335, 76.48193
716.9156, 66.14941
717.3977, 55.58740
717.8798, 38.70215
718.3619, 31.86084
718.8441, 62.89746
719.3262, 107.0835
719.8083, 116.9883
720.2904, 90.39941
720.7725, 64.35352
721.2546, 64.12207
721.7368, 79.69873
722.2189, 88.23730
722.7010, 89.52002
723.1831, 84.09082
723.6652, 67.08887
724.1473, 51.22168
724.6295, 46.39551
725.1116, 50.92578
725.5937, 58.52539
726.0758, 71.09668
726.5579, 74.91699
727.0400, 53.98096
727.5222, 37.35645
728.0043, 51.86426
728.4864, 78.85840
728.9685, 84.79248
729.4506, 62.15234
729.9327, 35.99561
730.4149, 29.58252
730.8970, 36.68457
731.3791, 39.97412
731.8612, 39.97266
732.3433, 49.61865
732.8254, 74.66016
733.3076, 97.76562
733.7897, 100.4131
734.2718, 84.16357
734.7539, 69.61426
735.2360, 56.29297
735.7181, 45.41748
736.2003, 33.51221
736.6824, 27.20459
737.1645, 34.09326
737.6466, 49.74268
738.1287, 61.76562
738.6108, 65.28613
739.0930, 68.71484
739.5751, 82.29639
740.0572, 94.65625
740.5393, 88.54346
741.0214, 68.44287
741.5035, 51.06738
741.9857, 44.33105
742.4678, 46.44727
742.9499, 60.11328
743.4320, 83.48535
743.9141, 88.39844
744.3962, 70.84521
744.8784, 55.85059
745.3605, 56.01904
745.8426, 58.47852
746.3247, 42.90234
746.8068, 5.544922
747.2889, 14.22510
747.7711, 14.30908
748.2532, 0.9438480
748.7353, 41.38135
749.2174, 84.44873
749.6995, 102.2778
750.1816, 95.97070
750.6638, 78.45947
751.1459, 48.08008
751.6280, 23.44385
752.1101, 29.21875
752.5922, 50.28662
753.0743, 59.66846
753.5565, 54.18506
754.0386, 37.89844
754.5207, 11.89844
755.0028, 13.91455
755.4849, 18.24854
755.9670, 1.405273
756.4492, 20.11572
756.9313, 40.19287
757.4134, 52.05225
757.8955, 47.82471
758.3776, 35.91064
758.8597, 29.16064
759.3419, 28.07568
759.8240, 26.13330
760.3061, 10.14453
760.7882, 8.390137
761.2703, 52.08740
761.7524, 101.8652
762.2346, 109.0806
762.7167, 76.49561
763.1988, 51.22461
763.6809, 67.86475
764.1630, 89.21240
764.6451, 58.54736
765.1273, 1.495117
765.6094, 9.587891
766.0915, 30.21582
766.5736, 60.65527
767.0557, 42.45605
767.5378, 1.403320
768.0200, 0.2055660
768.5021, 48.62891
768.9842, 77.08252
769.4663, 77.31738
769.9484, 73.09033
770.4305, 76.04395
770.9127, 79.02002
771.3948, 69.97705
771.8769, 47.82471
772.3590, 29.79590
772.8411, 6.859375
773.3232, 1.730957
773.8054, 42.87158
774.2875, 93.38184
774.7696, 115.4229
775.2517, 106.4424
775.7338, 82.13135
776.2159, 43.94824
776.6981, 8.989258
777.1802, 5.058594
777.6623, 1.062988
778.1444, 24.14648
778.6265, 66.17969
779.1086, 92.36035
779.5908, 83.12207
780.0729, 56.14648
780.5550, 42.53711
781.0371, 43.41602
781.5192, 70.34131
782.0013, 85.03271
782.4835, 88.14795
782.9656, 44.99121
783.4477, 61.65820
783.9298, 54.89209
784.4119, 46.60400
784.8940, 71.61035
785.3762, 35.17773
785.8583, 59.68164
786.3404, 59.91113
786.8225, 71.25537
787.3046, 19.03467
787.7867, 5.145020
788.2689, 19.74121
788.7510, 14.43799
789.2331, 1.426270
789.7152, 11.44238
790.1973, 24.10840
790.6794, 37.47168
791.1616, 50.82129
791.6437, 62.41455
792.1258, 71.92041
792.6079, 76.32568
793.0900, 68.35889
793.5721, 49.43115
794.0543, 37.44189
794.5364, 32.69189
795.0185, 32.09473
795.5006, 36.61377
795.9827, 42.41455
796.4648, 46.76709
796.9470, 49.32178
797.4291, 46.28320
797.9112, 27.64355
798.3933, 17.88867
798.8754, 17.90820
799.3575, 27.29834
799.8397, 59.55713
800.3218, 96.92334
800.8039, 103.2158
801.2860, 65.43945
801.7681, 30.56641
802.2502, 23.94580
802.7324, 28.93799
803.2145, 31.47021
803.6966, 33.82861
804.1787, 47.62451
804.6608, 72.34229
805.1429, 82.65723
805.6251, 51.41553
806.1072, 4.252441
806.5893, 3.620117
807.0714, 22.99951
807.5535, 51.88477
808.0356, 78.25098
808.5178, 96.08936
808.9999, 100.9282
809.4820, 95.79346
809.9641, 87.42285
810.4462, 73.69824
810.9283, 64.86914
811.4105, 66.30225
811.8926, 63.66699
812.3747, 41.84229
812.8568, 18.66357
813.3389, 22.75293
813.8210, 55.43311
814.3032, 69.73730
814.7853, 37.04443
815.2674, 13.00732
815.7495, 22.07178
816.2316, 43.36035
816.7137, 60.89844
817.1959, 72.66895
817.6780, 81.08594
818.1601, 87.63135
818.6422, 89.11133
819.1243, 80.56689
819.6064, 66.48828
820.0886, 50.16455
820.5707, 34.55273
821.0528, 28.15576
821.5349, 33.85498
822.0170, 48.64160
822.4991, 74.85791
822.9813, 104.3569
823.4634, 94.02197
823.9455, 42.24707
824.4276, 14.22900
824.9097, 28.25391
825.3918, 48.92578
825.8740, 48.82812
826.3561, 35.82812
826.8382, 36.99512
827.3203, 63.92432
827.8024, 78.20654
828.2845, 71.92578
828.7667, 62.71045
829.2488, 57.86816
829.7309, 52.99805
830.2130, 40.67676
830.6951, 20.64014
831.1772, 6.850098
831.6594, 0.8891600
832.1415, 4.160156
832.6236, 31.18115
833.1057, 57.55518
833.5878, 50.79736
834.0699, 20.13330
834.5521, 3.524414
835.0342, 19.33105
835.5163, 42.77148
835.9984, 50.47314
836.4805, 50.11426
836.9626, 55.96143
837.4448, 65.97559
837.9269, 68.28711
838.4090, 59.34082
838.8911, 49.86035
839.3732, 53.50732
839.8553, 63.67285
840.3375, 50.06982
840.8196, 11.87988
841.3017, 4.041992
841.7838, 14.85986
842.2659, 35.21973
842.7480, 33.88818
843.2302, 19.17627
843.7123, 11.80420
844.1944, 13.13428
844.6765, 17.55566
845.1586, 28.53271
845.6407, 36.99023
846.1229, 39.90234
846.6050, 39.36475
847.0871, 37.86914
847.5692, 34.87354
848.0513, 29.56445
848.5334, 20.98828
849.0156, 11.17969
849.4977, 3.087402
849.9798, 15.02100
850.4619, 19.52246
850.9440, 17.55078
851.4261, 12.04150
851.9083, 3.914551
852.3904, 8.070313
852.8725, 28.18164
853.3546, 50.34814
853.8367, 72.28271
854.3188, 88.78564
854.8010, 89.50244
855.2831, 75.21533
855.7652, 54.67236
856.2473, 31.73584
856.7294, 13.57568
857.2115, 18.91064
857.6937, 40.19434
858.1758, 52.98975
858.6579, 55.97510
859.1400, 52.23730
859.6221, 42.44287
860.1042, 31.75684
860.5864, 26.50879
861.0685, 26.90479
861.5506, 40.86963
862.0327, 75.90381
862.5148, 93.69531
862.9969, 78.93408
863.4791, 58.46191
863.9612, 52.14062
864.4433, 56.69629
864.9254, 62.77051
865.4075, 73.40576
865.8896, 76.38916
866.3718, 61.44922
866.8539, 51.52783
867.3360, 62.58447
867.8181, 77.74316
868.3002, 74.27490
868.7823, 52.69629
869.2645, 40.50098
869.7466, 52.74707
870.2287, 65.16846
870.7108, 75.21045
871.1929, 77.17529
871.6750, 50.69385
872.1572, 11.54785
872.6393, 5.744141
873.1214, 49.69775
873.6035, 87.27344
874.0856, 59.84766
874.5677, 19.73975
875.0499, 34.28906
875.5320, 79.55127
876.0141, 102.1470
876.4962, 93.88428
876.9783, 81.06250
877.4604, 81.78711
877.9426, 85.87646
878.4247, 74.99707
878.9068, 53.51074
879.3889, 35.20557
879.8710, 21.79736
880.3531, 21.93408
880.8353, 39.99365
881.3174, 59.44580
881.7995, 59.61670
882.2816, 44.06885
882.7637, 36.80908
883.2458, 39.64209
883.7280, 35.41797
884.2101, 17.61719
884.6922, 5.667969
885.1743, 15.25586
885.6564, 35.27197
886.1385, 40.23145
886.6207, 24.30371
887.1028, 20.07275
887.5849, 37.07617
888.0670, 50.37256
888.5491, 50.31787
889.0313, 46.64404
889.5134, 46.60449
889.9955, 50.26758
890.4776, 56.72656
890.9597, 66.51904
891.4418, 77.55518
891.9240, 101.0122
892.4061, 113.0527
892.8882, 86.58398
893.3703, 49.30615
893.8524, 44.33545
894.3345, 74.37793
894.8167, 94.44482
895.2988, 74.71826
895.7809, 54.92627
896.2630, 59.80420
896.7451, 72.49609
897.2272, 75.00342
897.7094, 69.76123
898.1915, 69.45312
898.6736, 78.64209
899.1557, 83.84912
899.6378, 72.71436
900.1199, 54.62354
900.6021, 37.89258
901.0842, 24.73779
901.5663, 22.55908
902.0484, 29.88379
902.5305, 30.92969
903.0126, 14.17285
903.4948, 3.111328
903.9769, 9.203613
904.4590, 41.01709
904.9411, 62.37549
905.4232, 72.10645
905.9053, 71.37256
906.3875, 60.69482
906.8696, 49.56592
907.3517, 47.22607
907.8338, 50.21826
908.3159, 49.19580
908.7980, 44.71533
909.2802, 36.62891
909.7623, 24.71143
910.2444, 10.60547
910.7265, 7.293457
911.2086, 20.80225
911.6907, 17.24414
912.1729, 3.242188
912.6550, 29.20947
913.1371, 71.81982
913.6192, 80.91797
914.1013, 26.51416
914.5834, 22.15723
915.0656, 14.36719
915.5477, 27.36426
916.0298, 51.09424
916.5119, 51.11670
916.9940, 54.67529
917.4761, 68.12744
917.9583, 76.09375
918.4404, 73.72705
918.9225, 65.72607
919.4046, 53.07129
919.8867, 37.65918
920.3688, 26.34326
920.8510, 21.78760
921.3331, 16.41309
921.8152, 4.609375
922.2973, 3.003906
922.7794, 1.591309
923.2615, 10.95117
923.7437, 17.06494
924.2258, 19.23828
924.7079, 19.62646
925.1900, 16.90723
925.6721, 15.78076
926.1542, 22.20020
926.6364, 27.17725
927.1185, 22.48291
927.6006, 11.56006
928.0827, 3.656738
928.5648, 20.75781
929.0469, 22.47607
929.5291, 19.90186
930.0112, 58.97119
930.4933, 49.05908
930.9754, 22.79297
931.4575, 19.18018
931.9396, 36.50879
932.4218, 59.96924
932.9039, 83.90625
933.3860, 96.58789
933.8681, 80.77881
934.3502, 53.84424
934.8323, 35.45508
935.3145, 24.14258
935.7966, 16.56201
936.2787, 12.64111
936.7608, 16.91602
937.2429, 32.42480
937.7250, 46.64551
938.2072, 40.43115
938.6893, 23.22510
939.1714, 16.12549
939.6535, 17.86133
940.1356, 21.54639
940.6177, 25.69727
941.0999, 33.83887
941.5820, 49.38086
942.0641, 65.33594
942.5462, 68.37207
943.0283, 60.65137
943.5104, 50.75098
943.9926, 39.33447
944.4747, 28.76855
944.9568, 19.64062
945.4389, 18.50293
945.9210, 33.29150
946.4031, 55.43555
946.8853, 58.48535
947.3674, 42.56250
947.8495, 34.59229
948.3316, 36.81348
948.8137, 41.18311
949.2958, 45.01270
949.7780, 47.93701
950.2601, 49.76172
950.7422, 50.16992
951.2243, 46.06738
951.7064, 35.64600
952.1885, 33.41211
952.6707, 42.89014
953.1528, 53.37354
953.6349, 62.17969
954.1170, 64.38379
954.5991, 51.16455
955.0812, 23.67480
955.5634, 5.747070
956.0455, 1.020508
956.5276, 2.710938
957.0097, 0.9101560
957.4918, 8.147949
957.9739, 21.98193
958.4561, 34.37549
958.9382, 28.71533
959.4203, 2.171875
959.9024, 0.7939450
960.3845, 38.00684
960.8666, 63.65576
961.3488, 61.35352
961.8309, 53.46191
962.3130, 53.66357
962.7951, 55.94043
963.2772, 47.16797
963.7593, 24.00977
964.2415, 7.607422
964.7236, 2.817871
965.2057, 5.336426
965.6878, 6.668457
966.1699, 20.57080
966.6520, 28.84668
967.1342, 33.00684
967.6163, 34.64453
968.0984, 29.84912
968.5805, 37.86670
969.0626, 81.78174
969.5447, 109.4355
970.0269, 91.76855
970.5090, 68.03955
970.9911, 71.77637
971.4732, 93.56494
971.9553, 106.6714
972.4374, 106.6470
972.9196, 100.2109
973.4017, 78.32471
973.8838, 62.61719
974.3659, 63.37158
974.8480, 71.73877
975.3301, 80.36719
975.8123, 89.79932
976.2944, 104.7593
976.7765, 130.6831
977.2586, 146.3257
977.7407, 133.8862
978.2228, 126.0566
978.7050, 146.4839
979.1871, 171.0889
979.6692, 171.3892
980.1513, 153.7031
980.6334, 149.2729
981.1155, 172.3901
981.5977, 183.9780
982.0798, 157.4609
982.5619, 134.1675
983.0440, 139.7998
983.5261, 156.2993
984.0082, 164.1953
984.4904, 163.4824
984.9725, 164.7671
985.4546, 177.1870
985.9367, 172.3901
986.4188, 111.9272
986.9009, 62.47510
987.3831, 80.61377
987.8652, 120.5229
988.3473, 125.3535
988.8294, 97.29150
989.3115, 75.74512
989.7936, 72.98730
990.2758, 75.82666
990.7579, 85.33887
991.2400, 91.69629
991.7221, 84.17139
992.2042, 72.77686
992.6863, 72.34326
993.1685, 81.11426
993.6506, 82.02539
994.1327, 63.10596
994.6148, 53.46289
995.0969, 76.72119
995.5790, 103.4990
996.0612, 120.0098
996.5433, 123.8564
997.0254, 105.4541
997.5075, 71.75049
997.9896, 52.30176
998.4717, 60.22168
998.9539, 74.15576
999.4360, 89.56152
999.9181, 101.9219
1000.400, 108.5903
1000.882, 109.9092
1001.364, 103.1128
1001.847, 91.13477
1002.329, 85.31641
1002.811, 90.89551
1003.293, 98.76709
1003.775, 109.3091
1004.257, 115.6709
1004.739, 112.6050
1005.221, 102.8452
1005.703, 85.63867
1006.186, 65.04883
1006.668, 53.60107
1007.150, 56.50732
1007.632, 65.80078
1008.114, 84.11768
1008.596, 100.6323
1009.078, 111.0786
1009.560, 113.7524
1010.043, 104.8042
1010.525, 87.33496
1011.007, 67.90527
1011.489, 44.36182
1011.971, 30.61523
1012.453, 41.15771
1012.935, 54.97998
1013.417, 60.00928
1013.899, 60.79150
1014.382, 59.79980
1014.864, 60.07568
1015.346, 71.32080
1015.828, 102.9272
1016.310, 118.3398
1016.792, 96.94238
1017.274, 67.30273
1017.756, 33.27588
1018.239, 7.951660
1018.721, 8.578125
1019.203, 28.66602
1019.685, 46.77832
1020.167, 57.69824
1020.649, 67.95361
1021.131, 87.24316
1021.613, 96.97803
1022.095, 76.29834
1022.578, 52.60889
1023.060, 55.50781
1023.542, 75.94678
1024.024, 86.35498
1024.506, 81.41650
1024.988, 69.09619
1025.470, 37.91113
1025.952, 17.45898
1026.435, 29.80469
1026.917, 47.22412
1027.399, 46.86865
1027.881, 34.46582
1028.363, 22.51318
1028.845, 11.19971
1029.327, 13.17188
1029.809, 51.15039
1030.292, 74.34619
1030.774, 54.36035
1031.256, 30.16406
1031.738, 27.65625
1032.220, 39.94922
1032.702, 56.52539
1033.184, 75.19873
1033.666, 82.12256
1034.148, 63.28369
1034.630, 52.38428
1035.113, 65.61816
1035.595, 76.41455
1036.077, 64.50879
1036.559, 44.01367
1037.041, 35.79980
1037.523, 40.37744
1038.005, 50.10596
1038.487, 81.80078
1038.970, 90.91064
1039.452, 52.90820
1039.934, 20.57861
1040.416, 21.04639
1040.898, 35.61475
1041.380, 43.42480
1041.862, 44.92139
1042.344, 45.12500
1042.826, 45.28516
1043.309, 41.39014
1043.791, 32.30957
1044.273, 20.19775
1044.755, 1.025879
1045.237, 13.97070
1045.719, 11.53857
1046.201, 4.251465
1046.683, 14.62207
1047.166, 18.72363
1047.648, 20.42334
1048.130, 19.71045
1048.612, 16.48096
1049.094, 10.06055
1049.576, 2.592285
1050.058, 4.782227
1050.540, 11.13232
1051.022, 14.54248
1051.505, 15.65479
1051.987, 6.055664
1052.469, 16.18115
1052.951, 38.35596
1053.433, 59.09131
1053.915, 68.90234
1054.397, 59.10938
1054.879, 42.52393
1055.361, 45.29541
1055.844, 64.61230
1056.326, 64.68750
1056.808, 45.59912
1057.290, 30.81641
1057.772, 24.34570
1058.254, 20.57715
1058.736, 16.60205
1059.218, 13.40723
1059.701, 11.00977
1060.183, 11.56006
1060.665, 28.15625
1061.147, 55.57227
1061.629, 61.19092
1062.111, 44.31787
1062.593, 32.36035
1063.075, 35.71143
1063.557, 39.56104
1064.040, 28.10742
1064.522, 11.59912
1065.004, 8.733398
1065.486, 15.64111
1065.968, 28.80664
1066.450, 42.63770
1066.932, 36.98828
1067.414, 11.32764
1067.896, 10.37695
1068.379, 15.91455
1068.861, 8.239746
1069.343, 13.81104
1069.825, 40.11328
1070.307, 60.98828
1070.789, 73.21973
1071.271, 70.19873
1071.753, 53.44873
1072.236, 29.91650
1072.718, 6.3477002E-02
1073.200, 17.26172
1073.682, 4.074707
1074.164, 30.06738
1074.646, 28.86963
1075.128, 18.17920
1075.610, 21.62109
1076.093, 35.61182
1076.575, 42.78174
1077.057, 38.28613
1077.539, 36.13574
1078.021, 39.55908
1078.503, 50.42139
1078.985, 89.29785
1079.467, 116.4727
1079.949, 84.84277
1080.432, 28.36084
1080.914, 4.667969
1081.396, 19.26270
1081.878, 38.11865
1082.360, 67.29248
1082.842, 81.79053
1083.324, 67.25244
1083.806, 49.92578
1084.288, 36.94873
1084.771, 30.57715
1085.253, 36.94824
1085.735, 52.54443
1086.217, 59.52539
1086.699, 49.46191
1087.181, 54.96680
1087.663, 94.68164
1088.145, 110.7856
1088.628, 79.04248
1089.110, 35.72266
1089.592, 0.1440430
1090.074, 20.20068
1090.556, 4.281250
1091.038, 50.02588
1091.520, 78.88525
1092.002, 80.13770
1092.484, 63.62158
1092.967, 26.09277
1093.449, 4.951172
1093.931, 21.28125
1094.413, 51.37451
1094.895, 67.23779
1095.377, 69.95508
1095.859, 57.04150
1096.341, 32.37061
1096.823, 30.73877
1097.306, 51.94434
1097.788, 65.32227
1098.270, 61.31006
1098.752, 53.66406
1099.234, 53.75049
1099.716, 53.91309
1100.198, 35.87354
1100.680, 13.06543
1101.163, 17.71777
1101.645, 39.93750
1102.127, 50.64697
1102.609, 48.11084
1103.091, 52.89307
1103.573, 76.68262
1104.055, 94.04395
1104.537, 72.74805
1105.020, 45.65039
1105.502, 47.83057
1105.984, 58.06201
1106.466, 43.20361
1106.948, 16.61572
1107.430, 15.40332
1107.912, 45.92529
1108.394, 74.85059
1108.876, 99.60010
1109.359, 104.3965
1109.841, 58.22363
1110.323, 19.54980
1110.805, 33.18018
1111.287, 68.28271
1111.769, 92.64600
1112.251, 101.1675
1112.733, 94.53076
1113.215, 60.08008
1113.698, 43.32471
1114.180, 58.45605
1114.662, 70.80273
1115.144, 71.78174
1115.626, 69.22754
1116.108, 68.14355
1116.590, 67.30957
1117.072, 65.59473
1117.555, 61.38135
1118.037, 49.88379
1118.519, 27.50781
1119.001, 19.16357
1119.483, 29.21973
1119.965, 44.81201
1120.447, 61.48682
1120.929, 75.39111
1121.411, 82.54150
1121.894, 83.90820
1122.376, 81.53467
1122.858, 75.53516
1123.340, 68.31152
1123.822, 58.49023
1124.304, 28.52979
1124.786, 19.18994
1125.268, 36.01709
1125.750, 6.525391
1126.233, 61.73438
1126.715, 77.17236
1127.197, 74.64893
1127.679, 84.43359
1128.161, 95.78223
1128.643, 86.51709
1129.125, 63.79590
1129.607, 51.04639
1130.090, 53.76807
1130.572, 59.78369
1131.054, 67.81104
1131.536, 69.16162
1132.018, 44.48535
1132.500, 23.77490
1132.982, 35.01221
1133.464, 56.52686
1133.947, 58.54102
1134.429, 45.86426
1134.911, 48.10156
1135.393, 77.27881
1135.875, 92.08789
1136.357, 74.80908
1136.839, 64.83154
1137.321, 78.60010
1137.803, 85.99023
1138.286, 62.12598
1138.768, 31.02002
1139.250, 33.07324
1139.732, 63.92822
1140.214, 83.01123
1140.696, 90.85059
1141.178, 49.19287
1141.660, 75.06934
1142.142, 88.70508
1142.625, 90.74854
1143.107, 46.52002
1143.589, 62.04932
1144.071, 53.62891
1144.553, 44.22656
1145.035, 68.16162
1145.517, 30.64697
1145.999, 54.03711
1146.482, 53.10547
1146.964, 63.30957
1147.446, 49.13330
1147.928, 41.12354
1148.410, 58.20947
1148.892, 62.50586
1149.374, 53.02002
1149.856, 54.79346
1150.339, 48.16113
1150.821, 27.87988
1151.303, 9.833008
1151.785, 24.21680
1152.267, 63.56152
1152.749, 83.82764
1153.231, 69.45068
1153.713, 55.39697
1154.195, 51.84863
1154.677, 46.50537
1155.160, 31.53857
1155.642, 18.20703
1156.124, 11.39111
1156.606, 12.12109
1157.088, 26.00488
1157.570, 50.50732
1158.052, 52.31885
1158.534, 21.71533
1159.017, 16.36523
1159.499, 45.10400
1159.981, 61.57666
1160.463, 50.67236
1160.945, 39.25488
1161.427, 44.66211
1161.909, 54.74268
1162.391, 39.28955
1162.874, 12.79199
1163.356, 33.26758
1163.838, 83.29883
1164.320, 108.5195
1164.802, 105.5894
1165.284, 89.11426
1165.766, 65.71240
1166.248, 44.84814
1166.730, 32.30273
1167.213, 25.70459
1167.695, 30.33936
1168.177, 32.50586
1168.659, 6.280273
1169.141, 19.64844
1169.623, 0.8813480
1170.105, 49.31934
1170.587, 82.90332
1171.069, 90.97656
1171.552, 90.80518
1172.034, 78.78516
1172.516, 68.84619
1172.998, 69.70850
1173.480, 61.91895
1173.962, 20.65820
1174.444, 8.014160
1174.926, 34.41650
1175.409, 120.1245
1175.891, 149.3228
1176.373, 117.4517
1176.855, 91.12891
1177.337, 70.21484
1177.819, 62.82861
1178.301, 70.09424
1178.783, 77.16699
1179.266, 76.39600
1179.748, 75.50342
1180.230, 84.85938
1180.712, 90.43164
1181.194, 79.28125
1181.676, 61.67529
1182.158, 68.42627
1182.640, 86.02588
1183.122, 78.92383
1183.604, 49.20654
1184.087, 30.48145
1184.569, 35.81641
1185.051, 46.41357
1185.533, 65.41211
1186.015, 71.83008
1186.497, 40.41455
1186.979, 10.86865
1187.461, 13.51660
1187.944, 33.19092
1188.426, 52.24219
1188.908, 68.25732
1189.390, 65.21875
1189.872, 31.79346
1190.354, 21.38281
1190.836, 39.99902
1191.318, 55.41357
1191.801, 60.81641
1192.283, 59.95361
1192.765, 54.21777
1193.247, 49.11621
1193.729, 54.28467
1194.211, 60.82373
1194.693, 38.29004
1195.175, 1.915039
1195.657, 8.269043
1196.140, 4.578613
1196.622, 28.31201
1197.104, 56.57617
1197.586, 78.91455
1198.068, 91.26514
1198.550, 94.14014
1199.032, 78.90332
1199.514, 65.91650
1199.996, 68.07031
1200.479, 76.04590
1200.961, 90.12598
1201.443, 100.6089
1201.925, 89.29492
1202.407, 59.56055
1202.889, 41.15576
1203.371, 46.60693
1203.853, 47.22705
1204.336, 41.78174
1204.818, 33.92773
1205.300, 20.11475
1205.782, 21.10010
1206.264, 47.99756
1206.746, 69.82812
1207.228, 43.80371
1207.710, 2.670410
1208.193, 7.980469
1208.675, 51.72998
1209.157, 51.82666
1209.639, 23.57129
1210.121, 24.26465
1210.603, 57.20166
1211.085, 89.19092
1211.567, 107.2275
1212.049, 112.2051
1212.531, 94.49707
1213.014, 77.72314
1213.496, 78.13965
1213.978, 79.77002
1214.460, 71.56982
1214.942, 58.01221
1215.424, 39.67529
1215.906, 19.05225
1216.388, 23.06738
1216.871, 58.38330
1217.353, 56.97900
1217.835, 2.327148
1218.317, 15.57764
1218.799, 20.43262
1219.281, 62.86182
1219.763, 93.45068
1220.245, 108.1089
1220.728, 101.6558
1221.210, 83.94727
1221.692, 68.48779
1222.174, 54.58301
1222.656, 49.78857
1223.138, 50.73438
1223.620, 59.93506
1224.102, 71.25928
1224.584, 65.88281
1225.067, 40.92578
1225.549, 22.99414
1226.031, 29.03027
1226.513, 33.02588
1226.995, 13.70215
1227.477, 2.779297
1227.959, 27.83545
1228.441, 59.27051
1228.923, 63.62744
1229.406, 50.09180
1229.888, 30.33740
1230.370, 6.570313
1230.852, 9.914551
1231.334, 42.23291
1231.816, 43.41846
1232.298, 22.26270
1232.780, 13.34375
1233.263, 24.77002
1233.745, 31.71777
1234.227, 20.56543
1234.709, 4.972656
1235.191, 0.1333010
1235.673, 0.0000000E+00
##END=



