##NAMES=Davidite-(La)
##RRUFFID=R110047
##IDEAL CHEMISTRY=La^3+^(Y^3+^,U^4+^)Fe^3+^_2_(Ti^4+^,Fe^3+^,Cr^3+^,V^5+^)_18_(O,OH,F)_38_
##LOCALITY=Billeroo Davidite Prospect, Plumbago Station, Olary Province, South Australia, Australia
##OWNER=RRUFF
##SOURCE=Donald M Doell
##DESCRIPTION=Black worn octahedron (metamict)
##STATUS=The identification of this mineral has been confirmed only by chemical analysis
##URL=rruff.info/R110047
##MEASURED CHEMISTRY=(La_0.45_Ce_0.39_Gd_0.05_Nd_0.02_Pr_0.01_Ca_0.05_)_∑=0.98_(Y_0.37_Yb_0.04_Er_0.04_Dy_0.03_Ho_0.01_Lu_0.01_U_0.17_Sc_0.09_Th_0.02_)_∑=0.78_Fe_2_(Ti_11.62_Fe_5.00_Cr_0.20_Al_0.20_Mn_0.12_Pb_0.05_Nb_0.05_Zr_0.05_Zn_0.02_Mg_0.01_)_∑=17.31_(O_36.92_OH_1.
189.9553, 1.190918
190.4374, 0.6860350
190.9196, 1.299316
191.4017, 4.465332
191.8838, 8.188965
192.3659, 12.44287
192.8480, 16.17822
193.3301, 18.91943
193.8123, 20.69727
194.2944, 21.50977
194.7765, 20.06201
195.2586, 19.25537
195.7407, 22.75586
196.2228, 30.64209
196.7050, 37.51855
197.1871, 38.74365
197.6692, 34.86914
198.1513, 32.84717
198.6334, 34.95459
199.1155, 37.81348
199.5977, 39.36670
200.0798, 39.56494
200.5619, 39.84668
201.0440, 40.73877
201.5261, 41.82275
202.0082, 43.53271
202.4904, 43.64062
202.9725, 46.17969
203.4546, 54.58154
203.9367, 65.85645
204.4188, 77.97559
204.9009, 86.45947
205.3831, 89.37354
205.8652, 92.09521
206.3473, 97.47998
206.8294, 98.49902
207.3115, 94.75098
207.7936, 88.37109
208.2758, 80.82324
208.7579, 74.08594
209.2400, 68.23193
209.7221, 64.31299
210.2042, 61.15430
210.6863, 58.61865
211.1685, 56.65186
211.6506, 54.89258
212.1327, 52.99219
212.6148, 50.42432
213.0969, 46.83691
213.5790, 43.84033
214.0612, 41.10840
214.5433, 39.09766
215.0254, 38.47412
215.5075, 39.30420
215.9896, 40.55762
216.4717, 40.80908
216.9539, 39.69092
217.4360, 37.65234
217.9181, 33.13623
218.4002, 28.49756
218.8823, 26.08691
219.3644, 26.46533
219.8466, 28.14941
220.3287, 29.54736
220.8108, 30.69482
221.2929, 31.59668
221.7750, 33.50830
222.2571, 34.69678
222.7393, 32.29492
223.2214, 25.32715
223.7035, 17.60986
224.1856, 14.41455
224.6677, 15.35938
225.1498, 15.81934
225.6320, 13.95361
226.1141, 11.04688
226.5962, 9.550293
227.0783, 10.38232
227.5604, 11.06396
228.0425, 7.698730
228.5247, 1.455566
229.0068, 2.450684
229.4889, 0.3105470
229.9710, 6.642578
230.4531, 9.348633
230.9352, 6.643555
231.4174, 2.481934
231.8995, 0.4829100
232.3816, 2.488770
232.8637, 4.006348
233.3458, 4.725586
233.8279, 5.093262
234.3101, 7.308105
234.7922, 14.18701
235.2743, 15.60449
235.7564, 7.584473
236.2385, 6.278320
236.7206, 18.87256
237.2028, 26.22266
237.6849, 29.10303
238.1670, 30.82861
238.6491, 31.90137
239.1312, 30.81104
239.6133, 25.96289
240.0955, 18.97900
240.5776, 12.26221
241.0597, 6.792480
241.5418, 2.864746
242.0239, 2.409180
242.5060, 8.778809
242.9882, 14.15039
243.4703, 15.53027
243.9524, 14.67920
244.4345, 14.12158
244.9166, 15.25635
245.3987, 17.82178
245.8809, 20.73389
246.3630, 24.28125
246.8451, 27.80078
247.3272, 31.96631
247.8093, 35.77148
248.2914, 37.93115
248.7736, 37.67627
249.2557, 35.54443
249.7378, 33.83154
250.2199, 32.97559
250.7020, 31.97021
251.1841, 30.47900
251.6663, 28.84570
252.1484, 27.61816
252.6305, 27.04297
253.1126, 26.81787
253.5947, 25.92188
254.0768, 23.91162
254.5590, 21.75146
255.0411, 18.58447
255.5232, 15.60400
256.0053, 14.14209
256.4874, 14.79443
256.9695, 17.06982
257.4517, 19.76660
257.9338, 23.62500
258.4159, 27.01221
258.8980, 29.23145
259.3801, 31.25391
259.8622, 34.05664
260.3444, 37.96631
260.8265, 42.74805
261.3086, 48.07373
261.7907, 56.02002
262.2728, 60.99463
262.7549, 60.92285
263.2371, 58.74072
263.7192, 57.39160
264.2013, 57.64209
264.6834, 58.22461
265.1655, 57.03320
265.6476, 52.36670
266.1298, 50.25732
266.6119, 52.76660
267.0940, 56.82471
267.5761, 59.92920
268.0582, 61.56104
268.5403, 62.01514
269.0225, 61.33643
269.5046, 59.08838
269.9867, 58.11475
270.4688, 58.90723
270.9509, 60.77100
271.4330, 63.33252
271.9152, 66.50293
272.3973, 70.05127
272.8794, 74.21338
273.3615, 78.99316
273.8436, 81.36621
274.3257, 78.61768
274.8079, 75.28760
275.2900, 75.06934
275.7721, 78.03223
276.2542, 81.98389
276.7363, 85.80225
277.2184, 89.39014
277.7006, 92.27490
278.1827, 93.63330
278.6648, 94.36035
279.1469, 96.10156
279.6290, 98.71240
280.1111, 99.36914
280.5933, 95.11475
281.0754, 87.95166
281.5575, 84.85205
282.0396, 88.52637
282.5217, 93.08496
283.0038, 95.22900
283.4860, 95.16504
283.9681, 93.92529
284.4502, 91.32812
284.9323, 88.63916
285.4144, 88.37109
285.8965, 91.55371
286.3787, 94.55322
286.8608, 94.66406
287.3429, 93.21533
287.8250, 94.02734
288.3071, 99.36475
288.7892, 105.6973
289.2714, 107.9453
289.7535, 105.7407
290.2356, 102.5947
290.7177, 99.06250
291.1998, 95.89160
291.6819, 95.75439
292.1641, 100.8330
292.6462, 105.2222
293.1283, 102.3540
293.6104, 93.70312
294.0925, 85.22461
294.5746, 77.49414
295.0568, 71.01123
295.5389, 67.80371
296.0210, 69.21924
296.5031, 70.57715
296.9852, 65.76367
297.4673, 57.22119
297.9495, 52.06396
298.4316, 55.48145
298.9137, 62.44434
299.3958, 65.62354
299.8779, 64.61523
300.3600, 61.74023
300.8422, 56.34619
301.3243, 50.11230
301.8064, 46.33545
302.2885, 46.96875
302.7706, 49.13721
303.2527, 49.79639
303.7349, 48.89697
304.2170, 46.98828
304.6991, 43.14844
305.1812, 39.01855
305.6633, 36.71338
306.1454, 36.55664
306.6276, 38.11963
307.1097, 42.64355
307.5918, 49.79980
308.0739, 53.46533
308.5560, 49.45264
309.0381, 42.83252
309.5203, 39.77246
310.0024, 40.74023
310.4845, 41.71631
310.9666, 39.52148
311.4487, 34.82520
311.9308, 31.01172
312.4130, 28.94385
312.8951, 27.62988
313.3772, 25.18262
313.8593, 22.02734
314.3414, 21.58838
314.8235, 28.13477
315.3057, 38.54053
315.7878, 44.88623
316.2699, 46.15381
316.7520, 44.02979
317.2341, 37.72021
317.7162, 29.05908
318.1984, 22.00000
318.6805, 18.14111
319.1626, 16.67285
319.6447, 17.02051
320.1268, 19.69043
320.6089, 21.60645
321.0911, 19.52100
321.5732, 16.04297
322.0553, 15.14941
322.5374, 19.06396
323.0195, 23.41504
323.5016, 22.69482
323.9838, 16.85400
324.4659, 12.81641
324.9480, 14.36768
325.4301, 18.33301
325.9122, 20.77881
326.3943, 21.32227
326.8765, 21.29688
327.3586, 21.42090
327.8407, 21.71924
328.3228, 22.57178
328.8049, 24.98096
329.2870, 26.60303
329.7692, 24.95020
330.2513, 20.27881
330.7334, 14.92090
331.2155, 8.805664
331.6976, 2.923828
332.1797, 0.2182620
332.6619, 2.062012
333.1440, 4.074707
333.6261, 1.801758
334.1082, 3.141602
334.5903, 7.039063
335.0724, 10.53125
335.5546, 11.49072
336.0367, 5.116699
336.5188, 9.436035
337.0009, 22.20312
337.4830, 27.15820
337.9651, 26.42676
338.4473, 23.95850
338.9294, 19.13525
339.4115, 14.29590
339.8936, 11.96973
340.3757, 11.71436
340.8578, 9.825684
341.3400, 3.276855
341.8221, 3.781738
342.3042, 4.580566
342.7863, 2.001953
343.2684, 8.045898
343.7505, 9.705566
344.2327, 7.965820
344.7148, 4.568848
345.1969, 0.8881840
345.6790, 5.882813
346.1611, 7.565430
346.6432, 6.385254
347.1254, 2.886230
347.6075, 5.345703
348.0896, 14.59180
348.5717, 20.31689
349.0538, 22.12891
349.5359, 21.46094
350.0181, 18.45947
350.5002, 13.66748
350.9823, 9.782715
351.4644, 6.521484
351.9465, 4.593262
352.4286, 5.140625
352.9108, 7.698730
353.3929, 9.913574
353.8750, 10.32129
354.3571, 10.02490
354.8392, 11.87207
355.3214, 16.66797
355.8035, 21.40576
356.2856, 26.32861
356.7677, 30.23779
357.2498, 30.21777
357.7319, 24.99756
358.2141, 18.14453
358.6962, 14.26855
359.1783, 13.55322
359.6604, 14.60498
360.1425, 19.13135
360.6246, 24.24023
361.1068, 27.04492
361.5889, 27.37793
362.0710, 27.11670
362.5531, 27.83350
363.0352, 29.51074
363.5173, 30.54590
363.9995, 31.12500
364.4816, 30.96631
364.9637, 28.73682
365.4458, 25.57471
365.9279, 24.39844
366.4100, 26.85107
366.8922, 31.99365
367.3743, 36.86523
367.8564, 41.65430
368.3385, 45.90869
368.8206, 48.63623
369.3027, 51.17773
369.7849, 56.15137
370.2670, 64.03711
370.7491, 71.12207
371.2312, 71.89600
371.7133, 63.39258
372.1954, 57.26367
372.6776, 54.34570
373.1597, 52.90625
373.6418, 52.48535
374.1239, 52.68115
374.6060, 52.51465
375.0881, 50.96094
375.5703, 48.15332
376.0524, 48.03125
376.5345, 54.30029
377.0166, 58.99023
377.4987, 58.94141
377.9808, 56.57373
378.4630, 55.35645
378.9451, 56.89258
379.4272, 60.48389
379.9093, 64.69531
380.3914, 71.48242
380.8735, 75.43994
381.3557, 73.85791
381.8378, 71.46387
382.3199, 72.01074
382.8020, 75.82666
383.2841, 80.37451
383.7662, 82.55176
384.2484, 81.51855
384.7305, 83.13623
385.2126, 92.16699
385.6947, 99.51123
386.1768, 100.8594
386.6589, 98.42432
387.1411, 97.01270
387.6232, 99.62891
388.1053, 104.6899
388.5874, 105.6094
389.0695, 99.18066
389.5516, 94.64990
390.0338, 94.71143
390.5159, 97.00635
390.9980, 99.60156
391.4801, 101.9551
391.9622, 104.3062
392.4443, 107.4224
392.9265, 111.5708
393.4086, 114.1851
393.8907, 115.4717
394.3728, 114.9678
394.8549, 111.6069
395.3370, 105.9917
395.8192, 100.2678
396.3013, 95.61353
396.7834, 91.89990
397.2655, 88.54614
397.7476, 85.13745
398.2297, 83.21460
398.7119, 83.51758
399.1940, 85.77368
399.6761, 90.55444
400.1582, 99.49854
400.6403, 108.1084
401.1224, 111.5640
401.6046, 110.0593
402.0867, 105.8301
402.5688, 97.56030
403.0509, 88.89526
403.5330, 83.57373
404.0151, 81.62866
404.4973, 82.29956
404.9794, 87.49976
405.4615, 94.46582
405.9436, 98.71753
406.4257, 99.77344
406.9078, 97.85693
407.3900, 91.87793
407.8721, 82.70361
408.3542, 74.99780
408.8363, 69.22363
409.3184, 64.92920
409.8005, 62.86938
410.2827, 62.37744
410.7648, 60.82031
411.2469, 56.71143
411.7290, 51.68726
412.2111, 49.75000
412.6932, 52.36230
413.1754, 53.75293
413.6575, 51.13330
414.1396, 47.75415
414.6217, 47.21191
415.1038, 50.00635
415.5859, 54.09277
416.0681, 57.85693
416.5502, 61.49365
417.0323, 61.76709
417.5144, 56.10352
417.9965, 50.33960
418.4786, 45.54736
418.9608, 42.53809
419.4429, 42.93970
419.9250, 47.59399
420.4071, 54.87109
420.8892, 60.25732
421.3713, 64.05957
421.8535, 65.15430
422.3356, 62.03174
422.8177, 57.47583
423.2998, 53.50952
423.7819, 50.43677
424.2640, 47.41846
424.7462, 43.24268
425.2283, 37.64429
425.7104, 34.59985
426.1925, 37.91333
426.6746, 39.68359
427.1567, 36.59033
427.6389, 30.72900
428.1210, 25.22534
428.6031, 21.42554
429.0852, 19.28687
429.5673, 18.79297
430.0494, 20.02515
430.5316, 22.60059
431.0137, 28.39478
431.4958, 34.21509
431.9779, 38.69702
432.4600, 41.51025
432.9421, 41.65503
433.4243, 36.59912
433.9064, 27.87134
434.3885, 22.20728
434.8706, 20.59937
435.3527, 20.43701
435.8348, 21.66748
436.3170, 22.94189
436.7991, 21.46387
437.2812, 14.72778
437.7633, 7.593750
438.2454, 5.210449
438.7275, 6.872559
439.2097, 7.835693
439.6918, 6.365479
440.1739, 3.651611
440.6560, 0.5859380
441.1381, 3.336670
441.6202, 3.852783
442.1024, 5.098389
442.5845, 15.41089
443.0666, 16.09985
443.5487, 6.782227
444.0308, 2.659424
444.5129, 4.838379
444.9951, 0.4060060
445.4772, 3.591797
445.9593, 7.495850
446.4414, 10.65283
446.9235, 12.51196
447.4056, 13.60791
447.8878, 15.13281
448.3699, 17.44995
448.8520, 19.05908
449.3341, 17.29321
449.8162, 9.819580
450.2983, 5.742676
450.7805, 6.966309
451.2626, 9.291504
451.7447, 11.37549
452.2268, 12.72192
452.7089, 12.68213
453.1910, 10.65503
453.6732, 7.261230
454.1553, 5.178711
454.6374, 5.168701
455.1195, 5.218018
455.6016, 6.241699
456.0837, 6.405518
456.5659, 2.888916
457.0480, 4.328369
457.5301, 10.59058
458.0122, 10.88013
458.4943, 5.294434
458.9764, 2.091553
459.4586, 14.72485
459.9407, 23.54346
460.4228, 21.46240
460.9049, 13.21558
461.3870, 7.202881
461.8691, 6.725098
462.3513, 9.026855
462.8334, 11.65967
463.3155, 14.55981
463.7976, 15.90063
464.2797, 14.63599
464.7618, 12.11133
465.2440, 10.14526
465.7261, 8.769531
466.2082, 6.813721
466.6903, 2.713379
467.1724, 1.562256
467.6545, 3.250732
468.1367, 2.256592
468.6188, 0.9453130
469.1009, 0.9384770
469.5830, 1.870361
470.0651, 1.936523
470.5472, 1.551025
471.0294, 6.3965000E-02
471.5115, 4.878906
471.9936, 10.28979
472.4757, 12.21802
472.9578, 9.868652
473.4399, 7.082764
473.9221, 9.019287
474.4042, 17.42651
474.8863, 20.19019
475.3684, 12.57495
475.8505, 5.037354
476.3326, 0.4157710
476.8148, 1.270508
477.2969, 0.1242680
477.7790, 4.787354
478.2611, 10.70947
478.7432, 13.16357
479.2253, 10.27686
479.7075, 9.276855
480.1896, 12.68164
480.6717, 16.78247
481.1538, 19.86743
481.6359, 21.84692
482.1180, 23.29614
482.6002, 24.77979
483.0823, 25.97778
483.5644, 25.46924
484.0465, 22.50610
484.5286, 20.68066
485.0107, 22.79053
485.4929, 26.45142
485.9750, 28.63184
486.4571, 28.75928
486.9392, 28.30347
487.4213, 27.53638
487.9034, 26.92212
488.3856, 28.01611
488.8677, 31.33447
489.3498, 34.17603
489.8319, 34.07983
490.3140, 31.12891
490.7961, 28.39307
491.2783, 24.76636
491.7604, 22.56543
492.2425, 23.33203
492.7246, 26.04614
493.2067, 28.67993
493.6888, 30.48413
494.1710, 34.83374
494.6531, 36.49731
495.1352, 43.80933
495.6173, 49.59790
496.0994, 55.57080
496.5815, 58.64160
497.0637, 54.82812
497.5458, 47.09082
498.0279, 41.67700
498.5100, 42.48315
498.9921, 47.00049
499.4742, 50.15430
499.9564, 52.40234
500.4385, 53.37915
500.9206, 50.99731
501.4027, 49.27954
501.8848, 50.28418
502.3669, 53.74683
502.8491, 58.54541
503.3312, 64.64355
503.8133, 71.01831
504.2954, 74.75391
504.7775, 75.55786
505.2596, 75.05981
505.7418, 73.17944
506.2239, 70.97192
506.7060, 69.66162
507.1881, 68.92700
507.6702, 70.26831
508.1523, 77.29663
508.6345, 85.84009
509.1166, 88.01611
509.5987, 82.59058
510.0808, 75.69287
510.5629, 72.43921
511.0450, 72.64526
511.5272, 72.05859
512.0093, 70.26074
512.4914, 68.24341
512.9735, 64.14087
513.4556, 60.83374
513.9377, 63.13965
514.4199, 71.92700
514.9020, 82.41406
515.3841, 89.04395
515.8662, 92.13452
516.3483, 91.87402
516.8304, 86.62280
517.3126, 79.30933
517.7947, 67.74097
518.2768, 55.60571
518.7589, 48.41968
519.2410, 48.54810
519.7231, 51.89111
520.2053, 52.95044
520.6874, 51.63062
521.1695, 49.07935
521.6516, 43.91797
522.1337, 39.46436
522.6158, 39.14844
523.0980, 41.38867
523.5801, 41.55273
524.0622, 36.67163
524.5443, 30.36646
525.0264, 25.44531
525.5085, 22.07617
525.9907, 22.28149
526.4728, 27.75366
526.9549, 34.81226
527.4370, 37.87354
527.9191, 36.41089
528.4012, 35.13940
528.8834, 34.76685
529.3655, 34.56372
529.8476, 34.77783
530.3297, 34.78857
530.8118, 32.52197
531.2939, 26.61865
531.7761, 19.25195
532.2582, 16.21094
532.7403, 20.93115
533.2224, 23.62866
533.7045, 21.64014
534.1866, 19.95312
534.6688, 23.09155
535.1509, 29.41040
535.6330, 32.87646
536.1151, 28.77588
536.5972, 20.20728
537.0793, 15.51147
537.5615, 15.50635
538.0436, 16.24072
538.5257, 17.59741
539.0078, 18.53760
539.4899, 18.13867
539.9720, 16.42944
540.4542, 14.18750
540.9363, 11.71851
541.4184, 9.027588
541.9005, 5.631836
542.3826, 1.637695
542.8647, 1.086670
543.3469, 1.384766
543.8290, 2.1729000E-02
544.3111, 1.087891
544.7932, 1.771240
545.2753, 2.594971
545.7574, 4.023926
546.2396, 5.307129
546.7217, 5.874268
547.2038, 5.657959
547.6859, 4.670410
548.1680, 2.781494
548.6501, 0.3696290
549.1323, 0.7983400
549.6144, 0.1611330
550.0965, 0.8774410
550.5786, 0.2146000
551.0607, 9.1797002E-02
551.5428, 1.966309
552.0250, 5.969482
552.5071, 9.092041
552.9892, 8.638184
553.4713, 5.997803
553.9534, 5.790527
554.4355, 8.851318
554.9177, 9.804932
555.3998, 3.695068
555.8819, 3.534424
556.3640, 2.570313
556.8461, 8.123779
557.3282, 15.21411
557.8104, 9.886963
558.2925, 0.3669430
558.7746, 4.194824
559.2567, 3.321533
559.7388, 0.9655760
560.2209, 8.281494
560.7031, 16.86304
561.1852, 21.10938
561.6673, 18.19995
562.1494, 14.68335
562.6315, 10.34619
563.1136, 5.666748
563.5958, 0.3352050
564.0779, 5.150146
564.5600, 9.273682
565.0421, 10.93945
565.5242, 10.57251
566.0063, 9.556152
566.4885, 7.978516
566.9706, 5.517090
567.4527, 0.8791500
567.9348, 3.761963
568.4169, 7.115234
568.8990, 9.091064
569.3812, 9.923096
569.8633, 9.444092
570.3454, 8.047363
570.8275, 5.644531
571.3096, 2.419922
571.7917, 0.6530760
572.2739, 1.367432
572.7560, 3.947510
573.2381, 8.066895
573.7202, 15.24316
574.2023, 18.09888
574.6844, 11.79224
575.1666, 4.587158
575.6487, 2.156494
576.1308, 3.625488
576.6129, 5.814453
577.0950, 7.120850
577.5771, 7.541504
578.0593, 6.701416
578.5414, 3.259033
579.0235, 2.202637
579.5056, 5.593506
579.9877, 9.727539
580.4698, 13.83472
580.9520, 17.32764
581.4341, 19.08887
581.9162, 18.11914
582.3983, 16.22485
582.8804, 15.43945
583.3625, 15.77979
583.8447, 17.91797
584.3268, 22.84229
584.8089, 27.72046
585.2910, 29.37793
585.7731, 28.10645
586.2552, 26.80591
586.7374, 25.73804
587.2195, 24.70972
587.7016, 23.67847
588.1837, 22.62646
588.6658, 21.35693
589.1479, 19.85547
589.6301, 18.65942
590.1122, 18.36670
590.5943, 18.96753
591.0764, 20.59399
591.5585, 24.94629
592.0406, 28.30176
592.5228, 29.53101
593.0049, 29.39795
593.4870, 28.42676
593.9691, 26.80176
594.4512, 25.66528
594.9333, 26.52246
595.4155, 28.84839
595.8976, 29.96655
596.3797, 29.20410
596.8618, 29.81006
597.3439, 35.36523
597.8260, 42.92432
598.3082, 45.24292
598.7903, 40.28442
599.2724, 35.31470
599.7545, 30.63892
600.2366, 28.30542
600.7188, 32.02295
601.2009, 41.09692
601.6830, 50.54614
602.1651, 57.18042
602.6472, 60.94824
603.1293, 61.43921
603.6115, 55.64624
604.0936, 52.09448
604.5757, 52.19580
605.0578, 53.67480
605.5399, 56.20972
606.0220, 58.95923
606.5042, 59.73657
606.9863, 56.19458
607.4684, 51.95312
607.9505, 53.91309
608.4326, 61.79858
608.9147, 66.71533
609.3969, 65.43433
609.8790, 62.44043
610.3611, 62.86743
610.8432, 66.36475
611.3253, 68.52344
611.8074, 67.49512
612.2896, 66.47974
612.7717, 66.97363
613.2538, 68.64478
613.7359, 70.77417
614.2180, 73.54858
614.7001, 76.85107
615.1823, 80.19604
615.6644, 83.65332
616.1465, 85.22046
616.6286, 82.43750
617.1107, 81.10132
617.5928, 84.59497
618.0750, 89.12573
618.5571, 90.27832
619.0392, 87.38647
619.5213, 84.66650
620.0034, 85.22192
620.4855, 88.25977
620.9677, 92.63208
621.4498, 98.27173
621.9319, 102.5903
622.4140, 104.3184
622.8961, 104.4541
623.3782, 104.7593
623.8604, 105.1499
624.3425, 106.1990
624.8246, 109.0454
625.3067, 111.8301
625.7888, 111.8787
626.2709, 110.5627
626.7531, 112.2791
627.2352, 119.2908
627.7173, 127.6052
628.1994, 128.9124
628.6815, 121.1946
629.1636, 117.6809
629.6458, 122.3489
630.1279, 127.1277
630.6100, 127.0564
631.0921, 124.5332
631.5742, 123.9663
632.0563, 126.8784
632.5385, 130.5784
633.0206, 132.9670
633.5027, 134.7893
633.9848, 138.5300
634.4669, 144.4204
634.9490, 148.0872
635.4312, 145.7944
635.9133, 139.0913
636.3954, 135.2329
636.8775, 137.8040
637.3596, 138.5703
637.8417, 135.6929
638.3239, 132.1885
638.8060, 129.8713
639.2881, 128.8811
639.7702, 129.0564
640.2523, 130.7717
640.7344, 132.3838
641.2166, 129.9712
641.6987, 123.2646
642.1808, 118.3884
642.6629, 117.6104
643.1450, 117.1223
643.6271, 111.6628
644.1093, 103.1987
644.5914, 99.65576
645.0735, 107.4666
645.5556, 114.1304
646.0377, 112.5886
646.5198, 107.0688
647.0020, 102.7244
647.4841, 100.9241
647.9662, 102.1250
648.4483, 107.4248
648.9304, 115.7566
649.4125, 119.3247
649.8947, 115.2805
650.3768, 111.7385
650.8589, 112.2302
651.3410, 111.9922
651.8231, 106.4365
652.3052, 96.54614
652.7874, 88.15845
653.2695, 83.90894
653.7516, 82.56128
654.2337, 84.23022
654.7158, 87.90015
655.1979, 88.63135
655.6801, 84.78125
656.1622, 78.79614
656.6443, 72.78711
657.1264, 66.73706
657.6085, 63.66162
658.0906, 65.39331
658.5728, 66.55981
659.0549, 66.19897
659.5370, 65.20972
660.0191, 63.77368
660.5012, 61.54614
660.9833, 59.05078
661.4655, 56.07178
661.9476, 53.16919
662.4297, 52.72583
662.9118, 55.19385
663.3939, 56.69019
663.8760, 56.21899
664.3582, 54.05762
664.8403, 49.39429
665.3224, 42.51855
665.8045, 38.20996
666.2866, 39.50293
666.7687, 41.16138
667.2509, 39.46436
667.7330, 36.47290
668.2151, 36.29224
668.6972, 39.62988
669.1793, 42.90454
669.6614, 41.96362
670.1436, 37.42578
670.6257, 38.72925
671.1078, 50.93140
671.5899, 57.65747
672.0720, 48.70825
672.5541, 36.67212
673.0363, 31.70190
673.5184, 33.81152
674.0005, 35.82666
674.4826, 34.76025
674.9647, 32.11475
675.4468, 28.17749
675.9290, 23.85059
676.4111, 22.06250
676.8932, 23.75293
677.3753, 26.93286
677.8574, 29.34814
678.3395, 31.02539
678.8217, 32.96777
679.3038, 37.30640
679.7859, 38.95923
680.2680, 34.99121
680.7501, 29.45972
681.2322, 25.73828
681.7144, 24.26953
682.1965, 23.82983
682.6786, 24.01123
683.1607, 24.64185
683.6428, 25.47461
684.1249, 26.46509
684.6071, 26.16650
685.0892, 23.95190
685.5713, 20.79517
686.0534, 17.16626
686.5355, 12.86328
687.0176, 12.33984
687.4998, 19.79346
687.9819, 25.35938
688.4640, 24.48120
688.9461, 21.82617
689.4282, 23.35474
689.9103, 28.85913
690.3925, 32.08301
690.8746, 27.26758
691.3567, 17.92432
691.8388, 12.57593
692.3209, 11.38745
692.8030, 10.33789
693.2852, 8.312256
693.7673, 6.274170
694.2494, 5.491211
694.7315, 5.830566
695.2136, 5.164307
695.6957, 1.939209
696.1779, 0.4978030
696.6600, 0.4387210
697.1421, 0.6804200
697.6242, 1.269531
698.1063, 1.177734
698.5884, 1.364746
699.0706, 2.596924
699.5527, 4.455078
700.0348, 6.200439
700.5169, 8.072998
700.9990, 7.651611
701.4811, 2.928223
701.9633, 1.898926
702.4454, 3.098389
702.9275, 1.390869
703.4096, 0.6281740
703.8917, 3.741943
704.3738, 5.867188
704.8560, 4.958984
705.3381, 3.254883
705.8202, 3.697510
706.3023, 6.285156
706.7844, 8.990967
707.2665, 10.52881
707.7487, 10.91626
708.2308, 10.02832
708.7129, 7.610596
709.1950, 4.934326
709.6771, 1.049316
710.1592, 1.563721
710.6414, 4.1992001E-02
711.1235, 3.665039
711.6056, 5.181396
712.0877, 2.663574
712.5698, 0.6159670
713.0519, 2.849854
713.5341, 5.794678
714.0162, 4.109131
714.4983, 1.405518
714.9804, 5.108643
715.4625, 3.614502
715.9446, 0.3393550
716.4268, 0.2626950
716.9089, 5.685547
717.3910, 7.161133
717.8731, 0.4030760
718.3552, 6.054443
718.8373, 7.955078
719.3195, 7.256592
719.8016, 6.612305
720.2837, 6.398193
720.7658, 6.178711
721.2479, 5.706543
721.7300, 5.148682
722.2122, 4.282227
722.6943, 3.442871
723.1764, 4.159180
723.6585, 7.132568
724.1406, 10.05542
724.6227, 9.003418
725.1049, 3.329346
725.5870, 0.1760250
726.0691, 0.2014160
726.5512, 1.0498000E-02
727.0333, 4.459961
727.5154, 8.916260
727.9976, 8.219971
728.4797, 2.093506
728.9618, 3.281982
729.4439, 3.284180
729.9260, 3.171387
730.4081, 9.353027
730.8903, 19.06763
731.3724, 25.48120
731.8545, 26.32275
732.3366, 24.17749
732.8187, 21.75244
733.3008, 19.02051
733.7830, 15.20996
734.2651, 9.348389
734.7472, 4.533936
735.2293, 1.283691
735.7114, 0.4716800
736.1935, 0.6015630
736.6757, 0.8034670
737.1578, 3.379883
737.6399, 8.690674
738.1220, 12.97021
738.6041, 13.49194
739.0862, 11.42700
739.5684, 7.007813
740.0505, 1.242188
740.5326, 0.8320310
741.0147, 5.024414
741.4968, 15.53418
741.9789, 20.44507
742.4611, 18.09888
742.9432, 16.25195
743.4253, 16.19580
743.9074, 16.01172
744.3895, 13.60010
744.8716, 10.56006
745.3538, 10.25342
745.8359, 14.25269
746.3180, 17.52710
746.8001, 16.54785
747.2822, 14.66846
747.7643, 16.16211
748.2465, 19.98804
748.7286, 21.47339
749.2107, 18.49194
749.6928, 14.72949
750.1749, 16.78296
750.6570, 25.18237
751.1392, 27.79492
751.6213, 22.31055
752.1034, 16.30908
752.5855, 12.53735
753.0676, 9.901855
753.5497, 7.040527
754.0319, 3.898926
754.5140, 1.311523
754.9961, 0.4626460
755.4782, 1.722412
755.9603, 2.763428
756.4424, 3.362305
756.9246, 3.104736
757.4067, 1.967285
757.8888, 0.2316890
758.3709, 2.183838
758.8530, 4.628906
759.3351, 4.291260
759.8173, 0.5661620
760.2994, 1.240234
760.7815, 0.9091800
761.2636, 4.110107
761.7457, 6.417725
762.2278, 7.762939
762.7100, 7.895508
763.1921, 5.083008
763.6742, 3.795898
764.1563, 6.765137
764.6384, 10.30518
765.1205, 10.69629
765.6027, 9.044678
766.0848, 9.180664
766.5669, 12.95703
767.0490, 17.83057
767.5311, 20.39990
768.0132, 20.98389
768.4954, 22.50098
768.9775, 25.41504
769.4596, 25.53076
769.9417, 19.53198
770.4238, 11.48218
770.9059, 9.011230
771.3881, 14.44507
771.8702, 16.00903
772.3523, 9.747070
772.8344, 4.084961
773.3165, 2.620850
773.7986, 3.569336
774.2808, 4.201904
774.7629, 3.991699
775.2450, 5.259277
775.7271, 11.52368
776.2092, 18.61743
776.6913, 20.39282
777.1735, 17.89404
777.6556, 14.88892
778.1377, 12.15576
778.6198, 11.29492
779.1019, 14.17627
779.5840, 19.71899
780.0662, 22.28760
780.5483, 20.10840
781.0304, 18.28613
781.5125, 17.64795
781.9946, 16.90015
782.4767, 15.47681
782.9589, 13.45776
783.4410, 10.80884
783.9231, 7.302734
784.4052, 4.655029
784.8873, 4.117432
785.3694, 4.432617
785.8516, 4.962646
786.3337, 5.663574
786.8158, 5.324951
787.2979, 3.393555
787.7800, 0.7893070
788.2621, 1.936523
788.7443, 4.620361
789.2264, 2.628174
789.7085, 4.544922
790.1906, 15.41846
790.6727, 34.42505
791.1548, 52.38892
791.6370, 59.66504
792.1191, 57.41455
792.6012, 53.07690
793.0833, 44.71802
793.5654, 38.07690
794.0475, 37.09619
794.5297, 37.89648
795.0118, 36.51465
795.4939, 32.82251
795.9760, 28.28418
796.4581, 23.55078
796.9402, 19.37305
797.4224, 16.80176
797.9045, 15.74292
798.3866, 16.30957
798.8687, 19.00537
799.3508, 20.84277
799.8329, 19.95239
800.3151, 17.97607
800.7972, 18.36255
801.2793, 22.73096
801.7614, 22.95923
802.2435, 13.91699
802.7256, 7.448242
803.2078, 8.553955
803.6899, 13.19702
804.1720, 16.64771
804.6541, 18.66333
805.1362, 20.93140
805.6183, 25.29517
806.1005, 29.21948
806.5826, 29.36890
807.0647, 27.21680
807.5468, 25.98682
808.0289, 26.22681
808.5110, 26.95093
808.9932, 27.40356
809.4753, 28.05396
809.9574, 30.52344
810.4395, 35.65552
810.9216, 38.85791
811.4037, 39.90698
811.8859, 38.96826
812.3680, 35.26611
812.8501, 29.89160
813.3322, 23.73730
813.8143, 16.31030
814.2964, 12.28516
814.7786, 14.72827
815.2607, 18.85840
815.7428, 23.28052
816.2249, 26.98291
816.7070, 27.79810
817.1891, 26.01074
817.6713, 25.35425
818.1534, 29.39404
818.6355, 35.36670
819.1176, 36.32153
819.5997, 33.14453
820.0818, 34.22144
820.5640, 41.71680
821.0461, 46.72388
821.5282, 42.03149
822.0103, 31.35815
822.4924, 26.20435
822.9745, 29.87256
823.4567, 31.45679
823.9388, 30.40356
824.4209, 27.96777
824.9030, 23.09961
825.3851, 17.86768
825.8672, 14.75562
826.3494, 14.13647
826.8315, 15.20386
827.3136, 20.05371
827.7957, 24.09912
828.2778, 21.73999
828.7599, 16.36353
829.2421, 14.48242
829.7242, 17.06421
830.2063, 20.59668
830.6884, 22.50464
831.1705, 23.21313
831.6526, 24.22339
832.1348, 25.62476
832.6169, 22.79321
833.0990, 13.57959
833.5811, 5.393311
834.0632, 1.982422
834.5453, 2.496338
835.0275, 5.851807
835.5096, 13.75854
835.9917, 19.35010
836.4738, 21.09790
836.9559, 22.27515
837.4380, 24.63159
837.9202, 26.69482
838.4023, 26.42139
838.8844, 23.89771
839.3665, 21.54272
839.8486, 21.00293
840.3307, 20.31348
840.8129, 15.99780
841.2950, 10.77637
841.7771, 11.23901
842.2592, 17.43335
842.7413, 23.08765
843.2234, 24.26001
843.7056, 22.66064
844.1877, 21.86963
844.6698, 22.10547
845.1519, 19.84937
845.6340, 13.52441
846.1161, 9.575684
846.5983, 11.45703
847.0804, 14.75977
847.5625, 13.32324
848.0446, 6.567383
848.5267, 3.605713
849.0089, 7.020020
849.4910, 10.76904
849.9731, 13.76514
850.4552, 15.91968
850.9373, 16.70117
851.4194, 16.60254
851.9016, 17.16406
852.3837, 19.28882
852.8658, 21.50220
853.3479, 23.25439
853.8300, 23.75928
854.3121, 20.95947
854.7943, 15.40503
855.2764, 9.493896
855.7585, 4.279785
856.2406, 1.186035
856.7227, 2.596436
857.2048, 8.055420
857.6870, 11.59155
858.1691, 12.58984
858.6512, 14.38574
859.1333, 19.81152
859.6154, 22.91162
860.0975, 15.74805
860.5797, 1.127441
861.0618, 5.098633
861.5439, 2.797852
862.0260, 9.297119
862.5081, 10.31885
862.9902, 12.02222
863.4724, 21.16650
863.9545, 32.33716
864.4366, 35.40088
864.9187, 28.39258
865.4008, 21.68335
865.8829, 22.92114
866.3651, 26.87134
866.8472, 28.31714
867.3293, 27.53589
867.8114, 24.87622
868.2935, 20.69775
868.7756, 16.55029
869.2578, 13.47290
869.7399, 11.73218
870.2220, 12.85645
870.7041, 17.08716
871.1862, 18.01807
871.6683, 13.99292
872.1505, 10.78540
872.6326, 11.51001
873.1147, 14.56372
873.5968, 17.61597
874.0789, 21.01831
874.5610, 22.41089
875.0432, 19.81274
875.5253, 17.94458
876.0074, 18.71143
876.4895, 19.99023
876.9716, 20.44507
877.4537, 19.72144
877.9359, 17.17407
878.4180, 11.81689
878.9001, 6.589111
879.3822, 2.311279
879.8643, 0.1855470
880.3464, 1.229980
880.8286, 5.166260
881.3107, 7.688721
881.7928, 7.411133
882.2749, 6.354004
882.7570, 6.643066
883.2391, 7.892822
883.7213, 7.589844
884.2034, 6.115479
884.6855, 11.84375
885.1676, 27.95264
885.6497, 42.79175
886.1318, 47.50171
886.6140, 43.97778
887.0961, 37.60889
887.5782, 26.56152
888.0603, 16.79175
888.5424, 7.075684
889.0245, 0.4169920
889.5067, 5.1514000E-02
889.9888, 1.978516
890.4709, 1.726074
890.9530, 0.9465330
891.4351, 0.8347170
891.9172, 6.932373
892.3994, 13.09058
892.8815, 13.20117
893.3636, 10.47412
893.8457, 6.889648
894.3278, 3.493896
894.8099, 2.148438
895.2921, 3.920410
895.7742, 5.600586
896.2563, 2.895020
896.7384, 1.214111
897.2205, 0.9096680
897.7026, 2.911377
898.1848, 5.460938
898.6669, 5.328369
899.1490, 5.594727
899.6311, 9.731934
900.1132, 16.03149
900.5953, 17.55542
901.0775, 13.84082
901.5596, 10.94629
902.0417, 10.26685
902.5238, 8.209961
903.0059, 1.055908
903.4880, 7.197998
903.9702, 7.556885
904.4523, 3.278809
904.9344, 8.597656
905.4165, 2.061523
905.8986, 1.784668
906.3807, 2.619141
906.8629, 9.106201
907.3450, 12.36377
907.8271, 12.77881
908.3092, 13.61475
908.7913, 17.08716
909.2734, 18.16553
909.7556, 11.42529
910.2377, 4.151123
910.7198, 3.383301
911.2019, 7.037598
911.6840, 10.65991
912.1661, 12.71094
912.6483, 12.94507
913.1304, 10.07104
913.6125, 6.205322
914.0946, 4.830078
914.5767, 5.478271
915.0588, 6.672852
915.5410, 8.131836
916.0231, 10.31909
916.5052, 13.61011
916.9873, 17.60571
917.4694, 22.02881
917.9515, 27.13281
918.4337, 29.79346
918.9158, 29.35498
919.3979, 27.30176
919.8800, 23.73267
920.3621, 19.13208
920.8442, 13.79370
921.3264, 7.848389
921.8085, 2.723877
922.2906, 3.242920
922.7727, 5.652832
923.2548, 1.184326
923.7369, 3.293701
924.2191, 3.948975
924.7012, 2.893066
925.1833, 3.725830
925.6654, 6.976563
926.1475, 9.083008
926.6296, 7.138428
927.1118, 5.985107
927.5939, 9.733398
928.0760, 14.37646
928.5581, 14.90430
929.0402, 12.06323
929.5223, 10.07422
930.0045, 10.79736
930.4866, 12.37085
930.9687, 12.63550
931.4508, 12.96021
931.9329, 17.35181
932.4150, 23.65796
932.8972, 23.75146
933.3793, 16.05444
933.8614, 8.465576
934.3435, 7.837891
934.8256, 12.15430
935.3077, 17.54370
935.7899, 23.79053
936.2720, 27.84375
936.7541, 29.40869
937.2362, 27.43921
937.7183, 20.50659
938.2004, 12.72876
938.6826, 10.68286
939.1647, 14.55273
939.6468, 15.19946
940.1289, 10.12598
940.6110, 8.075684
941.0931, 13.65649
941.5753, 18.83691
942.0574, 17.50000
942.5395, 11.61377
943.0216, 6.254883
943.5037, 1.043945
943.9858, 2.457275
944.4680, 3.749023
944.9501, 3.690674
945.4322, 1.779053
945.9143, 0.6791990
946.3964, 2.779541
946.8785, 4.260986
947.3607, 4.428955
947.8428, 1.759277
948.3249, 0.4953610
948.8070, 4.739014
949.2891, 9.869141
949.7712, 11.43335
950.2534, 10.34692
950.7355, 8.851318
951.2176, 7.724854
951.6997, 7.373535
952.1818, 8.052002
952.6639, 9.752686
953.1461, 13.81348
953.6282, 18.57617
954.1103, 19.31909
954.5924, 16.17065
955.0745, 14.00220
955.5566, 15.26733
956.0388, 17.10913
956.5209, 15.25513
957.0030, 10.86426
957.4851, 9.915039
957.9672, 12.39038
958.4493, 13.79443
958.9315, 13.01880
959.4136, 11.79785
959.8957, 11.38525
960.3778, 11.47119
960.8599, 11.16211
961.3420, 9.773926
961.8242, 9.437744
962.3063, 11.85669
962.7884, 12.31714
963.2705, 7.744873
963.7526, 2.675293
964.2347, 2.465576
964.7169, 6.287598
965.1990, 9.041016
965.6811, 8.033203
966.1632, 10.08130
966.6453, 19.45874
967.1274, 27.01245
967.6096, 27.66089
968.0917, 25.04443
968.5738, 23.60107
969.0559, 23.68188
969.5380, 23.86768
970.0201, 23.79004
970.5023, 23.77490
970.9844, 25.81055
971.4665, 26.23438
971.9486, 19.50049
972.4307, 9.644287
972.9128, 5.815186
973.3950, 10.23975
973.8771, 13.30298
974.3592, 7.209473
974.8413, 0.5737300
975.3234, 4.789551
975.8055, 5.775635
976.2877, 3.140625
976.7698, 2.149414
977.2519, 7.746094
977.7340, 12.62402
978.2161, 15.65820
978.6982, 14.36816
979.1804, 11.01929
979.6625, 8.812012
980.1446, 8.156250
980.6267, 12.07788
981.1088, 21.05249
981.5909, 30.72754
982.0731, 38.38892
982.5552, 42.81323
983.0373, 40.69653
983.5194, 32.99512
984.0015, 26.11572
984.4836, 20.23608
984.9658, 16.45264
985.4479, 15.37524
985.9300, 14.00610
986.4121, 9.056396
986.8942, 2.366455
987.3763, 1.139160
987.8585, 6.335693
988.3406, 11.19360
988.8227, 16.07056
989.3048, 18.00342
989.7869, 14.77124
990.2690, 9.784668
990.7512, 6.838379
991.2333, 5.854492
991.7154, 6.255127
992.1975, 9.024170
992.6796, 11.14258
993.1617, 11.34204
993.6439, 12.35767
994.1260, 17.30566
994.6081, 22.76562
995.0902, 23.51953
995.5723, 19.42188
996.0544, 15.40210
996.5366, 10.40698
997.0187, 7.336914
997.5008, 8.159912
997.9829, 9.463135
998.4650, 9.278564
998.9471, 8.158936
999.4293, 6.852783
999.9114, 5.372314
1000.393, 5.028564
1000.876, 8.129150
1001.358, 9.928223
1001.840, 5.825439
1002.322, 1.660156
1002.804, 4.557617
1003.286, 11.36670
1003.768, 13.15308
1004.250, 7.046143
1004.733, 2.070313
1005.215, 5.150879
1005.697, 8.892090
1006.179, 6.114990
1006.661, 1.881348
1007.143, 3.847168
1007.625, 10.63818
1008.107, 14.97778
1008.589, 13.70654
1009.072, 11.11621
1009.554, 11.42212
1010.036, 11.85010
1010.518, 8.144775
1011.000, 2.365723
1011.482, 1.565186
1011.964, 3.059082
1012.446, 3.484619
1012.929, 3.662109
1013.411, 2.454590
1013.893, 3.064209
1014.375, 10.15820
1014.857, 12.75342
1015.339, 11.95605
1015.821, 12.05640
1016.303, 13.97485
1016.785, 16.44946
1017.268, 18.81689
1017.750, 20.10376
1018.232, 17.59741
1018.714, 12.62256
1019.196, 11.20337
1019.678, 13.11255
1020.160, 14.64966
1020.642, 14.77686
1021.125, 13.71655
1021.607, 11.43311
1022.089, 8.890869
1022.571, 8.490723
1023.053, 10.09399
1023.535, 11.49976
1024.017, 12.67407
1024.499, 13.12134
1024.981, 12.64233
1025.464, 11.10596
1025.946, 7.870850
1026.428, 4.446045
1026.910, 6.492432
1027.392, 14.97217
1027.874, 18.54663
1028.356, 15.42310
1028.838, 14.60181
1029.321, 19.75659
1029.803, 26.86743
1030.285, 32.95288
1030.767, 37.08862
1031.249, 34.44873
1031.731, 22.32666
1032.213, 13.63062
1032.695, 9.112793
1033.177, 6.512451
1033.660, 5.547119
1034.142, 6.230469
1034.624, 8.708252
1035.106, 12.50439
1035.588, 16.09888
1036.070, 20.49902
1036.552, 22.13281
1037.034, 19.49268
1037.516, 16.57739
1037.999, 15.06909
1038.481, 13.77930
1038.963, 10.62280
1039.445, 6.219727
1039.927, 5.535889
1040.409, 12.99268
1040.891, 16.33594
1041.373, 11.31763
1041.855, 7.733643
1042.338, 9.416504
1042.820, 13.64624
1043.302, 18.82520
1043.784, 24.44141
1044.266, 26.75415
1044.748, 25.01831
1045.230, 21.05981
1045.712, 11.00977
1046.195, 3.596436
1046.677, 2.106201
1047.159, 5.038574
1047.641, 13.42603
1048.123, 25.59497
1048.605, 31.36890
1049.087, 26.00928
1049.569, 20.77783
1050.052, 15.47314
1050.534, 12.74658
1051.016, 16.13818
1051.498, 21.10815
1051.980, 22.35986
1052.462, 20.22681
1052.944, 18.68555
1053.426, 16.65210
1053.908, 18.85596
1054.391, 31.38159
1054.873, 43.33667
1055.355, 48.88745
1055.837, 49.39355
1056.319, 45.50757
1056.801, 38.42969
1057.283, 31.66699
1057.765, 23.95801
1058.248, 22.10986
1058.730, 32.92578
1059.212, 44.26831
1059.694, 51.93921
1060.176, 54.90796
1060.658, 50.81787
1061.140, 41.35645
1061.622, 32.33057
1062.104, 25.37183
1062.587, 19.85278
1063.069, 15.41382
1063.551, 12.55981
1064.033, 12.21167
1064.515, 12.97437
1064.997, 13.92993
1065.479, 14.52612
1065.961, 13.13037
1066.443, 8.174316
1066.926, 5.233398
1067.408, 7.950928
1067.890, 11.72168
1068.372, 13.99658
1068.854, 15.66479
1069.336, 18.46704
1069.818, 21.67090
1070.300, 22.46924
1070.782, 19.51440
1071.265, 16.91235
1071.747, 16.65698
1072.229, 17.00488
1072.711, 17.35596
1073.193, 17.42969
1073.675, 17.29858
1074.157, 16.65210
1074.639, 14.19092
1075.122, 9.081055
1075.604, 6.025879
1076.086, 9.076904
1076.568, 12.53955
1077.050, 13.47314
1077.532, 12.83398
1078.014, 10.65015
1078.496, 8.055176
1078.979, 7.772949
1079.461, 10.65405
1079.943, 12.63770
1080.425, 11.22729
1080.907, 9.209473
1081.389, 7.108154
1081.871, 5.985596
1082.353, 8.457031
1082.835, 12.18921
1083.318, 11.30396
1083.800, 4.584717
1084.282, 0.2744140
1084.764, 4.166992
1085.246, 8.521973
1085.728, 9.232666
1086.210, 8.967285
1086.692, 8.975342
1087.175, 10.21069
1087.657, 14.90527
1088.139, 23.03247
1088.621, 29.03955
1089.103, 30.63550
1089.585, 29.77222
1090.067, 25.69702
1090.549, 21.03101
1091.031, 16.05078
1091.514, 12.73975
1091.996, 13.93018
1092.478, 19.76855
1092.960, 28.12573
1093.442, 40.55957
1093.924, 51.13794
1094.406, 60.24854
1094.888, 64.08887
1095.370, 57.62280
1095.853, 46.13257
1096.335, 34.93359
1096.817, 25.13379
1097.299, 18.13086
1097.781, 15.65967
1098.263, 12.56738
1098.745, 3.486572
1099.227, 2.247559
1099.709, 3.223145
1100.192, 12.35205
1100.674, 17.07397
1101.156, 18.11304
1101.638, 20.89160
1102.120, 28.03394
1102.602, 30.67456
1103.084, 21.84302
1103.566, 14.24536
1104.049, 15.31519
1104.531, 17.44238
1105.013, 12.43066
1105.495, 3.606201
1105.977, 0.1188960
1106.459, 3.031250
1106.941, 6.166016
1107.423, 6.296143
1107.906, 8.868652
1108.388, 19.84668
1108.870, 29.10254
1109.352, 28.35913
1109.834, 22.09717
1110.316, 19.09644
1110.798, 20.18872
1111.280, 16.28540
1111.762, 0.7268070
1112.245, 11.56006
1112.727, 10.54736
1113.209, 6.716797
1113.691, 2.250000
1114.173, 1.252930
1114.655, 0.9394530
1115.137, 2.782227
1115.619, 4.325928
1116.102, 3.135498
1116.584, 0.6645510
1117.066, 5.970459
1117.548, 9.388672
1118.030, 3.783447
1118.512, 2.515381
1118.994, 0.3613280
1119.476, 2.362793
1119.958, 2.182129
1120.441, 2.937744
1120.923, 1.563965
1121.405, 9.166504
1121.887, 14.40942
1122.369, 14.02686
1122.851, 11.11523
1123.333, 6.973633
1123.815, 2.864990
1124.297, 1.554688
1124.780, 3.142822
1125.262, 6.582520
1125.744, 12.83716
1126.226, 17.12524
1126.708, 18.17212
1127.190, 18.90186
1127.672, 21.36670
1128.154, 23.12036
1128.636, 20.03149
1129.119, 19.18994
1129.601, 16.68408
1130.083, 11.79077
1130.565, 10.49707
1131.047, 4.812988
1131.529, 2.030273
1132.011, 5.462891
1132.493, 9.885010
1132.976, 9.629883
1133.458, 12.96118
1133.940, 15.28809
1134.422, 15.92383
1134.904, 19.46387
1135.386, 19.69189
1135.868, 20.11230
1136.350, 21.64014
1136.833, 21.53662
1137.315, 17.64062
1137.797, 12.47437
1138.279, 10.28589
1138.761, 10.36084
1139.243, 10.32642
1139.725, 10.29272
1140.207, 10.94604
1140.689, 12.27222
1141.172, 13.73413
1141.654, 15.04053
1142.136, 15.14014
1142.618, 11.98291
1143.100, 8.015625
1143.582, 7.408936
1144.064, 9.098877
1144.546, 11.38037
1145.029, 13.78149
1145.511, 15.87915
1145.993, 17.46753
1146.475, 18.05371
1146.957, 16.90503
1147.439, 15.63306
1147.921, 16.44067
1148.403, 17.50073
1148.885, 15.89307
1149.368, 13.24121
1149.850, 12.51685
1150.332, 13.95605
1150.814, 16.55322
1151.296, 20.46704
1151.778, 22.09912
1152.260, 17.14185
1152.742, 11.68091
1153.224, 9.714844
1153.707, 9.562988
1154.189, 10.05664
1154.671, 10.37573
1155.153, 8.508789
1155.635, 4.011230
1156.117, 2.135498
1156.599, 7.375244
1157.081, 11.25317
1157.563, 10.56885
1158.046, 8.898926
1158.528, 7.998535
1159.010, 7.769775
1159.492, 7.702881
1159.974, 7.907227
1160.456, 9.515625
1160.938, 13.92261
1161.420, 17.18335
1161.903, 19.49976
1162.385, 20.09961
1162.867, 17.32227
1163.349, 14.46509
1163.831, 14.66528
1164.313, 16.37085
1164.795, 15.19092
1165.277, 10.35522
1165.760, 9.377441
1166.242, 13.73975
1166.724, 17.10083
1167.206, 18.17896
1167.688, 19.16577
1168.170, 21.24902
1168.652, 23.68945
1169.134, 25.66016
1169.616, 26.97559
1170.099, 26.80005
1170.581, 25.89160
1171.063, 21.46851
1171.545, 13.34326
1172.027, 10.11621
1172.509, 14.41846
1172.991, 21.20117
1173.473, 27.61914
1173.956, 32.14478
1174.438, 30.73120
1174.920, 25.32080
1175.402, 22.27417
1175.884, 21.02612
1176.366, 20.06250
1176.848, 19.37598
1177.330, 17.77026
1177.813, 15.02271
1178.295, 12.70752
1178.777, 11.62744
1179.259, 11.95947
1179.741, 15.01587
1180.223, 18.70947
1180.705, 20.40234
1181.187, 20.10571
1181.669, 17.73413
1182.151, 13.86035
1182.634, 10.58789
1183.116, 8.566895
1183.598, 8.467285
1184.080, 12.97217
1184.562, 17.05103
1185.044, 15.56812
1185.526, 12.75317
1186.008, 14.83716
1186.490, 19.68579
1186.973, 20.72217
1187.455, 16.54492
1187.937, 14.12134
1188.419, 18.10669
1188.901, 19.02930
1189.383, 10.50635
1189.865, 3.866943
1190.347, 7.206787
1190.830, 13.42896
1191.312, 14.01123
1191.794, 10.70605
1192.276, 13.34009
1192.758, 26.26270
1193.240, 29.68506
1193.722, 19.28198
1194.204, 12.41846
1194.687, 13.90601
1195.169, 17.17920
1195.651, 18.52246
1196.133, 18.19287
1196.615, 16.33813
1197.097, 13.05078
1197.579, 11.38086
1198.061, 11.39502
1198.543, 11.87280
1199.026, 12.55469
1199.508, 12.74463
1199.990, 12.25684
1200.472, 11.83838
1200.954, 12.09863
1201.436, 12.92896
1201.918, 14.66504
1202.400, 16.70972
1202.883, 17.50732
1203.365, 17.64478
1203.847, 18.23926
1204.329, 19.76367
1204.811, 24.27197
1205.293, 32.18359
1205.775, 35.58008
1206.257, 25.34888
1206.740, 13.87476
1207.222, 9.150879
1207.704, 8.199463
1208.186, 10.00708
1208.668, 12.76294
1209.150, 15.12402
1209.632, 16.33057
1210.114, 13.71704
1210.596, 4.264893
1211.078, 0.8784180
1211.561, 2.643066
1212.043, 7.709473
1212.525, 14.47388
1213.007, 19.58521
1213.489, 20.71729
1213.971, 19.09692
1214.453, 15.73535
1214.935, 10.87427
1215.417, 9.621094
1215.900, 13.16333
1216.382, 15.80737
1216.864, 17.23828
1217.346, 17.91919
1217.828, 18.12646
1218.310, 16.53833
1218.792, 11.57642
1219.274, 6.417236
1219.757, 8.190918
1220.239, 5.660889
1220.721, 5.466553
1221.203, 7.540771
1221.685, 6.108398
1222.167, 9.631348
1222.649, 10.41943
1223.131, 6.119873
1223.614, 2.378418
1224.096, 3.201172
1224.578, 7.205566
1225.060, 14.43677
1225.542, 22.68115
1226.024, 31.34082
1226.506, 37.56396
1226.988, 35.88989
1227.470, 27.97266
1227.953, 19.59570
1228.435, 12.53223
1228.917, 6.627441
1229.399, 0.7412110
1229.881, 2.284180
1230.363, 0.7546390
1230.845, 4.249268
1231.327, 5.493652
1231.810, 4.985840
1232.292, 2.033447
1232.774, 2.053711
1233.256, 1.787109
1233.738, 4.352051
1234.220, 8.254639
1234.702, 9.317871
1235.184, 9.746582
1235.667, 9.329590
1236.149, 11.30493
1236.631, 18.15259
1237.113, 24.22876
1237.595, 22.14087
1238.077, 23.43066
1238.559, 21.40674
1239.041, 16.70410
1239.523, 14.26392
1240.005, 7.483154
1240.488, 3.229736
1240.970, 2.534424
1241.452, 1.345215
1241.934, 2.375732
1242.416, 4.658203
1242.898, 0.1274410
1243.380, 5.825439
1243.862, 5.176514
1244.344, 2.981934
1244.827, 5.168213
1245.309, 9.573486
1245.791, 11.87817
1246.273, 11.84888
1246.755, 12.17798
1247.237, 14.39307
1247.719, 14.16772
1248.201, 6.343506
1248.684, 1.652344
1249.166, 7.634277
1249.648, 13.02539
1250.130, 10.33301
1250.612, 4.750732
1251.094, 3.077881
1251.576, 4.830078
1252.058, 7.588135
1252.541, 12.18970
1253.023, 10.27832
1253.505, 0.8066410
1253.987, 4.538574
1254.469, 3.012695
1254.951, 0.5754390
1255.433, 0.4597170
1255.915, 9.2528999E-02
1256.397, 4.675049
1256.880, 10.48779
1257.362, 9.286621
1257.844, 11.63110
1258.326, 5.676758
1258.808, 10.19067
1259.290, 10.01392
1259.772, 5.585205
1260.254, 4.702148
1260.737, 10.57544
1261.219, 15.32959
1261.701, 13.03833
1262.183, 10.92163
1262.665, 11.34229
1263.147, 14.26733
1263.629, 21.84644
1264.111, 29.35791
1264.594, 35.35327
1265.076, 38.38013
1265.558, 37.87646
1266.040, 31.94946
1266.522, 29.47534
1267.004, 31.34741
1267.486, 33.08374
1267.968, 34.45093
1268.450, 34.96558
1268.932, 35.16895
1269.415, 33.69434
1269.897, 26.54077
1270.379, 17.17017
1270.861, 8.437256
1271.343, 2.442627
1271.825, 5.694092
1272.307, 14.78442
1272.789, 20.23730
1273.271, 20.82666
1273.754, 19.61890
1274.236, 17.41357
1274.718, 16.70752
1275.200, 20.47632
1275.682, 23.80103
1276.164, 23.12988
1276.646, 21.68530
1277.128, 22.32764
1277.611, 23.07007
1278.093, 21.58228
1278.575, 17.94287
1279.057, 14.25806
1279.539, 10.49536
1280.021, 7.837158
1280.503, 5.914795
1280.985, 5.239258
1281.468, 7.280029
1281.950, 7.206055
1282.432, 2.475342
1282.914, 0.5009770
1283.396, 3.901367
1283.878, 11.94507
1284.360, 11.13037
1284.842, 7.654541
1285.324, 0.0000000E+00
##END=



