##NAMES=Dingdaohengite-(Ce)
##RRUFFID=R150046
##IDEAL CHEMISTRY=(Ce^3+^,La^3+^)_4_Fe^2+^(Ti^4+^,Fe^2+^,Mg,Fe^3+^)_2_Ti^4+^_2_Si_4_O_22_
##LOCALITY=Mulanje Massif, Malawi
##OWNER=RRUFF
##SOURCE=Paul Botha
##DESCRIPTION=Dark brown striated prismatic crystals, associated with quartz
##STATUS=The identification of this mineral has been confirmed only by single crystal X-ray diffraction.
##URL=rruff.info/R150046
157.2795, 0.0000000E+00
157.7617, 0.8871920
158.2438, 1.107880
158.7259, 1.466095
159.2080, 0.9117430
159.6901, 0.2111970
160.1722, 7.0312999E-02
160.6544, 0.1298980
161.1365, 0.4825130
161.6186, 1.068863
162.1007, 1.665924
162.5828, 2.079086
163.0649, 1.898682
163.5471, 1.804443
164.0292, 2.261627
164.5113, 3.285736
164.9934, 4.081161
165.4755, 4.107681
165.9576, 3.714600
166.4398, 3.334091
166.9219, 3.004654
167.4040, 2.816605
167.8861, 2.941086
168.3682, 3.418655
168.8503, 3.795761
169.3325, 3.542709
169.8146, 2.987183
170.2967, 2.685211
170.7788, 3.019485
171.2609, 3.657181
171.7430, 4.340759
172.2252, 5.026337
172.7073, 5.515594
173.1894, 5.564590
173.6715, 5.299789
174.1536, 4.958054
174.6357, 4.559875
175.1179, 4.167847
175.6000, 3.845688
176.0821, 3.593475
176.5642, 3.421097
177.0463, 3.385864
177.5284, 3.411179
178.0106, 3.330399
178.4927, 3.084885
178.9748, 2.829285
179.4569, 2.451599
179.9390, 2.257767
180.4211, 2.070786
180.9033, 1.947037
181.3854, 1.931091
181.8675, 1.937378
182.3496, 1.910599
182.8317, 1.813568
183.3138, 1.652817
183.7960, 1.406586
184.2781, 1.136246
184.7602, 0.8183140
185.2423, 0.4842830
185.7244, 0.4464720
186.2065, 1.040359
186.6887, 1.966446
187.1708, 2.661041
187.6529, 3.095688
188.1350, 3.280563
188.6171, 3.116409
189.0992, 2.594772
189.5814, 2.009460
190.0635, 1.510422
190.5456, 1.090424
191.0277, 0.7587890
191.5098, 0.5238190
191.9919, 0.3644870
192.4741, 0.2605290
192.9562, 0.2198330
193.4383, 0.2196500
193.9204, 0.2845460
194.4025, 0.4034420
194.8846, 0.4435730
195.3668, 0.3610840
195.8489, 0.2266540
196.3310, 0.2222290
196.8131, 0.3589020
197.2952, 0.5456090
197.7773, 0.8197330
198.2595, 1.189667
198.7416, 1.183578
199.2237, 0.6060180
199.7058, 0.2664340
200.1879, 0.6017150
200.6700, 0.2994540
201.1522, 8.5266002E-02
201.6343, 0.1213680
202.1164, 0.2411800
202.5985, 0.4113770
203.0806, 0.2731780
203.5627, 7.9010002E-02
204.0449, 0.3730160
204.5270, 0.6256410
205.0091, 0.7588960
205.4912, 0.6633610
205.9733, 0.2814030
206.4554, 1.3763000E-02
206.9376, 7.0694000E-02
207.4197, 1.5091000E-02
207.9018, 1.3901000E-02
208.3839, 3.8300001E-03
208.8660, 5.3710002E-03
209.3481, 6.8604000E-02
209.8303, 0.2212520
210.3124, 0.3285060
210.7945, 0.3729400
211.2766, 0.3653560
211.7587, 0.3491970
212.2408, 0.3359990
212.7230, 0.2954250
213.2051, 0.1823880
213.6872, 5.3679999E-02
214.1693, 0.2106020
214.6514, 0.3068080
215.1335, 0.2583010
215.6157, 8.6516999E-02
216.0978, 0.9163060
216.5799, 1.684662
217.0620, 2.021210
217.5441, 1.792160
218.0262, 1.479050
218.5084, 1.057678
218.9905, 0.5921780
219.4726, 0.4770660
219.9547, 0.8868260
220.4368, 1.348007
220.9189, 1.559937
221.4011, 1.466019
221.8832, 1.276398
222.3653, 0.9419400
222.8474, 0.5272670
223.3295, 0.3152920
223.8116, 0.3831020
224.2938, 0.5400700
224.7759, 0.6705320
225.2580, 0.7369840
225.7401, 0.8703310
226.2222, 1.135559
226.7043, 1.472412
227.1865, 1.625610
227.6686, 1.482925
228.1507, 1.313934
228.6328, 1.284103
229.1149, 1.480621
229.5970, 1.598862
230.0792, 1.545761
230.5613, 1.403625
231.0434, 1.540665
231.5255, 2.223877
232.0076, 2.800003
232.4897, 2.848587
232.9719, 1.978134
233.4540, 1.490646
233.9361, 1.589676
234.4182, 2.098770
234.9003, 2.377151
235.3824, 2.245789
235.8646, 2.140472
236.3467, 2.289627
236.8288, 2.830719
237.3109, 3.313644
237.7930, 3.708084
238.2751, 4.034653
238.7573, 4.339752
239.2394, 4.590515
239.7215, 4.858261
240.2036, 5.203522
240.6857, 5.764969
241.1678, 6.061600
241.6500, 5.963760
242.1321, 5.633011
242.6142, 5.473587
243.0963, 5.503571
243.5784, 5.683472
244.0605, 6.078445
244.5427, 6.992966
245.0248, 7.302841
245.5069, 6.654678
245.9890, 5.541641
246.4711, 5.105255
246.9532, 5.779099
247.4354, 6.411041
247.9175, 6.501785
248.3996, 5.783630
248.8817, 5.420349
249.3638, 5.526535
249.8459, 5.928574
250.3281, 6.363770
250.8102, 7.055679
251.2923, 7.393372
251.7744, 7.018555
252.2565, 5.608902
252.7386, 4.907806
253.2208, 5.206146
253.7029, 5.997055
254.1850, 6.501648
254.6671, 6.619644
255.1492, 6.641190
255.6313, 6.601028
256.1135, 6.453079
256.5956, 6.542389
257.0777, 6.984177
257.5598, 7.510971
258.0419, 7.807663
258.5240, 7.871475
259.0062, 7.814713
259.4883, 7.549744
259.9704, 7.020859
260.4525, 6.883347
260.9346, 7.311066
261.4167, 7.967194
261.8989, 8.464813
262.3810, 8.806320
262.8631, 8.965485
263.3452, 8.881958
263.8273, 8.558319
264.3094, 8.347656
264.7916, 8.264557
265.2737, 8.297699
265.7558, 8.448990
266.2379, 8.768600
266.7200, 9.040161
267.2021, 9.245804
267.6843, 9.386871
268.1664, 9.602539
268.6485, 9.887680
269.1306, 10.11035
269.6127, 10.12926
270.0948, 9.887070
270.5770, 9.741592
271.0591, 9.759323
271.5412, 9.913696
272.0233, 10.12895
272.5054, 10.36687
272.9875, 10.72627
273.4697, 11.35641
273.9518, 12.31845
274.4339, 13.10004
274.9160, 13.68578
275.3981, 14.02448
275.8802, 13.83295
276.3624, 12.97192
276.8445, 12.14772
277.3266, 11.84427
277.8087, 12.09900
278.2908, 12.38623
278.7729, 12.67752
279.2551, 12.96359
279.7372, 13.26387
280.2193, 13.60837
280.7014, 13.77644
281.1835, 13.50684
281.6656, 12.81290
282.1478, 12.51486
282.6299, 12.71524
283.1120, 13.18097
283.5941, 13.57663
284.0762, 13.90575
284.5583, 14.12558
285.0405, 14.19374
285.5226, 14.12134
286.0047, 14.00444
286.4868, 13.82951
286.9689, 13.65871
287.4510, 13.55458
287.9332, 13.51685
288.4153, 13.57703
288.8974, 13.85060
289.3795, 14.23705
289.8616, 14.32611
290.3438, 14.09875
290.8259, 13.70114
291.3080, 13.18364
291.7901, 12.59125
292.2722, 12.18417
292.7543, 12.16801
293.2365, 12.38025
293.7186, 12.48457
294.2007, 12.49408
294.6828, 12.31868
295.1649, 11.79216
295.6470, 11.01805
296.1292, 10.27977
296.6113, 9.603546
297.0934, 9.068802
297.5755, 8.938324
298.0576, 9.176193
298.5397, 9.349289
299.0219, 9.097885
299.5040, 8.555298
299.9861, 7.970978
300.4682, 7.323624
300.9503, 6.800461
301.4324, 6.822983
301.9146, 7.242462
302.3967, 7.431717
302.8788, 6.677704
303.3609, 5.552231
303.8430, 4.950394
304.3251, 5.093842
304.8073, 5.381821
305.2894, 5.308258
305.7715, 4.948227
306.2536, 4.486023
306.7357, 3.759811
307.2178, 3.113876
307.7000, 2.979874
308.1821, 3.433151
308.6642, 3.941757
309.1463, 4.191101
309.6284, 4.219955
310.1105, 4.093140
310.5927, 3.727219
311.0748, 3.292206
311.5569, 2.893646
312.0390, 2.535507
312.5211, 2.198883
313.0032, 1.706192
313.4854, 1.290894
313.9675, 1.207916
314.4496, 2.089447
314.9317, 2.833588
315.4138, 2.831467
315.8959, 2.182785
316.3781, 1.495743
316.8602, 0.9036250
317.3423, 0.4580840
317.8244, 0.2109380
318.3065, 0.2976680
318.7886, 0.4084320
319.2708, 0.4631200
319.7529, 0.4662480
320.2350, 0.4316250
320.7171, 0.3353120
321.1992, 0.2183070
321.6813, 9.3047999E-02
322.1635, 5.7799999E-02
322.6456, 0.1827240
323.1277, 0.1806490
323.6098, 0.1645970
324.0919, 0.3229220
324.5740, 1.124603
325.0562, 1.705017
325.5383, 1.701630
326.0204, 0.9025120
326.5025, 0.3231350
326.9846, 9.6725002E-02
327.4667, 8.9446999E-02
327.9489, 0.1569370
328.4310, 0.5071870
328.9131, 0.6866610
329.3952, 0.5612340
329.8773, 0.1193700
330.3594, 0.2394260
330.8416, 0.5610810
331.3237, 0.7592770
331.8058, 0.7460170
332.2879, 0.2806550
332.7700, 1.7059000E-02
333.2521, 7.5317003E-02
333.7343, 0.3842320
334.2164, 0.5817410
334.6985, 0.5328220
335.1806, 0.5721590
335.6627, 0.9443360
336.1448, 1.861954
336.6270, 2.422409
337.1091, 2.505661
337.5912, 2.287018
338.0733, 2.116974
338.5554, 2.016312
339.0375, 1.905869
339.5197, 1.761246
340.0018, 1.584854
340.4839, 1.297409
340.9660, 0.8027190
341.4481, 0.4152980
341.9302, 0.7410430
342.4124, 1.862625
342.8945, 2.568604
343.3766, 2.357407
343.8587, 1.449219
344.3408, 0.8147890
344.8229, 0.4661870
345.3051, 0.3300480
345.7872, 0.4726560
346.2693, 0.8312380
346.7514, 0.9737550
347.2335, 0.7656250
347.7156, 0.3573610
348.1978, 6.7290999E-02
348.6799, 0.4884030
349.1620, 0.6785580
349.6441, 0.2012940
350.1262, 0.6071170
350.6083, 0.8444210
351.0905, 0.2825620
351.5726, 0.3975220
352.0547, 0.2534790
352.5368, 0.4573060
353.0189, 0.9551700
353.5010, 0.4569090
353.9832, 0.2877810
354.4653, 0.1955260
354.9474, 0.8131100
355.4295, 1.719299
355.9116, 1.536530
356.3937, 0.7734680
356.8759, 0.1960140
357.3580, 0.1844790
357.8401, 0.3628540
358.3222, 0.5275270
358.8043, 0.6776120
359.2864, 0.7922670
359.7686, 0.8314820
360.2507, 0.8468630
360.7328, 0.8817440
361.2149, 0.9559330
361.6970, 1.032349
362.1791, 1.189178
362.6613, 1.336731
363.1434, 1.271271
363.6255, 0.5871890
364.1076, 5.6458000E-02
364.5897, 0.3597720
365.0718, 0.2448120
365.5540, 6.8297997E-02
366.0361, 0.8176570
366.5182, 1.653229
367.0003, 2.155701
367.4824, 2.134857
367.9645, 1.929993
368.4467, 1.475128
368.9288, 0.7575680
369.4109, 0.3944400
369.8930, 0.7070920
370.3751, 1.135040
370.8572, 1.293243
371.3394, 0.9427490
371.8215, 0.7166140
372.3036, 0.5783390
372.7857, 0.5989690
373.2678, 1.119446
373.7499, 2.549774
374.2321, 3.755768
374.7142, 4.116333
375.1963, 3.386719
375.6784, 2.832336
376.1605, 2.438446
376.6426, 2.242981
377.1248, 2.426575
377.6069, 3.092926
378.0890, 3.505066
378.5711, 3.285400
379.0532, 2.559814
379.5353, 2.295776
380.0175, 2.546783
380.4996, 2.959717
380.9817, 3.131622
381.4638, 3.118195
381.9459, 3.417969
382.4280, 4.178040
382.9102, 5.155914
383.3923, 6.009949
383.8744, 6.776337
384.3565, 7.229553
384.8386, 6.981476
385.3207, 6.321381
385.8029, 5.820587
386.2850, 5.500763
386.7671, 5.411163
387.2492, 5.892517
387.7313, 6.682770
388.2134, 7.120239
388.6956, 6.558441
389.1777, 5.729492
389.6598, 5.182037
390.1419, 4.938416
390.6240, 5.066986
391.1061, 5.978516
391.5883, 7.140320
392.0704, 7.998871
392.5525, 8.337585
393.0346, 8.443634
393.5167, 8.317535
393.9988, 8.050537
394.4810, 7.895813
394.9631, 7.912292
395.4452, 8.085297
395.9273, 8.479950
396.4094, 9.254395
396.8915, 9.763184
397.3737, 9.592346
397.8558, 9.186188
398.3379, 9.092224
398.8200, 9.595123
399.3021, 10.16257
399.7842, 10.69974
400.2664, 11.20358
400.7485, 11.75089
401.2306, 12.46317
401.7127, 13.08609
402.1948, 13.43439
402.6769, 13.34491
403.1591, 13.32809
403.6412, 13.42917
404.1233, 13.60986
404.6054, 13.82129
405.0875, 14.13510
405.5696, 14.25803
406.0518, 13.91617
406.5339, 13.06787
407.0160, 12.90845
407.4981, 13.66403
407.9802, 14.59195
408.4623, 14.72098
408.9445, 14.07385
409.4266, 13.64627
409.9087, 13.74954
410.3908, 14.23895
410.8729, 14.88901
411.3550, 15.69489
411.8372, 16.33380
412.3193, 16.45480
412.8014, 16.27005
413.2835, 16.25958
413.7656, 16.48694
414.2477, 16.88568
414.7299, 17.48932
415.2120, 18.21112
415.6941, 18.82874
416.1762, 19.13672
416.6583, 19.35834
417.1404, 19.70459
417.6226, 20.17401
418.1047, 20.62076
418.5868, 20.97025
419.0689, 21.25671
419.5510, 21.48746
420.0331, 21.43552
420.5153, 21.62698
420.9974, 22.55869
421.4795, 23.92401
421.9616, 24.88373
422.4437, 24.91641
422.9258, 24.78906
423.4080, 24.83850
423.8901, 25.13403
424.3722, 25.44577
424.8543, 25.75516
425.3364, 26.06134
425.8185, 26.35281
426.3007, 26.61963
426.7828, 26.88943
427.2649, 27.18036
427.7470, 27.48605
428.2291, 27.74814
428.7112, 27.94876
429.1934, 28.13947
429.6755, 28.37775
430.1576, 28.69479
430.6397, 28.84113
431.1218, 28.73434
431.6039, 28.56784
432.0861, 28.70129
432.5682, 29.16159
433.0503, 29.54538
433.5324, 29.69055
434.0145, 29.66360
434.4966, 29.67108
434.9788, 29.71130
435.4609, 29.80725
435.9430, 30.08960
436.4251, 30.46542
436.9072, 30.66977
437.3893, 30.68372
437.8715, 30.47397
438.3536, 29.82214
438.8357, 28.91995
439.3178, 28.26111
439.7999, 28.29935
440.2820, 28.57025
440.7642, 28.72852
441.2463, 28.75214
441.7284, 28.53381
442.2105, 27.79443
442.6926, 26.87988
443.1747, 26.12238
443.6569, 25.65115
444.1390, 25.29150
444.6211, 25.02524
445.1032, 24.83408
445.5853, 24.67432
446.0674, 24.79950
446.5496, 24.72964
447.0317, 24.23077
447.5138, 23.12570
447.9959, 22.16879
448.4780, 21.41632
448.9601, 20.78006
449.4423, 20.17813
449.9244, 19.67438
450.4065, 19.08279
450.8886, 18.29660
451.3707, 17.41116
451.8528, 16.87192
452.3350, 16.81207
452.8171, 16.67572
453.2992, 16.07898
453.7813, 15.00693
454.2634, 14.11075
454.7455, 13.40338
455.2277, 12.82974
455.7098, 12.27560
456.1919, 11.76434
456.6740, 11.45901
457.1561, 11.52115
457.6382, 11.73373
458.1204, 11.82031
458.6025, 11.76328
459.0846, 11.41699
459.5667, 10.32678
460.0488, 9.032318
460.5309, 8.328827
461.0131, 8.457520
461.4952, 8.584137
461.9773, 7.909149
462.4594, 6.911255
462.9415, 6.282990
463.4236, 6.753418
463.9058, 7.216919
464.3879, 7.081482
464.8700, 6.416931
465.3521, 5.964935
465.8342, 6.208160
466.3163, 6.486786
466.7985, 6.429047
467.2806, 5.835785
467.7627, 5.203003
468.2448, 4.293915
468.7269, 3.460114
469.2090, 3.262695
469.6912, 4.264923
470.1733, 4.843140
470.6554, 4.412994
471.1375, 3.136505
471.6196, 2.708618
472.1017, 3.412323
472.5839, 4.167175
473.0660, 4.183899
473.5481, 3.454132
474.0302, 2.838440
474.5123, 2.434509
474.9944, 2.081757
475.4766, 1.446747
475.9587, 0.6000060
476.4408, 1.5228000E-02
476.9229, 5.5023000E-02
477.4050, 0.1533510
477.8871, 1.4040000E-03
478.3693, 0.4622500
478.8514, 0.8146970
479.3335, 0.5624390
479.8156, 0.1123960
480.2977, 1.5533000E-02
480.7798, 0.3518070
481.2620, 0.7676090
481.7441, 1.070374
482.2262, 1.240326
482.7083, 1.247406
483.1904, 0.9781800
483.6725, 0.6512760
484.1547, 0.3390500
484.6368, 4.6569999E-02
485.1189, 0.2479550
485.6010, 0.6343690
486.0831, 0.9505000
486.5652, 1.106293
487.0474, 1.019897
487.5295, 0.9432680
488.0116, 0.8531800
488.4937, 0.7893980
488.9758, 0.8370670
489.4579, 1.071686
489.9401, 1.182037
490.4222, 1.052124
490.9043, 0.7464290
491.3864, 0.5439760
491.8685, 0.4429630
492.3506, 0.4622190
492.8328, 0.7829900
493.3149, 1.277954
493.7970, 1.235321
494.2791, 0.4980470
494.7612, 0.2352290
495.2433, 8.9934997E-02
495.7255, 0.6905820
496.2076, 1.488739
496.6897, 2.124176
497.1718, 2.643219
497.6539, 3.072571
498.1360, 3.412537
498.6182, 3.670563
499.1003, 3.681641
499.5824, 3.725403
500.0645, 4.027313
500.5466, 4.680603
501.0287, 5.296143
501.5109, 5.866760
501.9930, 6.296143
502.4751, 6.479156
502.9572, 6.015808
503.4393, 5.761261
503.9214, 5.830048
504.4036, 6.172211
504.8857, 6.645691
505.3678, 7.368286
505.8499, 8.032318
506.3320, 8.534851
506.8141, 8.878662
507.2963, 8.966278
507.7784, 8.686371
508.2605, 8.458191
508.7426, 8.851501
509.2247, 9.810791
509.7068, 10.42685
510.1890, 10.40381
510.6711, 10.19989
511.1532, 10.63434
511.6353, 11.59894
512.1174, 12.56110
512.5995, 13.18909
513.0817, 13.69907
513.5638, 14.38223
514.0459, 15.24033
514.5280, 16.06107
515.0101, 16.84247
515.4922, 17.42212
515.9744, 17.58398
516.4565, 16.95615
516.9386, 16.57275
517.4207, 17.03946
517.9028, 17.95776
518.3849, 18.61343
518.8671, 18.24280
519.3492, 18.20218
519.8313, 18.96036
520.3134, 20.43884
520.7955, 21.62277
521.2776, 22.58054
521.7598, 23.20474
522.2419, 23.28531
522.7240, 22.61819
523.2061, 22.47046
523.6882, 22.92422
524.1703, 23.57562
524.6525, 23.92743
525.1346, 24.04739
525.6167, 24.31122
526.0988, 24.89606
526.5809, 25.59570
527.0630, 25.87527
527.5452, 25.80295
528.0273, 25.93600
528.5094, 26.95758
528.9915, 28.24142
529.4736, 29.06683
529.9557, 29.36377
530.4379, 29.43414
530.9200, 29.25931
531.4021, 29.07361
531.8842, 29.10873
532.3663, 29.76392
532.8484, 30.10687
533.3306, 29.61896
533.8127, 28.71725
534.2948, 28.26428
534.7769, 28.71603
535.2590, 29.13315
535.7411, 29.25848
536.2233, 29.08514
536.7054, 29.11453
537.1875, 29.53061
537.6696, 29.95483
538.1517, 30.07425
538.6339, 29.82770
539.1160, 29.68268
539.5981, 29.71738
540.0802, 29.77637
540.5623, 29.39044
541.0444, 28.76077
541.5266, 28.95953
542.0087, 30.89844
542.4908, 33.15070
542.9729, 33.57394
543.4550, 32.45053
543.9371, 30.96039
544.4193, 29.36639
544.9014, 27.93304
545.3835, 26.83942
545.8656, 26.09641
546.3477, 25.76459
546.8298, 26.31476
547.3120, 27.03967
547.7941, 27.34305
548.2762, 26.72742
548.7583, 26.22983
549.2404, 26.09964
549.7225, 26.08289
550.2047, 25.72513
550.6868, 24.83588
551.1689, 23.99167
551.6510, 23.32547
552.1331, 22.80307
552.6152, 22.35306
553.0974, 22.07846
553.5795, 21.68558
554.0616, 20.80496
554.5437, 19.55222
555.0258, 18.63501
555.5079, 18.11057
555.9901, 17.79407
556.4722, 17.65384
556.9543, 17.56189
557.4364, 17.23193
557.9185, 16.48483
558.4006, 15.62799
558.8828, 14.80270
559.3649, 14.04633
559.8470, 13.43274
560.3291, 13.14304
560.8112, 12.85370
561.2933, 12.37766
561.7755, 11.70111
562.2576, 11.10693
562.7397, 10.70868
563.2218, 10.33878
563.7039, 9.915497
564.1860, 9.418610
564.6682, 8.921204
565.1503, 8.421112
565.6324, 7.928162
566.1145, 7.500824
566.5966, 7.166199
567.0787, 6.642059
567.5609, 5.795349
568.0430, 4.830505
568.5251, 4.228424
569.0072, 3.952148
569.4893, 3.719696
569.9714, 3.433563
570.4536, 3.070679
570.9357, 2.459259
571.4178, 1.631378
571.8999, 1.077850
572.3820, 1.409332
572.8641, 1.991333
573.3463, 2.268341
573.8284, 2.100739
574.3105, 1.734772
574.7926, 0.8499450
575.2747, 5.5084001E-02
575.7568, 0.3371580
576.2390, 0.7834470
576.7211, 1.551514
577.2032, 1.733643
577.6853, 1.427704
578.1674, 0.9158330
578.6495, 0.1281430
579.1317, 0.6717220
579.6138, 1.528076
580.0959, 2.355896
580.5780, 2.220428
581.0601, 1.023834
581.5422, 0.1057430
582.0244, 0.1375120
582.5065, 0.6160580
582.9886, 1.499298
583.4707, 2.510254
583.9528, 3.216278
584.4349, 2.946777
584.9171, 2.195557
585.3992, 1.698425
585.8813, 1.988312
586.3634, 2.286407
586.8455, 2.198212
587.3276, 1.869507
587.8098, 1.702545
588.2919, 2.135864
588.7740, 2.369659
589.2561, 2.011444
589.7382, 1.043121
590.2203, 0.7176510
590.7025, 1.373291
591.1846, 2.075073
591.6667, 2.169464
592.1488, 1.604675
592.6309, 1.149902
593.1130, 0.8403020
593.5952, 0.5845030
594.0773, 0.2273250
594.5594, 0.1859440
595.0415, 0.4626160
595.5236, 0.5591130
596.0057, 0.5082700
596.4879, 0.1128540
596.9700, 0.4080510
597.4521, 0.5384830
597.9342, 0.4307860
598.4163, 1.442352
598.8984, 1.839233
599.3806, 1.679077
599.8627, 1.617279
600.3448, 1.806488
600.8269, 2.123230
601.3090, 2.535980
601.7911, 3.095428
602.2733, 3.552795
602.7554, 3.911835
603.2375, 4.161041
603.7196, 4.181152
604.2017, 3.916443
604.6838, 4.088196
605.1660, 4.894684
605.6481, 5.916931
606.1302, 6.473022
606.6123, 6.636169
607.0944, 6.726196
607.5765, 6.728638
608.0587, 6.852814
608.5408, 7.450256
609.0229, 8.402832
609.5050, 9.319763
609.9871, 10.00073
610.4692, 10.56689
610.9514, 11.08801
611.4335, 11.57535
611.9156, 11.96439
612.3977, 11.77731
612.8798, 11.85004
613.3619, 12.75632
613.8441, 15.23108
614.3262, 16.76471
614.8083, 17.10681
615.2904, 16.87512
615.7725, 16.73077
616.2546, 16.66818
616.7368, 16.85513
617.2189, 17.38141
617.7010, 18.09036
618.1831, 18.63351
618.6652, 19.08371
619.1473, 19.74377
619.6295, 21.07089
620.1116, 22.45895
620.5937, 23.25629
621.0758, 23.54044
621.5579, 23.72983
622.0400, 23.79568
622.5222, 23.99820
623.0043, 24.55676
623.4864, 25.57971
623.9685, 26.43710
624.4506, 27.03967
624.9327, 27.48096
625.4149, 27.76508
625.8970, 27.71481
626.3791, 28.07303
626.8612, 28.99762
627.3433, 30.10986
627.8254, 30.79120
628.3076, 31.07147
628.7897, 31.69733
629.2718, 33.10736
629.7539, 34.51886
630.2360, 34.40759
630.7181, 33.21262
631.2003, 32.31543
631.6824, 32.79483
632.1645, 33.54648
632.6466, 33.44931
633.1287, 32.67569
633.6108, 32.57977
634.0930, 34.77887
634.5751, 36.89349
635.0572, 37.51959
635.5393, 36.20627
636.0214, 35.52121
636.5035, 35.67636
636.9857, 36.13965
637.4678, 36.56577
637.9499, 36.97070
638.4320, 37.27097
638.9141, 37.51352
639.3962, 37.70276
639.8784, 37.71103
640.3605, 37.55255
640.8426, 37.48813
641.3247, 37.64352
641.8068, 37.81836
642.2889, 37.86829
642.7711, 37.84445
643.2532, 37.79080
643.7353, 37.59494
644.2174, 37.41803
644.6995, 37.38361
645.1816, 37.48541
645.6638, 37.57758
646.1459, 37.58417
646.6280, 37.57761
647.1101, 37.61218
647.5922, 37.71863
648.0743, 37.81757
648.5565, 37.80862
649.0386, 37.85370
649.5207, 38.23840
650.0028, 38.92264
650.4849, 39.20633
650.9670, 38.99246
651.4492, 38.59860
651.9313, 38.22156
652.4134, 37.92874
652.8955, 37.91620
653.3776, 38.43823
653.8597, 38.79431
654.3419, 38.21216
654.8240, 37.25555
655.3061, 36.81610
655.7882, 37.62628
656.2703, 38.44543
656.7524, 39.17773
657.2346, 39.73343
657.7167, 39.74799
658.1988, 38.92511
658.6809, 38.24533
659.1630, 38.05820
659.6451, 38.29056
660.1273, 38.51901
660.6094, 38.74066
661.0915, 39.02658
661.5736, 39.53909
662.0557, 40.11450
662.5378, 40.39700
663.0200, 40.36633
663.5021, 40.27728
663.9842, 40.18411
664.4663, 40.18497
664.9484, 40.40964
665.4305, 40.98935
665.9127, 41.47348
666.3948, 41.78735
666.8769, 41.93716
667.3590, 41.92029
667.8411, 41.58716
668.3232, 41.43298
668.8054, 41.59500
669.2875, 41.84653
669.7696, 41.73990
670.2517, 41.26587
670.7338, 40.82416
671.2159, 40.43814
671.6981, 40.27094
672.1802, 40.85870
672.6623, 41.97348
673.1444, 42.82138
673.6265, 42.85574
674.1086, 42.56738
674.5908, 42.20450
675.0729, 41.80548
675.5550, 41.51624
676.0371, 41.59589
676.5192, 41.60938
677.0013, 41.30017
677.4835, 40.61884
677.9656, 40.17459
678.4477, 40.02188
678.9298, 40.00333
679.4119, 40.08722
679.8940, 40.27396
680.3762, 40.10251
680.8583, 39.48093
681.3404, 38.95636
681.8225, 39.42371
682.3046, 40.34784
682.7867, 40.51376
683.2689, 39.45572
683.7510, 38.35031
684.2331, 38.20761
684.7152, 38.48022
685.1973, 38.47757
685.6794, 37.73575
686.1616, 37.04248
686.6437, 36.54044
687.1258, 36.17239
687.6079, 35.87027
688.0900, 35.69733
688.5721, 35.44632
689.0543, 35.10153
689.5364, 34.62469
690.0185, 33.74973
690.5006, 32.49878
690.9827, 31.48132
691.4648, 31.35330
691.9470, 31.45679
692.4291, 30.51196
692.9112, 28.73370
693.3933, 27.32339
693.8754, 27.14267
694.3575, 27.38358
694.8397, 27.66095
695.3218, 27.96790
695.8039, 27.91586
696.2860, 27.29395
696.7681, 26.46582
697.2502, 25.52155
697.7324, 24.36011
698.2145, 23.70175
698.6966, 23.68127
699.1787, 23.78986
699.6608, 23.54889
700.1429, 23.00449
700.6251, 22.28900
701.1072, 21.36105
701.5893, 20.58752
702.0714, 20.55350
702.5535, 20.83633
703.0356, 20.79922
703.5178, 20.07407
703.9999, 19.32703
704.4820, 18.70673
704.9641, 18.24921
705.4462, 18.01511
705.9283, 18.16931
706.4105, 18.28894
706.8926, 18.39917
707.3747, 18.40045
707.8568, 17.95694
708.3389, 17.02304
708.8210, 16.23914
709.3032, 15.80042
709.7853, 15.66895
710.2674, 15.97894
710.7495, 16.59686
711.2316, 16.95865
711.7137, 16.63730
712.1959, 16.02423
712.6780, 15.15891
713.1601, 14.16000
713.6422, 13.74478
714.1243, 15.12735
714.6064, 16.11920
715.0886, 15.57428
715.5707, 13.41696
716.0528, 12.41080
716.5349, 12.90118
717.0170, 13.69961
717.4991, 14.04205
717.9813, 13.93478
718.4634, 13.76340
718.9455, 13.57596
719.4276, 13.41058
719.9097, 13.28958
720.3918, 13.12524
720.8740, 12.77496
721.3561, 12.17239
721.8382, 11.78339
722.3203, 12.04950
722.8024, 12.47806
723.2845, 12.62790
723.7667, 12.16159
724.2488, 11.95346
724.7309, 12.13577
725.2130, 12.47415
725.6951, 12.58945
726.1772, 12.42654
726.6594, 12.63190
727.1415, 13.46066
727.6236, 14.22043
728.1057, 13.64197
728.5878, 12.21524
729.0699, 11.26401
729.5521, 11.44928
730.0342, 12.06454
730.5163, 12.94684
730.9984, 13.76328
731.4805, 14.00070
731.9626, 12.68887
732.4448, 11.76950
732.9269, 11.83725
733.4090, 12.55429
733.8911, 12.95221
734.3732, 12.86240
734.8553, 12.51077
735.3375, 11.88412
735.8196, 11.17099
736.3017, 10.91531
736.7838, 11.05753
737.2659, 11.23334
737.7480, 11.31534
738.2302, 11.28589
738.7123, 11.12210
739.1944, 10.83847
739.6765, 10.46042
740.1586, 9.630554
740.6407, 9.004059
741.1229, 9.034027
741.6050, 9.677063
742.0871, 10.03534
742.5692, 10.07037
743.0513, 9.982330
743.5334, 9.754120
744.0156, 9.372620
744.4977, 9.191742
744.9798, 9.254761
745.4619, 9.334717
745.9440, 9.096313
746.4261, 8.740784
746.9083, 8.581757
747.3904, 8.650635
747.8725, 8.735992
748.3546, 8.849091
748.8367, 8.907593
749.3188, 8.771667
749.8010, 8.304352
750.2831, 8.003387
750.7652, 7.998444
751.2473, 7.983795
751.7294, 7.616058
752.2115, 6.913208
752.6937, 6.684570
753.1758, 7.066254
753.6579, 7.365448
754.1400, 6.448029
754.6221, 5.070007
755.1042, 4.659790
755.5864, 5.805237
756.0685, 6.706207
756.5506, 6.106323
757.0327, 4.935211
757.5148, 4.147186
757.9969, 4.072876
758.4791, 4.044464
758.9612, 4.035828
759.4433, 4.095734
759.9254, 4.408325
760.4075, 5.003845
760.8896, 5.074280
761.3718, 4.399414
761.8539, 3.459686
762.3360, 2.759583
762.8181, 2.284790
763.3002, 2.032440
763.7823, 2.108551
764.2645, 2.197205
764.7466, 2.167175
765.2287, 2.031006
765.7108, 1.796387
766.1929, 1.339996
766.6750, 0.9849850
767.1572, 0.8339540
767.6393, 0.7396850
768.1214, 0.3002620
768.6035, 0.5315250
769.0856, 0.9265750
769.5677, 0.5444640
770.0499, 0.1098020
770.5320, 0.1965030
771.0141, 8.2764000E-02
771.4962, 0.2091980
771.9783, 0.3237000
772.4604, 0.7655030
772.9426, 0.7185670
773.4247, 0.2924190
773.9068, 0.2782590
774.3889, 1.393707
774.8710, 1.996246
775.3531, 1.658691
775.8353, 0.8009340
776.3174, 0.7545470
776.7995, 1.563324
777.2816, 2.133820
777.7637, 1.953644
778.2458, 1.424866
778.7280, 1.181366
779.2101, 1.159424
779.6922, 1.157379
780.1743, 1.041504
780.6564, 0.9562680
781.1385, 0.9358520
781.6207, 1.001862
782.1028, 1.255035
782.5849, 1.938171
783.0670, 2.433716
783.5491, 2.570953
784.0313, 2.405609
784.5134, 2.131805
784.9955, 1.750885
785.4776, 1.316345
785.9597, 0.6255190
786.4418, 5.9783999E-02
786.9240, 0.5208740
787.4061, 1.709564
787.8882, 2.516235
788.3703, 2.290680
788.8524, 1.613708
789.3345, 0.3258060
789.8167, 1.359711
790.2988, 1.827911
790.7809, 1.2787000E-02
791.2630, 1.042084
791.7451, 2.5940000E-03
792.2272, 2.551971
792.7094, 4.202301
793.1915, 4.953339
793.6736, 5.190277
794.1557, 4.995605
794.6378, 4.486023
795.1199, 3.654968
795.6021, 2.604492
796.0842, 1.719910
796.5663, 1.040863
797.0484, 0.6997070
797.5305, 0.9496150
798.0126, 1.692169
798.4948, 2.173309
798.9769, 2.432526
799.4590, 2.291992
799.9411, 1.455566
800.4232, 0.2163390
800.9053, 5.6793001E-02
801.3875, 0.5348510
801.8696, 0.9815060
802.3517, 0.3290100
802.8338, 0.5143130
803.3159, 0.6258240
803.7980, 8.6333998E-02
804.2802, 0.5142520
804.7623, 1.323608
805.2444, 1.787720
805.7265, 1.504883
806.2086, 0.6126100
806.6907, 0.4093020
807.1729, 1.031738
807.6550, 1.749969
808.1371, 2.317230
808.6192, 2.689240
809.1013, 2.675507
809.5834, 2.326172
810.0656, 1.922180
810.5477, 1.381958
811.0298, 1.063477
811.5119, 1.389191
811.9940, 2.258942
812.4761, 2.836548
812.9583, 2.773407
813.4404, 2.695587
813.9225, 2.801788
814.4046, 3.054993
814.8867, 3.190887
815.3688, 3.201660
815.8510, 3.271179
816.3331, 3.610901
816.8152, 3.996704
817.2973, 3.981873
817.7794, 3.656250
818.2615, 3.388977
818.7437, 3.291260
819.2258, 3.363739
819.7079, 3.726501
820.1900, 4.307739
820.6721, 4.607025
821.1542, 4.484314
821.6364, 4.394623
822.1185, 4.545044
822.6006, 4.809418
823.0827, 4.632751
823.5648, 4.093781
824.0469, 3.798279
824.5291, 4.324677
825.0112, 5.041931
825.4933, 5.425903
825.9754, 5.509766
826.4575, 5.394501
826.9396, 4.887512
827.4218, 4.461487
827.9039, 4.154022
828.3860, 4.013824
828.8681, 4.361359
829.3502, 5.326874
829.8323, 5.997131
830.3145, 5.930603
830.7966, 5.542877
831.2787, 5.717163
831.7608, 6.252869
832.2429, 6.512482
832.7250, 5.704437
833.2072, 5.133667
833.6893, 5.883911
834.1714, 7.358093
834.6535, 7.969147
835.1356, 7.017120
835.6177, 6.405090
836.0999, 6.570465
836.5820, 7.170990
837.0641, 7.474762
837.5462, 7.501831
838.0283, 7.485168
838.5104, 7.462494
838.9926, 7.480377
839.4747, 7.632629
839.9568, 7.839264
840.4389, 7.952942
840.9210, 7.930634
841.4031, 7.851074
841.8853, 7.610046
842.3674, 7.404816
842.8495, 7.590942
843.3316, 8.298737
843.8137, 8.737457
844.2958, 8.710205
844.7780, 8.456573
845.2601, 8.314392
845.7422, 8.274445
846.2243, 8.344818
846.7064, 8.620300
847.1885, 8.857086
847.6707, 8.670746
848.1528, 8.377686
848.6349, 8.392822
849.1170, 9.075073
849.5991, 9.529297
850.0812, 9.675995
850.5634, 9.613464
851.0455, 9.338776
851.5276, 8.929230
852.0097, 9.087250
852.4918, 9.987488
852.9739, 10.85849
853.4561, 10.90952
853.9382, 10.58374
854.4203, 10.36517
854.9024, 10.39352
855.3845, 10.35739
855.8666, 10.04645
856.3488, 9.771820
856.8309, 9.736755
857.3130, 9.943176
857.7951, 10.40637
858.2772, 11.14398
858.7593, 11.69226
859.2415, 11.50302
859.7236, 10.92450
860.2057, 10.51022
860.6878, 10.29269
861.1699, 10.08997
861.6520, 9.787506
862.1342, 9.540131
862.6163, 9.452881
863.0984, 9.513672
863.5805, 9.599091
864.0626, 9.731720
864.5447, 9.763794
865.0269, 9.593750
865.5090, 9.289307
865.9911, 9.119843
866.4732, 9.058197
866.9553, 8.922150
867.4374, 8.471497
867.9196, 8.011780
868.4017, 7.634064
868.8838, 7.391052
869.3659, 7.677032
869.8480, 8.968750
870.3301, 10.02463
870.8123, 10.54001
871.2944, 10.52979
871.7765, 9.833618
872.2586, 8.534302
872.7407, 7.459473
873.2228, 7.031082
873.7050, 6.946869
874.1871, 6.926178
874.6692, 7.006210
875.1513, 7.270935
875.6334, 8.153137
876.1155, 8.688416
876.5977, 8.555969
877.0798, 8.117233
877.5619, 8.082687
878.0440, 8.498505
878.5261, 8.615021
879.0082, 8.187866
879.4904, 7.676224
879.9725, 7.711929
880.4546, 8.066727
880.9367, 8.345001
881.4188, 8.412247
881.9009, 8.446747
882.3831, 8.657257
882.8652, 8.772278
883.3473, 8.481827
883.8294, 7.596252
884.3115, 7.036880
884.7936, 6.872986
885.2758, 6.897644
885.7579, 6.940308
886.2400, 7.009827
886.7221, 7.160034
887.2042, 7.405685
887.6863, 7.530807
888.1685, 7.251099
888.6506, 6.942200
889.1327, 6.833008
889.6148, 6.918228
890.0969, 7.335876
890.5790, 8.308929
891.0612, 9.035538
891.5433, 8.833893
892.0254, 8.028748
892.5075, 7.863922
892.9896, 8.236053
893.4717, 8.514404
893.9539, 7.925522
894.4360, 7.462326
894.9181, 7.933945
895.4002, 9.211304
895.8823, 10.32695
896.3644, 11.53596
896.8466, 12.03178
897.3287, 11.40601
897.8108, 10.05333
898.2929, 8.838654
898.7750, 7.813873
899.2571, 7.230057
899.7393, 7.396545
900.2214, 7.707291
900.7035, 7.761810
901.1856, 7.619385
901.6677, 7.323135
902.1498, 6.204437
902.6320, 5.912796
903.1141, 6.948090
903.5962, 8.337799
904.0783, 8.715271
904.5604, 8.142349
905.0425, 7.472244
905.5247, 6.798035
906.0068, 6.217346
906.4889, 5.803360
906.9710, 5.579300
907.4531, 5.604691
907.9352, 5.986771
908.4174, 6.369308
908.8995, 6.858841
909.3816, 7.080719
909.8637, 6.643631
910.3458, 5.546509
910.8279, 5.119659
911.3101, 5.374695
911.7922, 5.693008
912.2743, 5.668350
912.7564, 5.435852
913.2385, 5.017075
913.7206, 4.471756
914.2028, 4.173111
914.6849, 4.480331
915.1670, 4.770996
915.6491, 4.891373
916.1312, 4.854004
916.6133, 4.664429
917.0955, 4.321152
917.5776, 3.938187
918.0597, 3.447372
918.5418, 3.103394
919.0239, 3.388916
919.5060, 4.029053
919.9882, 4.487549
920.4703, 4.493637
920.9524, 4.421463
921.4345, 4.321991
921.9166, 4.181229
922.3987, 3.937149
922.8809, 3.568451
923.3630, 3.416306
923.8451, 3.551590
924.3272, 3.687103
924.8093, 3.456818
925.2914, 3.070282
925.7736, 2.789719
926.2557, 2.650558
926.7378, 2.647903
927.2199, 3.036041
927.7020, 3.319778
928.1841, 3.153915
928.6663, 2.543762
929.1484, 2.551651
929.6305, 3.217926
930.1126, 3.615219
930.5947, 2.841629
931.0768, 1.663177
931.5590, 0.9350740
932.0411, 0.6485600
932.5232, 0.7343440
933.0053, 1.686874
933.4874, 2.363861
933.9695, 2.395752
934.4517, 2.016632
934.9338, 1.792419
935.4159, 1.730652
935.8980, 1.593552
936.3801, 1.255463
936.8622, 1.001450
937.3444, 1.367142
937.8265, 1.978058
938.3086, 2.273834
938.7907, 1.964188
939.2728, 1.600906
939.7549, 1.166092
940.2371, 0.8197170
940.7192, 0.6978610
941.2013, 0.8049010
941.6834, 1.023636
942.1655, 1.358994
942.6476, 1.586273
943.1298, 1.303345
943.6119, 0.9471590
944.0940, 1.161926
944.5761, 1.943008
945.0582, 2.224457
945.5403, 1.191422
946.0225, 0.3155060
946.5046, 0.1112520
946.9867, 0.4068300
947.4688, 0.5390930
947.9509, 0.5092620
948.4330, 0.3297120
948.9152, 0.1541600
949.3973, 0.5676270
949.8794, 0.4742280
950.3615, 7.0862003E-02
950.8436, 0.2942200
951.3257, 0.5886990
951.8079, 0.7600400
952.2900, 0.8202360
952.7721, 0.7406160
953.2542, 0.3726350
953.7363, 0.2159880
954.2184, 0.4532170
954.7006, 0.2482150
955.1827, 2.8534001E-02
955.6648, 0.2683720
956.1469, 0.5588530
956.6290, 0.4179380
957.1111, 0.2973180
957.5933, 0.4296880
958.0754, 0.3389740
958.5575, 1.124603
959.0396, 1.511246
959.5217, 1.587265
960.0038, 1.662598
960.4860, 1.718155
960.9681, 1.654968
961.4502, 1.367737
961.9323, 1.000610
962.4144, 0.6666870
962.8965, 0.3091130
963.3787, 0.2534330
963.8608, 1.379059
964.3429, 1.693344
964.8250, 0.7942960
965.3071, 0.3863070
965.7892, 0.5913850
966.2714, 6.4102001E-02
966.7535, 0.7348180
967.2356, 1.800369
967.7177, 2.506409
968.1998, 2.106155
968.6819, 1.530899
969.1641, 1.492325
969.6462, 2.048523
970.1283, 2.373047
970.6104, 2.458679
971.0925, 2.371460
971.5746, 1.930954
972.0568, 1.464462
972.5389, 1.709656
973.0210, 2.463379
973.5031, 3.051514
973.9852, 3.024597
974.4673, 2.992859
974.9495, 3.205444
975.4316, 3.481476
975.9137, 3.481766
976.3958, 3.192032
976.8779, 2.921631
977.3600, 2.716370
977.8422, 2.584564
978.3243, 2.586304
978.8064, 2.639694
979.2885, 2.614655
979.7706, 2.446350
980.2527, 2.433319
980.7349, 2.646835
981.2170, 2.991043
981.6991, 3.513519
982.1812, 4.145020
982.6633, 4.333511
983.1454, 4.092880
983.6276, 3.617432
984.1097, 2.563400
984.5918, 1.734497
985.0739, 1.944153
985.5560, 2.853256
986.0381, 3.570648
986.5203, 4.054779
987.0024, 4.240585
987.4845, 4.032379
987.9666, 3.702026
988.4487, 3.681320
988.9308, 3.861740
989.4130, 3.933273
989.8951, 3.845688
990.3772, 3.681076
990.8593, 3.457870
991.3414, 3.203934
991.8235, 2.878616
992.3057, 2.461838
992.7878, 2.443832
993.2699, 2.901093
993.7520, 3.278290
994.2341, 3.179596
994.7162, 2.882538
995.1984, 2.844711
995.6805, 3.009842
996.1626, 3.226212
996.6447, 3.675766
997.1268, 3.844009
997.6089, 3.489868
998.0911, 2.922089
998.5732, 2.476669
999.0553, 2.154861
999.5374, 2.452667
1000.020, 3.514557
1000.502, 4.399338
1000.984, 3.858276
1001.466, 2.951065
1001.948, 2.795975
1002.430, 3.601349
1002.912, 4.130066
1003.394, 4.183060
1003.876, 4.153763
1004.359, 4.221497
1004.841, 4.333542
1005.323, 4.241623
1005.805, 4.006027
1006.287, 3.885742
1006.769, 4.223755
1007.251, 4.362473
1007.733, 3.729385
1008.216, 2.875519
1008.698, 2.552155
1009.180, 2.915421
1009.662, 3.165314
1010.144, 3.238708
1010.626, 3.295135
1011.108, 3.460922
1011.590, 3.701111
1012.072, 4.048035
1012.555, 4.518967
1013.037, 4.903854
1013.519, 5.064819
1014.001, 5.128052
1014.483, 5.165253
1014.965, 5.187500
1015.447, 5.043472
1015.929, 4.734528
1016.411, 4.627747
1016.894, 5.000015
1017.376, 5.363083
1017.858, 5.228729
1018.340, 4.843246
1018.822, 4.499130
1019.304, 4.172165
1019.786, 4.150116
1020.268, 4.542496
1020.751, 4.950165
1021.233, 5.099182
1021.715, 5.005341
1022.197, 4.604340
1022.679, 3.970352
1023.161, 3.531937
1023.643, 3.731598
1024.125, 4.015366
1024.607, 4.066467
1025.090, 4.026184
1025.572, 4.268906
1026.054, 4.823624
1026.536, 5.089096
1027.018, 4.899811
1027.500, 4.666016
1027.982, 4.801483
1028.464, 5.145462
1028.947, 5.595245
1029.429, 6.221512
1029.911, 6.388016
1030.393, 5.842621
1030.875, 5.286514
1031.357, 5.051636
1031.839, 5.086700
1032.321, 5.250580
1032.803, 5.536514
1033.286, 5.913651
1033.768, 6.607224
1034.250, 7.111847
1034.732, 7.089905
1035.214, 6.794907
1035.696, 6.609222
1036.178, 6.568680
1036.660, 6.320023
1037.143, 5.763535
1037.625, 5.458099
1038.107, 6.247528
1038.589, 7.378601
1039.071, 7.917068
1039.553, 7.819077
1040.035, 7.568436
1040.517, 7.258179
1041.000, 6.777771
1041.482, 5.916245
1041.964, 5.057495
1042.446, 5.443039
1042.928, 6.729813
1043.410, 7.405243
1043.892, 6.776550
1044.374, 6.218506
1044.856, 6.970779
1045.339, 7.884552
1045.821, 7.845901
1046.303, 6.665848
1046.785, 5.871994
1047.267, 5.473724
1047.749, 5.389130
1048.231, 5.912979
1048.713, 6.481873
1049.195, 6.187485
1049.677, 5.325531
1050.160, 4.747406
1050.642, 4.909332
1051.124, 5.102600
1051.606, 5.282150
1052.088, 5.415100
1052.570, 5.457703
1053.052, 5.388535
1053.534, 5.345901
1054.017, 5.344421
1054.499, 5.314087
1054.981, 5.209274
1055.463, 5.061951
1055.945, 4.851273
1056.427, 4.608078
1056.909, 4.567551
1057.391, 4.763733
1057.874, 4.786575
1058.356, 4.462479
1058.838, 3.985443
1059.320, 3.414780
1059.802, 2.911606
1060.284, 2.680084
1060.766, 2.788757
1061.248, 3.241791
1061.730, 4.399918
1062.213, 5.177582
1062.695, 4.339890
1063.177, 2.527206
1063.659, 2.248291
1064.141, 3.206192
1064.623, 3.993683
1065.105, 3.619980
1065.587, 3.254440
1066.070, 3.474869
1066.552, 3.906433
1067.034, 3.990936
1067.516, 3.717697
1067.998, 3.351532
1068.480, 2.900055
1068.962, 2.614227
1069.444, 3.024841
1069.927, 3.485779
1070.409, 3.306625
1070.891, 2.463440
1071.373, 2.137375
1071.855, 2.605026
1072.337, 2.894241
1072.819, 2.627380
1073.301, 2.160858
1073.783, 2.147690
1074.266, 2.404800
1074.748, 2.553101
1075.230, 2.394424
1075.712, 2.462189
1076.194, 3.329056
1076.676, 3.970901
1077.158, 3.567413
1077.640, 2.283005
1078.122, 1.992584
1078.604, 2.552292
1079.087, 2.906494
1079.569, 2.183670
1080.051, 1.476715
1080.533, 1.594727
1081.015, 2.096252
1081.497, 2.206146
1081.979, 1.766022
1082.461, 1.721481
1082.944, 2.214874
1083.426, 2.729416
1083.908, 2.767288
1084.390, 2.591888
1084.872, 2.499268
1085.354, 2.503784
1085.836, 2.521194
1086.318, 2.505417
1086.801, 2.477310
1087.283, 2.408936
1087.765, 2.380615
1088.247, 2.666809
1088.729, 3.103058
1089.211, 3.181046
1089.693, 2.702652
1090.175, 2.367355
1090.657, 2.685989
1091.140, 3.017746
1091.622, 3.019012
1092.104, 2.722488
1092.586, 2.293411
1093.068, 1.773621
1093.550, 1.567307
1094.032, 2.007919
1094.514, 2.453445
1094.997, 2.386795
1095.479, 2.115494
1095.961, 2.076202
1096.443, 2.416077
1096.925, 2.494019
1097.407, 2.262787
1097.889, 2.047607
1098.371, 2.191055
1098.854, 2.436020
1099.336, 2.419113
1099.818, 2.207336
1100.300, 2.091675
1100.782, 2.246262
1101.264, 2.288651
1101.746, 2.125641
1102.228, 1.931305
1102.710, 2.010330
1103.193, 2.229233
1103.675, 2.186340
1104.157, 1.839401
1104.639, 1.670013
1105.121, 2.420654
1105.603, 2.720840
1106.085, 1.791321
1106.567, 0.1969450
1107.049, 0.2585450
1107.531, 0.2960820
1108.014, 0.9278110
1108.496, 1.442459
1108.978, 1.798645
1109.460, 1.574921
1109.942, 0.9075470
1110.424, 0.3581540
1110.906, 1.218948
1111.388, 1.692154
1111.871, 0.8970640
1112.353, 1.525330
1112.835, 1.451157
1113.317, 1.259476
1113.799, 1.825256
1114.281, 0.7752840
1114.763, 1.170197
1115.245, 0.8270570
1115.728, 0.6703340
1116.210, 0.1902920
1116.692, 1.877258
1117.174, 1.924072
1117.656, 1.750015
1118.138, 1.471344
1118.620, 1.166290
1119.102, 1.138031
1119.584, 1.991013
1120.067, 2.387222
1120.549, 1.956299
1121.031, 1.244537
1121.513, 0.9015960
1121.995, 0.8639070
1122.477, 1.009293
1122.959, 1.315308
1123.441, 1.436630
1123.924, 0.8946840
1124.406, 0.4917600
1124.888, 0.7269130
1125.370, 0.2127840
1125.852, 0.9516300
1126.334, 6.9641002E-02
1126.816, 0.5945130
1127.298, 0.2578430
1127.781, 0.2269440
1128.263, 0.5183870
1128.745, 0.5920870
1129.227, 0.3360750
1129.709, 0.2167210
1130.191, 0.5836330
1130.673, 0.7671050
1131.155, 0.7343440
1131.637, 0.3863220
1132.120, 2.4216000E-02
1132.602, 0.2146610
1133.084, 0.3072810
1133.566, 0.5049900
1134.048, 1.008667
1134.530, 0.9071500
1135.012, 8.0110002E-03
1135.494, 0.7142790
1135.976, 0.8569490
1136.458, 7.7408001E-02
1136.941, 0.3935090
1137.423, 0.5722050
1137.905, 0.4255220
1138.387, 9.2468001E-02
1138.869, 7.4799999E-04
1139.351, 0.1170810
1139.833, 0.6113740
1140.315, 0.2203060
1140.798, 0.4948430
1141.280, 0.5940860
1141.762, 0.9772490
1142.244, 0.7495270
1142.726, 0.7121890
1143.208, 0.2671510
1143.690, 0.3010560
1144.172, 1.316940
1144.655, 1.364502
1145.137, 0.6871640
1145.619, 0.1894380
1146.101, 1.3519000E-02
1146.583, 9.0728998E-02
1147.065, 0.9315340
1147.547, 1.621796
1148.029, 1.732101
1148.511, 1.428955
1148.994, 1.183136
1149.476, 0.9761200
1149.958, 0.5739140
1150.440, 0.1418910
1150.922, 0.6367950
1151.404, 0.4255520
1151.886, 5.3847998E-02
1152.368, 0.5699770
1152.851, 1.084213
1153.333, 1.169617
1153.815, 0.8199460
1154.297, 0.6690060
1154.779, 1.031448
1155.261, 1.494553
1155.743, 1.854752
1156.225, 1.999542
1156.708, 1.673019
1157.190, 0.7633360
1157.672, 0.3452000
1158.154, 0.4620510
1158.636, 0.7188420
1159.118, 0.9858400
1159.600, 1.182220
1160.082, 1.238449
1160.564, 1.161163
1161.047, 0.9301450
1161.529, 0.3293300
1162.011, 0.1628420
1162.493, 0.5447240
1162.975, 0.9014740
1163.457, 0.6367650
1163.939, 0.1897280
1164.421, 0.2772670
1164.903, 0.7029720
1165.385, 0.8712620
1165.868, 0.4106900
1166.350, 0.1112520
1166.832, 4.8781998E-02
1167.314, 0.1452030
1167.796, 0.2948910
1168.278, 0.4746550
1168.760, 0.6642910
1169.242, 0.8837890
1169.725, 1.084503
1170.207, 1.500275
1170.689, 1.454163
1171.171, 0.6279910
1171.653, 0.2837520
1172.135, 0.1365970
1172.617, 0.6466670
1173.099, 1.161835
1173.582, 1.302628
1174.064, 1.239624
1174.546, 0.8081670
1175.028, 0.4887540
1175.510, 0.4617160
1175.992, 0.5447390
1176.474, 0.1859890
1176.956, 0.3487850
1177.438, 0.1333620
1177.921, 1.117767
1178.403, 2.078598
1178.885, 1.924637
1179.367, 1.698395
1179.849, 1.895935
1180.331, 1.490402
1180.813, 1.890656
1181.295, 0.9846950
1181.778, 0.3531340
1182.260, 0.2549900
1182.742, 0.3209380
1183.224, 0.5334470
1183.706, 0.6985020
1184.188, 0.6629940
1184.670, 0.4753570
1185.152, 0.4942020
1185.635, 0.7210080
1186.117, 1.269577
1186.599, 2.573792
1187.081, 3.386017
1187.563, 2.652390
1188.045, 1.500839
1188.527, 0.7078250
1189.009, 0.2879940
1189.491, 0.2862240
1189.974, 0.6639400
1190.456, 1.186508
1190.938, 2.098557
1191.420, 2.647873
1191.902, 2.048386
1192.384, 1.203903
1192.866, 1.096252
1193.348, 1.717560
1193.830, 1.702332
1194.313, 1.150345
1194.795, 0.7314000
1195.277, 0.9517820
1195.759, 1.293060
1196.241, 1.627045
1196.723, 1.882309
1197.205, 2.004211
1197.687, 2.005203
1198.169, 1.802780
1198.652, 1.425003
1199.134, 1.055252
1199.616, 0.8123470
1200.098, 0.6430660
1200.580, 0.4965820
1201.062, 0.4049680
1201.544, 0.5187530
1202.026, 0.8337250
1202.509, 0.9781490
1202.991, 0.9180600
1203.473, 0.8453980
1203.955, 0.9126890
1204.437, 0.9980620
1204.919, 1.100037
1205.401, 1.123322
1205.883, 0.7581790
1206.365, 1.7258000E-02
1206.848, 0.3029330
1207.330, 4.3365002E-02
1207.812, 0.4334720
1208.294, 0.3129580
1208.776, 0.1320190
1209.258, 0.2972560
1209.740, 0.7239230
1210.222, 1.113617
1210.705, 1.434433
1211.187, 1.737381
1211.669, 2.036484
1212.151, 2.344849
1212.633, 2.896454
1213.115, 3.267197
1213.597, 2.970917
1214.079, 2.234619
1214.562, 1.862839
1215.044, 1.845291
1215.526, 1.718445
1216.008, 1.339432
1216.490, 1.042297
1216.972, 1.236526
1217.454, 1.479858
1217.936, 1.359512
1218.418, 0.9787750
1218.901, 0.8852840
1219.383, 1.067810
1219.865, 1.436172
1220.347, 2.060074
1220.829, 2.497421
1221.311, 2.094101
1221.793, 1.662720
1222.275, 2.001511
1222.757, 2.917938
1223.240, 2.852921
1223.722, 1.876282
1224.204, 0.8171840
1224.686, 0.1940770
1225.168, 0.7493740
1225.650, 0.2622380
1226.132, 0.5222780
1226.614, 1.083344
1227.096, 1.439499
1227.579, 1.412964
1228.061, 1.051270
1228.543, 0.8779140
1229.025, 1.187119
1229.507, 1.449265
1229.989, 1.340714
1230.471, 1.200912
1230.953, 1.273239
1231.436, 1.276733
1231.918, 1.299454
1232.400, 1.490112
1232.882, 1.483719
1233.364, 1.702469
1233.846, 1.953339
1234.328, 2.126328
1234.810, 2.275696
1235.292, 2.580536
1235.775, 2.997009
1236.257, 2.863281
1236.739, 2.292480
1237.221, 1.893295
1237.703, 2.081680
1238.185, 2.242950
1238.667, 2.166168
1239.149, 1.952225
1239.632, 1.538773
1240.114, 1.033234
1240.596, 1.120361
1241.078, 1.684402
1241.560, 2.224472
1242.042, 2.568375
1242.524, 2.766190
1243.006, 2.899536
1243.489, 2.814819
1243.971, 2.126175
1244.453, 1.120193
1244.935, 1.293701
1245.417, 2.281860
1245.899, 2.800827
1246.381, 1.677536
1246.863, 1.116409
1247.345, 1.617538
1247.828, 2.335358
1248.310, 2.566650
1248.792, 2.448990
1249.274, 2.309326
1249.756, 2.171219
1250.238, 2.094620
1250.720, 2.049210
1251.202, 2.185883
1251.684, 2.624557
1252.167, 2.977051
1252.649, 2.734146
1253.131, 2.226639
1253.613, 2.220795
1254.095, 1.907227
1254.577, 1.506271
1255.059, 1.537430
1255.541, 1.070160
1256.023, 1.182907
1256.506, 1.556747
1256.988, 2.034653
1257.470, 2.505478
1257.952, 2.808899
1258.434, 2.975266
1258.916, 3.115631
1259.398, 3.398636
1259.880, 3.128769
1260.363, 2.152893
1260.845, 1.293594
1261.327, 1.426605
1261.809, 1.892136
1262.291, 1.955673
1262.773, 1.812653
1263.255, 2.077072
1263.737, 2.826370
1264.219, 2.967911
1264.702, 2.348557
1265.184, 1.688766
1265.666, 1.798096
1266.148, 1.918564
1266.630, 1.230743
1267.112, 0.1897280
1267.594, 0.2370450
1268.076, 1.5640000E-02
1268.559, 0.2749940
1269.041, 0.5985870
1269.523, 1.144974
1270.005, 2.655975
1270.487, 3.776505
1270.969, 3.292557
1271.451, 2.154282
1271.933, 1.633194
1272.416, 1.672302
1272.898, 1.640305
1273.380, 1.499237
1273.862, 1.382034
1274.344, 1.293488
1274.826, 1.332367
1275.308, 1.568848
1275.790, 1.916656
1276.272, 2.348618
1276.755, 2.805496
1277.237, 3.119766
1277.719, 3.258133
1278.201, 3.099609
1278.683, 2.053986
1279.165, 1.540161
1279.647, 2.081528
1280.129, 2.721710
1280.611, 2.074936
1281.094, 0.8778530
1281.576, 0.8829350
1282.058, 1.893280
1282.540, 2.498489
1283.022, 2.230804
1283.504, 1.632645
1283.986, 0.5983120
1284.468, 0.2327880
1284.950, 0.1554870
1285.433, 0.4268950
1285.915, 0.8995970
1286.397, 1.179016
1286.879, 1.198837
1287.361, 0.8129580
1287.843, 0.8043820
1288.325, 1.273788
1288.807, 1.866745
1289.290, 2.498306
1289.772, 2.919418
1290.254, 2.820694
1290.736, 2.351196
1291.218, 1.837158
1291.700, 1.240189
1292.182, 1.197296
1292.664, 1.746521
1293.146, 2.166718
1293.629, 1.335083
1294.111, 0.9013370
1294.593, 1.619278
1295.075, 2.560974
1295.557, 2.438797
1296.039, 1.423172
1296.521, 0.9279630
1297.003, 0.9806670
1297.486, 1.156036
1297.968, 1.596252
1298.450, 1.671707
1298.932, 1.078384
1299.414, 0.3343050
1299.896, 1.6020000E-03
1300.378, 1.1963000E-02
1300.860, 0.1095890
1301.343, 8.4549002E-02
1301.825, 0.0000000E+00
##END=



