##NAMES=Ellenbergerite
##RRUFFID=R070395
##IDEAL CHEMISTRY=Mg_6_(Mg,Ti^4+^,Zr^4+^,[box])_2_(Al,Mg)_6_Si_8_O_28_(OH)_10_
##LOCALITY=Case Parigi, Martiniana Po, Varaita Valley, Dora Maira Massif, Cuneo Province, Piedmont, Italy
##OWNER=RRUFF
##SOURCE=Michael Scott
##DESCRIPTION=Purple grain associated with a white platy chlorite mineral
##STATUS=The identification of this mineral has been confirmed by single-crystal X-ray diffraction.
##URL=rruff.info/R070395
180.8019, 0.0000000E+00
181.2840, 2.486603
181.7661, 0.8635860
182.2482, 2.223785
182.7303, 1.872253
183.2124, 0.6399540
183.6946, 6.822327
184.1767, 24.74289
184.6588, 62.46072
185.1409, 95.30499
185.6230, 115.4498
186.1051, 128.0628
186.5873, 138.3338
187.0694, 147.8640
187.5515, 158.2880
188.0336, 175.8856
188.5157, 204.8542
188.9978, 233.0141
189.4800, 252.3895
189.9621, 271.4268
190.4442, 302.0993
190.9263, 350.2890
191.4084, 406.0201
191.8905, 444.4207
192.3727, 456.3613
192.8548, 466.1384
193.3369, 482.1453
193.8190, 496.7936
194.3011, 499.4359
194.7832, 485.4593
195.2654, 466.1999
195.7475, 466.8624
196.2296, 495.5868
196.7117, 531.1436
197.1938, 589.5257
197.6759, 642.5927
198.1581, 661.5479
198.6402, 637.5791
199.1223, 590.5937
199.6044, 553.3661
200.0865, 511.6664
200.5686, 512.1297
201.0508, 591.7973
201.5329, 686.6640
202.0150, 748.7476
202.4971, 764.7653
202.9792, 750.9983
203.4613, 730.1093
203.9435, 692.6378
204.4256, 670.1526
204.9077, 675.4749
205.3898, 686.1093
205.8719, 684.4710
206.3540, 668.1890
206.8362, 649.7468
207.3183, 650.2881
207.8004, 687.0541
208.2825, 697.2776
208.7646, 659.9825
209.2467, 615.6398
209.7289, 589.3681
210.2110, 582.7759
210.6931, 578.6855
211.1752, 554.0740
211.6573, 498.1469
212.1395, 462.1812
212.6216, 470.7939
213.1037, 477.1831
213.5858, 448.7477
214.0679, 391.9230
214.5500, 341.0505
215.0322, 331.3187
215.5143, 368.4412
215.9964, 410.8778
216.4785, 487.1078
216.9606, 539.5282
217.4427, 526.2003
217.9249, 472.1421
218.4070, 436.2807
218.8891, 470.0034
219.3712, 577.9766
219.8533, 629.2638
220.3354, 559.2387
220.8176, 492.3338
221.2997, 462.2153
221.7818, 461.0026
222.2639, 466.5793
222.7460, 463.1133
223.2281, 452.4224
223.7103, 442.6649
224.1924, 449.0553
224.6745, 465.2285
225.1566, 512.0488
225.6387, 563.3780
226.1208, 577.0901
226.6030, 524.8513
227.0851, 425.8153
227.5672, 361.7630
228.0493, 369.5807
228.5314, 370.6031
229.0135, 335.0179
229.4957, 291.0285
229.9778, 255.2595
230.4599, 245.2852
230.9420, 256.4883
231.4241, 280.8234
231.9062, 336.3589
232.3884, 372.5570
232.8705, 377.3181
233.3526, 366.3157
233.8347, 349.1606
234.3168, 329.6928
234.7989, 313.9403
235.2811, 313.0683
235.7632, 332.4206
236.2453, 354.7258
236.7274, 381.2255
237.2095, 408.1641
237.6916, 434.8304
238.1738, 460.3295
238.6559, 480.6731
239.1380, 492.7666
239.6201, 493.8030
240.1022, 496.9425
240.5843, 517.5792
241.0665, 528.1970
241.5486, 505.5397
242.0307, 454.9053
242.5128, 406.6678
242.9949, 396.2339
243.4770, 428.7737
243.9592, 436.7270
244.4413, 403.8354
244.9234, 359.4312
245.4055, 306.3074
245.8876, 249.6565
246.3697, 199.8294
246.8519, 166.4719
247.3340, 147.1349
247.8161, 119.9215
248.2982, 72.41937
248.7803, 34.03174
249.2624, 19.54657
249.7446, 19.11038
250.2267, 16.39713
250.7088, 1.026627
251.1909, 17.74638
251.6730, 17.20535
252.1551, 19.84363
252.6373, 44.54698
253.1194, 35.64397
253.6015, 10.25195
254.0836, 14.81505
254.5657, 35.67390
255.0478, 52.00862
255.5300, 60.60927
256.0121, 61.94989
256.4942, 50.93979
256.9763, 6.432449
257.4584, 37.70447
257.9406, 52.35474
258.4227, 30.67198
258.9048, 7.709518
259.3869, 31.23172
259.8690, 102.0735
260.3511, 144.2042
260.8333, 114.7884
261.3154, 73.65120
261.7975, 68.47729
262.2796, 99.87347
262.7617, 135.1038
263.2438, 147.6501
263.7260, 142.4972
264.2081, 151.4220
264.6902, 191.1062
265.1723, 223.8233
265.6544, 217.0304
266.1365, 180.5047
266.6187, 145.8648
267.1008, 125.6010
267.5829, 117.6782
268.0650, 120.7376
268.5471, 138.3610
269.0292, 155.0349
269.5114, 155.8765
269.9935, 148.7120
270.4756, 147.4435
270.9577, 165.4852
271.4398, 182.8116
271.9219, 172.2510
272.4041, 132.8934
272.8862, 95.95351
273.3683, 81.12993
273.8504, 76.38989
274.3325, 56.55565
274.8146, 8.868225
275.2968, 32.80255
275.7789, 39.44964
276.2610, 19.10105
276.7431, 6.951981
277.2252, 21.37471
277.7073, 40.98852
278.1895, 25.48811
278.6716, 32.99141
279.1537, 81.85008
279.6358, 95.88074
280.1179, 89.35083
280.6000, 81.71922
281.0822, 75.18723
281.5643, 81.10223
282.0464, 121.4077
282.5285, 200.1131
283.0106, 258.5428
283.4927, 270.4799
283.9749, 271.7544
284.4570, 300.8094
284.9391, 358.3483
285.4212, 409.1071
285.9033, 419.5541
286.3854, 390.8687
286.8676, 391.7635
287.3497, 437.9553
287.8318, 495.4340
288.3139, 562.8618
288.7960, 629.8478
289.2781, 667.6831
289.7603, 656.6667
290.2424, 611.0698
290.7245, 591.3397
291.2066, 614.6072
291.6887, 640.4385
292.1708, 671.4374
292.6530, 698.7522
293.1351, 704.6523
293.6172, 683.6476
294.0993, 658.4019
294.5814, 671.9036
295.0635, 768.0883
295.5457, 818.6533
296.0278, 805.0413
296.5099, 762.9155
296.9920, 712.2162
297.4741, 657.7686
297.9562, 597.7896
298.4384, 525.8522
298.9205, 434.9988
299.4026, 381.6880
299.8847, 412.6930
300.3668, 433.4411
300.8489, 398.1588
301.3310, 326.9862
301.8131, 269.0208
302.2953, 259.8542
302.7774, 286.3438
303.2595, 279.0537
303.7416, 205.9468
304.2237, 145.4876
304.7058, 120.3265
305.1880, 111.9789
305.6701, 105.1558
306.1522, 87.41541
306.6343, 62.84703
307.1164, 37.56674
307.5985, 14.13702
308.0807, 14.97178
308.5628, 53.12143
309.0449, 3.972401
309.5270, 18.45876
310.0091, 17.36906
310.4912, 11.62637
310.9734, 26.67390
311.4555, 59.25696
311.9376, 69.40704
312.4197, 37.09187
312.9018, 6.754993
313.3839, 13.80632
313.8661, 44.79785
314.3482, 63.04655
314.8303, 38.32688
315.3124, 3.899414
315.7945, 8.071228
316.2766, 34.45823
316.7588, 63.81139
317.2409, 37.39480
317.7230, 20.10106
318.2051, 25.67980
318.6872, 9.266895
319.1693, 35.77787
319.6515, 53.07314
320.1336, 64.08537
320.6157, 81.40583
321.0978, 109.3600
321.5799, 146.3521
322.0620, 193.3353
322.5442, 252.2218
323.0263, 306.1560
323.5084, 350.2662
323.9905, 388.2595
324.4726, 429.8602
324.9547, 474.9436
325.4369, 511.6732
325.9190, 524.7987
326.4011, 511.1258
326.8832, 520.1505
327.3653, 569.0567
327.8474, 623.9280
328.3296, 667.5849
328.8117, 701.4046
329.2938, 732.9492
329.7759, 767.0900
330.2580, 802.2184
330.7401, 831.5024
331.2223, 855.8102
331.7044, 873.5519
332.1865, 884.2747
332.6686, 888.3924
333.1507, 882.6961
333.6328, 869.2485
334.1150, 853.6414
334.5971, 840.6090
335.0792, 828.2305
335.5613, 817.8906
336.0434, 815.7723
336.5255, 815.1871
337.0077, 812.8945
337.4898, 806.9453
337.9719, 792.4993
338.4540, 763.0002
338.9361, 721.2563
339.4182, 692.3401
339.9004, 680.0328
340.3825, 676.5765
340.8646, 685.1353
341.3467, 698.0198
341.8288, 709.0071
342.3109, 717.9711
342.7931, 714.0045
343.2752, 673.1331
343.7573, 588.3453
344.2394, 515.1884
344.7215, 461.0055
345.2036, 429.3326
345.6858, 432.0599
346.1679, 468.1329
346.6500, 497.3561
347.1321, 490.1087
347.6142, 456.8144
348.0963, 422.1742
348.5785, 384.1806
349.0606, 358.5501
349.5427, 367.3026
350.0248, 399.6878
350.5069, 424.3952
350.9890, 438.7864
351.4712, 441.3611
351.9533, 422.7463
352.4354, 387.8485
352.9175, 362.5190
353.3996, 360.1271
353.8817, 373.4033
354.3639, 387.4209
354.8460, 419.4801
355.3281, 418.4220
355.8102, 333.7037
356.2923, 227.4348
356.7744, 184.4287
357.2566, 219.3922
357.7387, 270.7255
358.2208, 267.0748
358.7029, 193.5156
359.1850, 147.4446
359.6671, 133.6723
360.1493, 138.0211
360.6314, 179.8898
361.1135, 234.0054
361.5956, 244.6992
362.0777, 174.7094
362.5598, 52.35295
363.0420, 15.22767
363.5241, 3.642523
364.0062, 17.73368
364.4883, 9.919042
364.9704, 6.912600
365.4525, 4.492989
365.9347, 12.93470
366.4168, 19.78773
366.8989, 9.691296
367.3810, 21.77508
367.8631, 1.063078
368.3452, 22.71887
368.8274, 35.00921
369.3095, 24.78847
369.7916, 0.1173110
370.2737, 19.76455
370.7558, 22.81744
371.2379, 23.76972
371.7201, 20.61715
372.2022, 4.396620
372.6843, 9.076469
373.1664, 10.00151
373.6485, 5.976555
374.1306, 10.77833
374.6128, 27.41377
375.0949, 40.93123
375.5770, 38.72044
376.0591, 27.58961
376.5412, 15.95932
377.0233, 2.484665
377.5055, 1.416748
377.9876, 23.41156
378.4697, 81.11872
378.9518, 108.6988
379.4339, 87.53468
379.9160, 52.09325
380.3982, 11.40569
380.8803, 27.43656
381.3624, 17.65811
381.8445, 25.58387
382.3266, 11.46011
382.8087, 13.32219
383.2909, 36.26840
383.7730, 52.28506
384.2551, 60.74333
384.7372, 62.72523
385.2193, 56.76404
385.7014, 43.96717
386.1836, 29.31902
386.6657, 15.51104
387.1478, 1.822384
387.6299, 5.599762
388.1120, 46.10542
388.5941, 82.25801
389.0763, 92.78020
389.5584, 92.17785
390.0405, 107.9588
390.5226, 157.8721
391.0047, 211.2889
391.4868, 205.4438
391.9690, 130.1829
392.4511, 95.52290
392.9332, 160.3562
393.4153, 251.0102
393.8974, 294.6883
394.3795, 290.9529
394.8617, 286.1735
395.3438, 300.7055
395.8259, 329.4256
396.3080, 368.7074
396.7901, 419.1519
397.2722, 462.7950
397.7544, 482.3840
398.2365, 484.3081
398.7186, 503.4774
399.2007, 577.0656
399.6828, 626.1570
400.1649, 587.7805
400.6471, 512.3134
401.1292, 486.9101
401.6113, 540.3437
402.0934, 634.4211
402.5755, 715.7479
403.0576, 784.6246
403.5398, 836.4928
404.0219, 862.2181
404.5040, 882.2842
404.9861, 912.1136
405.4682, 945.4091
405.9503, 960.8719
406.4325, 941.0025
406.9146, 902.6637
407.3967, 910.5430
407.8788, 994.5634
408.3609, 1063.476
408.8430, 1084.521
409.3252, 1095.041
409.8073, 1126.354
410.2894, 1182.531
410.7715, 1241.448
411.2536, 1284.453
411.7357, 1316.868
412.2179, 1346.536
412.7000, 1371.511
413.1821, 1395.934
413.6642, 1419.088
414.1463, 1446.725
414.6284, 1482.413
415.1106, 1529.443
415.5927, 1577.789
416.0748, 1627.477
416.5569, 1677.397
417.0390, 1719.018
417.5211, 1747.256
418.0033, 1770.754
418.4854, 1805.556
418.9675, 1858.724
419.4496, 1891.853
419.9317, 1882.805
420.4138, 1868.177
420.8960, 1865.022
421.3781, 1879.502
421.8602, 1905.909
422.3423, 1948.559
422.8244, 1996.836
423.3065, 2015.118
423.7887, 1984.739
424.2708, 1949.707
424.7529, 1920.566
425.2350, 1890.330
425.7171, 1847.849
426.1992, 1793.898
426.6814, 1751.395
427.1635, 1756.651
427.6456, 1801.168
428.1277, 1799.101
428.6098, 1727.002
429.0919, 1660.665
429.5741, 1663.861
430.0562, 1692.667
430.5383, 1673.729
431.0204, 1570.091
431.5025, 1456.384
431.9846, 1399.156
432.4668, 1384.551
432.9489, 1361.116
433.4310, 1314.572
433.9131, 1260.118
434.3952, 1216.403
434.8773, 1185.325
435.3595, 1145.799
435.8416, 1071.581
436.3237, 1012.177
436.8058, 1014.093
437.2879, 1056.165
437.7701, 1083.009
438.2522, 1066.092
438.7343, 1015.204
439.2164, 961.1991
439.6985, 890.0699
440.1806, 844.8297
440.6628, 829.7720
441.1449, 831.6569
441.6270, 858.5557
442.1091, 898.4550
442.5912, 914.0870
443.0733, 864.9302
443.5555, 774.5317
444.0376, 745.1359
444.5197, 808.8147
445.0018, 842.8333
445.4839, 753.7346
445.9660, 636.2122
446.4482, 589.1039
446.9303, 632.5397
447.4124, 683.8862
447.8945, 693.9602
448.3766, 675.9217
448.8587, 656.5851
449.3409, 639.4954
449.8230, 618.1293
450.3051, 584.9689
450.7872, 541.7353
451.2693, 506.8383
451.7514, 472.1023
452.2336, 454.3123
452.7157, 484.5097
453.1978, 525.8937
453.6799, 518.7648
454.1620, 448.7661
454.6441, 362.6628
455.1263, 322.6565
455.6084, 339.0087
456.0905, 343.7155
456.5726, 326.6872
457.0547, 307.9355
457.5368, 290.6618
458.0190, 276.3014
458.5011, 264.3877
458.9832, 253.3288
459.4653, 251.4842
459.9474, 286.8873
460.4295, 360.7331
460.9117, 379.3753
461.3938, 294.0717
461.8759, 190.2131
462.3580, 144.2877
462.8401, 147.1861
463.3222, 154.1837
463.8044, 153.1791
464.2865, 151.0962
464.7686, 156.5480
465.2507, 166.9802
465.7328, 172.6367
466.2149, 169.6974
466.6971, 158.4707
467.1792, 139.9745
467.6613, 113.7007
468.1434, 79.65744
468.6255, 8.647247
469.1076, 27.64427
469.5898, 24.67837
470.0719, 44.92160
470.5540, 88.31266
471.0361, 53.76037
471.5182, 27.78199
472.0003, 12.26981
472.4825, 33.29057
472.9646, 10.93728
473.4467, 21.99304
473.9288, 38.61394
474.4109, 38.64657
474.8930, 23.64159
475.3752, 18.72971
475.8573, 27.40434
476.3394, 19.96484
476.8215, 28.21730
477.3036, 4.182083
477.7857, 34.02708
478.2679, 40.89380
478.7500, 35.12625
479.2321, 5.301098
479.7142, 105.5678
480.1963, 161.0163
480.6784, 120.4412
481.1606, 47.58978
481.6427, 5.310612
482.1248, 32.42538
482.6069, 46.55341
483.0890, 35.38248
483.5711, 26.75976
484.0533, 20.04211
484.5354, 24.48582
485.0175, 14.75306
485.4996, 22.76476
485.9817, 66.93139
486.4638, 105.1595
486.9460, 134.1489
487.4281, 150.0157
487.9102, 135.5721
488.3923, 106.2984
488.8744, 116.6670
489.3565, 175.0981
489.8387, 226.7906
490.3208, 244.2110
490.8029, 236.6678
491.2850, 221.4032
491.7671, 185.6739
492.2492, 178.4124
492.7314, 250.0429
493.2135, 339.9709
493.6956, 373.5254
494.1777, 348.0045
494.6598, 312.5618
495.1419, 303.5053
495.6241, 317.3507
496.1062, 331.3959
496.5883, 354.6986
497.0704, 364.7083
497.5525, 349.4499
498.0346, 327.4139
498.5168, 305.8864
498.9989, 290.3485
499.4810, 296.1305
499.9631, 351.1141
500.4452, 437.0177
500.9273, 482.3315
501.4095, 481.2096
501.8916, 461.4824
502.3737, 407.4447
502.8558, 359.0190
503.3379, 384.5752
503.8200, 505.3872
504.3022, 614.6362
504.7843, 673.8851
505.2664, 699.5678
505.7485, 698.7508
506.2306, 677.8099
506.7127, 661.4076
507.1949, 665.4429
507.6770, 687.6645
508.1591, 719.1949
508.6412, 783.1638
509.1233, 821.6297
509.6054, 811.5489
510.0876, 791.6512
510.5697, 786.9188
511.0518, 799.9626
511.5339, 824.1401
512.0161, 861.7964
512.4982, 902.6116
512.9803, 916.6326
513.4624, 900.8844
513.9445, 873.9156
514.4266, 825.2119
514.9088, 783.4980
515.3909, 795.0020
515.8730, 865.6160
516.3551, 911.5178
516.8372, 898.2349
517.3193, 856.1128
517.8015, 798.7864
518.2836, 735.6132
518.7657, 691.3957
519.2478, 680.2181
519.7299, 692.8890
520.2120, 709.0588
520.6942, 738.2510
521.1763, 752.3149
521.6584, 731.2844
522.1405, 715.4422
522.6226, 740.3352
523.1047, 788.3152
523.5869, 809.8724
524.0690, 771.4089
524.5511, 710.7844
525.0332, 688.3759
525.5153, 703.9173
525.9974, 735.1943
526.4796, 789.6364
526.9617, 833.4950
527.4438, 830.9882
527.9259, 789.9985
528.4080, 752.6329
528.8901, 721.0950
529.3723, 693.5480
529.8544, 667.7507
530.3365, 651.4026
530.8186, 664.9261
531.3007, 710.8712
531.7828, 761.3988
532.2650, 775.5372
532.7471, 742.6901
533.2292, 750.3533
533.7113, 867.4307
534.1934, 940.8027
534.6755, 902.0102
535.1577, 803.6093
535.6398, 706.6094
536.1219, 626.8436
536.6040, 569.0743
537.0861, 545.0316
537.5682, 541.4216
538.0504, 543.9454
538.5325, 559.9121
539.0146, 560.4070
539.4967, 513.2139
539.9788, 428.4911
540.4609, 372.7791
540.9431, 368.1236
541.4252, 360.2811
541.9073, 319.0800
542.3894, 281.0331
542.8715, 294.0912
543.3536, 354.6720
543.8358, 413.8191
544.3179, 433.8605
544.8000, 420.6479
545.2821, 396.3082
545.7642, 350.8239
546.2463, 320.7044
546.7285, 322.5459
547.2106, 339.5454
547.6926, 363.6169
548.1747, 392.7704
548.6569, 415.6366
549.1390, 429.9985
549.6211, 434.4453
550.1032, 424.0025
550.5853, 403.6349
551.0674, 380.7159
551.5496, 356.7874
552.0317, 340.4992
552.5138, 348.2878
552.9959, 390.3668
553.4780, 426.0813
553.9601, 462.2565
554.4423, 485.0081
554.9244, 482.6075
555.4065, 466.9793
555.8886, 449.3848
556.3707, 434.9231
556.8528, 433.9396
557.3350, 476.3699
557.8171, 552.0402
558.2992, 566.3715
558.7813, 490.4337
559.2634, 414.0665
559.7455, 397.6431
560.2277, 423.4743
560.7098, 439.0079
561.1919, 448.0058
561.6740, 444.5680
562.1561, 407.3158
562.6382, 364.1249
563.1204, 347.5455
563.6025, 357.0958
564.0846, 363.2316
564.5667, 344.1523
565.0488, 308.4519
565.5309, 283.3608
566.0131, 268.0333
566.4952, 267.3759
566.9773, 303.7749
567.4594, 335.2936
567.9415, 330.1044
568.4236, 295.1992
568.9058, 264.8698
569.3879, 257.4653
569.8700, 259.6323
570.3521, 264.2498
570.8342, 266.9839
571.3163, 247.1237
571.7985, 196.2662
572.2806, 144.0526
572.7627, 129.1843
573.2448, 158.2717
573.7269, 165.9870
574.2090, 132.9925
574.6912, 102.7665
575.1733, 82.81495
575.6554, 73.13776
576.1375, 75.76235
576.6196, 90.05196
577.1017, 106.3698
577.5839, 116.3864
578.0660, 121.3737
578.5481, 121.7664
579.0302, 115.6091
579.5123, 124.8998
579.9944, 170.1230
580.4766, 227.4935
580.9587, 245.3219
581.4408, 211.7602
581.9229, 196.1779
582.4050, 227.4965
582.8871, 262.1440
583.3693, 274.8450
583.8514, 267.3434
584.3335, 242.4344
584.8156, 201.1993
585.2977, 164.3149
585.7798, 175.0327
586.2620, 240.4970
586.7441, 264.9071
587.2262, 214.8540
587.7083, 171.1344
588.1904, 188.3416
588.6725, 239.7338
589.1547, 285.9532
589.6368, 326.7905
590.1189, 349.2726
590.6010, 341.5224
591.0831, 314.9410
591.5652, 275.2258
592.0474, 228.3779
592.5295, 195.2627
593.0116, 190.6617
593.4937, 207.4304
593.9758, 224.6349
594.4579, 245.6643
594.9401, 258.9807
595.4222, 266.8708
595.9043, 263.4829
596.3864, 237.5383
596.8685, 197.9217
597.3506, 165.8404
597.8328, 148.2761
598.3149, 142.7832
598.7970, 146.3665
599.2791, 160.2891
599.7612, 197.8169
600.2433, 261.7536
600.7255, 307.7288
601.2076, 294.9379
601.6897, 230.9140
602.1718, 177.0106
602.6539, 127.5187
603.1360, 97.34831
603.6182, 105.1195
604.1003, 118.5129
604.5824, 118.7786
605.0645, 102.4144
605.5466, 66.27969
606.0287, 8.254326
606.5109, 26.53902
606.9930, 30.42379
607.4751, 4.457703
607.9572, 36.91527
608.4393, 19.15821
608.9214, 12.49259
609.4036, 9.561073
609.8857, 28.06548
610.3678, 37.31770
610.8499, 16.60125
611.3320, 43.30196
611.8141, 31.40600
612.2963, 4.831001
612.7784, 16.48460
613.2605, 0.6405680
613.7426, 26.57519
614.2247, 41.23708
614.7068, 22.18087
615.1890, 2.218517
615.6711, 32.65499
616.1532, 54.50986
616.6353, 66.77911
617.1174, 62.56237
617.5995, 21.23274
618.0817, 22.30560
618.5638, 15.70151
619.0459, 30.27747
619.5280, 2.916412
620.0101, 11.67422
620.4922, 4.093124
620.9744, 21.08764
621.4565, 15.32647
621.9386, 16.87759
622.4207, 26.15895
622.9028, 16.61807
623.3849, 2.120125
623.8671, 18.65661
624.3492, 31.51999
624.8313, 13.66043
625.3134, 4.250319
625.7955, 18.45859
626.2776, 10.37485
626.7598, 15.52264
627.2419, 21.62894
627.7240, 20.12179
628.2061, 11.68277
628.6882, 1.669291
629.1703, 4.592642
629.6525, 4.792198
630.1346, 5.609497
630.6167, 37.48285
631.0988, 82.74849
631.5809, 90.33595
632.0630, 47.91336
632.5452, 15.72670
633.0273, 9.336515
633.5094, 23.84625
633.9915, 61.49028
634.4736, 120.6397
634.9557, 165.6154
635.4379, 185.9914
635.9200, 190.8779
636.4021, 168.2200
636.8842, 138.8272
637.3663, 132.9393
637.8484, 157.1599
638.3306, 197.9052
638.8127, 247.7980
639.2948, 301.4966
639.7769, 320.5049
640.2590, 293.5099
640.7411, 272.9966
641.2233, 278.2754
641.7054, 292.2346
642.1875, 298.7141
642.6696, 297.6489
643.1517, 291.6546
643.6339, 273.1610
644.1160, 258.9181
644.5981, 256.7208
645.0802, 265.2107
645.5623, 289.3106
646.0444, 326.8509
646.5266, 354.4631
647.0087, 345.6198
647.4908, 311.0170
647.9729, 300.6305
648.4550, 321.9573
648.9371, 337.4247
649.4193, 328.9466
649.9014, 320.7829
650.3835, 343.1913
650.8656, 390.4178
651.3477, 421.2810
651.8298, 411.3624
652.3120, 403.8887
652.7941, 427.4410
653.2762, 462.0845
653.7583, 481.7819
654.2404, 482.1462
654.7225, 466.3634
655.2047, 432.2395
655.6868, 390.5679
656.1689, 382.8605
656.6510, 416.6913
657.1331, 436.8283
657.6152, 425.3290
658.0974, 406.6025
658.5795, 411.6347
659.0616, 434.2498
659.5437, 444.5434
660.0258, 427.5623
660.5079, 413.2892
660.9901, 415.5782
661.4722, 421.9879
661.9543, 432.6325
662.4364, 443.1493
662.9185, 440.9237
663.4006, 414.0093
663.8828, 375.2164
664.3649, 351.0198
664.8470, 344.5959
665.3291, 338.7261
665.8112, 327.0097
666.2933, 314.2725
666.7755, 302.0353
667.2576, 291.8375
667.7397, 286.2277
668.2218, 284.4287
668.7039, 286.2000
669.1860, 302.9109
669.6682, 315.1843
670.1503, 298.9441
670.6324, 261.5266
671.1145, 231.7297
671.5966, 222.3055
672.0787, 224.0476
672.5609, 229.5983
673.0430, 236.4353
673.5251, 226.8562
674.0072, 197.4657
674.4893, 167.2614
674.9714, 144.5737
675.4536, 134.2523
675.9357, 145.1319
676.4178, 195.1834
676.8999, 221.9642
677.3820, 214.7584
677.8641, 196.5471
678.3463, 178.2412
678.8284, 159.7798
679.3105, 142.1734
679.7926, 126.2634
680.2747, 107.7917
680.7568, 70.60930
681.2390, 28.00151
681.7211, 24.12046
682.2032, 59.18425
682.6853, 97.16989
683.1674, 124.0675
683.6495, 138.2833
684.1317, 137.3167
684.6138, 116.4045
685.0959, 102.2469
685.5780, 106.0675
686.0601, 102.8036
686.5422, 74.27628
687.0244, 42.40183
687.5065, 36.16348
687.9886, 57.04672
688.4707, 71.95458
688.9528, 47.64406
689.4349, 18.84020
689.9171, 37.71929
690.3992, 85.07816
690.8813, 100.6491
691.3634, 67.42062
691.8455, 19.21674
692.3276, 13.63831
692.8098, 0.4941340
693.2919, 11.95296
693.7740, 65.88206
694.2561, 120.6167
694.7382, 130.6141
695.2203, 117.8508
695.7025, 82.09058
696.1846, 34.09114
696.6667, 13.48531
697.1488, 52.55626
697.6309, 87.38016
698.1130, 77.63863
698.5952, 47.95077
699.0773, 20.12911
699.5594, 2.218517
700.0415, 10.53442
700.5236, 59.56298
701.0057, 123.7224
701.4879, 150.0741
701.9700, 136.3999
702.4521, 104.1062
702.9342, 43.11267
703.4163, 5.497239
703.8984, 7.425956
704.3806, 3.843072
704.8627, 24.11391
705.3448, 48.14984
705.8269, 62.80350
706.3090, 62.24065
706.7911, 56.89529
707.2733, 49.29276
707.7554, 42.43309
708.2375, 43.49010
708.7196, 53.71572
709.2017, 58.72322
709.6838, 35.58877
710.1660, 0.7208350
710.6481, 7.656287
711.1302, 6.766405
711.6123, 34.13654
712.0944, 67.81890
712.5765, 98.12850
713.0587, 115.4202
713.5408, 120.9352
714.0229, 101.6949
714.5050, 12.11130
714.9871, 22.24110
715.4692, 0.1226170
715.9514, 57.72129
716.4335, 77.94000
716.9156, 63.25107
717.3977, 42.37905
717.8798, 17.53292
718.3619, 35.57883
718.8441, 19.10787
719.3262, 52.34009
719.8083, 65.36572
720.2904, 2.067873
720.7725, 35.34674
721.2546, 29.93067
721.7368, 22.78754
722.2189, 74.06432
722.7010, 17.69688
723.1831, 68.04977
723.6652, 76.70367
724.1473, 103.9517
724.6295, 89.32007
725.1116, 88.42188
725.5937, 129.4433
726.0758, 53.47255
726.5579, 27.98407
727.0400, 34.23479
727.5222, 53.87315
728.0043, 83.30630
728.4864, 110.2670
728.9685, 105.7655
729.4506, 68.05262
729.9327, 34.53382
730.4149, 58.94622
730.8970, 111.0970
731.3791, 113.3232
731.8612, 75.80029
732.3433, 47.06521
732.8254, 45.10335
733.3076, 50.18037
733.7897, 40.35665
734.2718, 17.72219
734.7539, 13.40784
735.2360, 47.60404
735.7181, 66.13498
736.2003, 54.35768
736.6824, 33.74741
737.1645, 8.595688
737.6466, 33.43846
738.1287, 31.30319
738.6108, 32.68861
739.0930, 80.88525
739.5751, 106.7120
740.0572, 115.0621
740.5393, 103.5058
741.0214, 80.05592
741.5035, 66.64294
741.9857, 73.12620
742.4678, 85.00886
742.9499, 80.89034
743.4320, 64.11601
743.9141, 22.31249
744.3962, 74.00243
744.8784, 104.2483
745.3605, 115.4104
745.8426, 44.93601
746.3247, 80.48083
746.8068, 72.34462
747.2889, 62.20583
747.7711, 110.4824
748.2532, 51.10421
748.7353, 98.44443
749.2174, 103.1783
749.6995, 127.4053
750.1816, 108.6227
750.6638, 103.7596
751.1459, 140.1337
751.6280, 154.0114
752.1101, 131.1351
752.5922, 156.5746
753.0743, 95.67642
753.5565, 110.5333
754.0386, 158.0710
754.5207, 119.3509
755.0028, 106.8845
755.4849, 99.14045
755.9670, 97.50052
756.4492, 86.42760
756.9313, 62.20006
757.4134, 36.20488
757.8955, 12.42376
758.3776, 34.92179
758.8597, 40.10511
759.3419, 27.61536
759.8240, 11.50231
760.3061, 61.55387
760.7882, 92.83479
761.2703, 70.61111
761.7524, 30.65271
762.2346, 8.853337
762.7167, 8.744742
763.1988, 19.02130
763.6809, 37.51531
764.1630, 56.09731
764.6451, 63.43920
765.1273, 63.93359
765.6094, 72.53166
766.0915, 89.31840
766.5736, 93.53119
767.0557, 71.14950
767.5378, 33.48682
768.0200, 3.541466
768.5021, 27.82401
768.9842, 34.79462
769.4663, 16.99588
769.9484, 6.692597
770.4305, 28.17854
770.9127, 45.51668
771.3948, 52.69246
771.8769, 49.57506
772.3590, 39.89735
772.8411, 1.609860
773.3232, 12.42520
773.8054, 26.74917
774.2875, 81.79588
774.7696, 94.92872
775.2517, 66.99238
775.7338, 36.92934
776.2159, 23.53735
776.6981, 19.79139
777.1802, 6.215821
777.6623, 5.307616
778.1444, 7.927742
778.6265, 10.50997
779.1086, 30.34665
779.5908, 41.79145
780.0729, 43.06409
780.5550, 26.23885
781.0371, 9.336637
781.5192, 8.358715
782.0013, 0.7089260
782.4835, 11.95311
782.9656, 7.145262
783.4477, 5.092316
783.9298, 1.395587
784.4119, 4.060255
784.8940, 32.95566
785.3762, 15.20583
785.8583, 41.91669
786.3404, 48.32939
786.8225, 26.34586
787.3046, 3.666941
787.7867, 8.283786
788.2689, 21.96354
788.7510, 22.76053
789.2331, 40.16616
789.7152, 3.605309
790.1973, 4.773529
790.6794, 25.43811
791.1616, 3.880615
791.6437, 1.153404
792.1258, 3.873093
792.6079, 11.26647
793.0900, 6.381264
793.5721, 8.202440
794.0543, 1.164860
794.5364, 18.53934
795.0185, 1.757322
795.5006, 3.424540
795.9827, 18.44366
796.4648, 27.89565
796.9470, 23.22769
797.4291, 13.37271
797.9112, 11.64334
798.3933, 26.12929
798.8754, 32.88301
799.3575, 25.05003
799.8397, 13.57959
800.3218, 0.6821520
800.8039, 36.53147
801.2860, 54.03358
801.7681, 50.14613
802.2502, 0.5642470
802.7324, 23.91480
803.2145, 15.47273
803.6966, 36.73869
804.1787, 8.720768
804.6608, 25.65918
805.1429, 52.76944
805.6251, 64.02802
806.1072, 60.79232
806.5893, 41.90925
807.0714, 10.43733
807.5535, 8.380211
808.0356, 10.08316
808.5178, 0.1262550
808.9999, 21.74213
809.4820, 46.42572
809.9641, 49.76984
810.4462, 19.10952
810.9283, 16.24068
811.4105, 69.66636
811.8926, 104.2977
812.3747, 66.48148
812.8568, 11.48818
813.3389, 7.878483
813.8210, 56.00789
814.3032, 92.04733
814.7853, 96.36310
815.2674, 100.2019
815.7495, 115.3396
816.2316, 131.8212
816.7137, 147.2667
817.1959, 157.1826
817.6780, 147.2855
818.1601, 107.2680
818.6422, 66.74323
819.1243, 51.22051
819.6064, 51.48256
820.0886, 54.48498
820.5707, 60.50599
821.0528, 74.07175
821.5349, 95.65527
822.0170, 112.0423
822.4991, 105.0836
822.9813, 83.08865
823.4634, 85.66406
823.9455, 114.4729
824.4276, 130.1842
824.9097, 119.4454
825.3918, 115.8151
825.8740, 147.3301
826.3561, 201.5303
826.8382, 235.4707
827.3203, 241.1858
827.8024, 250.3295
828.2845, 274.1985
828.7667, 286.0194
829.2488, 263.6854
829.7309, 231.9155
830.2130, 220.2014
830.6951, 229.2088
831.1772, 242.2663
831.6594, 254.4075
832.1415, 274.6936
832.6236, 323.2557
833.1057, 370.3823
833.5878, 380.9523
834.0699, 361.8397
834.5521, 343.6658
835.0342, 338.9674
835.5163, 342.4025
835.9984, 352.5510
836.4805, 370.5318
836.9626, 396.0042
837.4448, 427.3842
837.9269, 463.8916
838.4090, 504.0081
838.8911, 528.4062
839.3732, 512.0554
839.8553, 473.0327
840.3375, 484.8021
840.8196, 549.3519
841.3017, 590.1902
841.7838, 591.5062
842.2659, 578.7214
842.7480, 561.1041
843.2302, 550.0346
843.7123, 564.1990
844.1944, 619.3462
844.6765, 644.3221
845.1586, 613.4832
845.6407, 597.4104
846.1229, 641.3787
846.6050, 699.0736
847.0871, 715.3895
847.5692, 698.0332
848.0513, 687.3479
848.5334, 681.7432
849.0156, 691.0352
849.4977, 741.8165
849.9798, 788.2581
850.4619, 787.9317
850.9440, 756.2756
851.4261, 729.1163
851.9083, 718.0389
852.3904, 717.7205
852.8725, 725.1673
853.3546, 741.1119
853.8367, 774.9092
854.3188, 816.1600
854.8010, 845.0942
855.2831, 857.5882
855.7652, 859.5632
856.2473, 855.4329
856.7294, 845.3027
857.2115, 827.2332
857.6937, 804.4593
858.1758, 782.8452
858.6579, 762.0448
859.1400, 752.1326
859.6221, 757.8363
860.1042, 776.3620
860.5864, 804.8701
861.0685, 844.2104
861.5506, 873.6140
862.0327, 898.7543
862.5148, 899.4100
862.9969, 861.0427
863.4791, 816.3225
863.9612, 791.2838
864.4433, 779.9637
864.9254, 761.3906
865.4075, 731.6006
865.8896, 702.0362
866.3718, 670.4599
866.8539, 642.0082
867.3360, 610.1057
867.8181, 587.6033
868.3002, 597.0795
868.7823, 636.3641
869.2645, 660.9778
869.7466, 654.4000
870.2287, 637.9619
870.7108, 610.9923
871.1929, 584.9225
871.6750, 574.4998
872.1572, 572.6066
872.6393, 558.1437
873.1214, 523.2514
873.6035, 496.1774
874.0856, 511.3746
874.5677, 533.2559
875.0499, 521.2872
875.5320, 484.7844
876.0141, 434.3423
876.4962, 379.5984
876.9783, 354.3661
877.4604, 386.8935
877.9426, 438.4983
878.4247, 439.8787
878.9068, 407.0728
879.3889, 399.9269
879.8710, 421.5621
880.3531, 459.4050
880.8353, 509.9601
881.3174, 547.0540
881.7995, 531.4788
882.2816, 477.7716
882.7637, 490.5148
883.2458, 583.0085
883.7280, 633.0028
884.2101, 610.1402
884.6922, 574.8570
885.1743, 560.5712
885.6564, 565.0939
886.1385, 583.8246
886.6207, 618.7645
887.1028, 654.6634
887.5849, 694.8464
888.0670, 728.9469
888.5491, 762.4387
889.0313, 782.5164
889.5134, 771.1733
889.9955, 735.2148
890.4776, 710.5679
890.9597, 704.1201
891.4418, 701.6705
891.9240, 696.5093
892.4061, 701.2612
892.8882, 735.1292
893.3703, 775.5220
893.8524, 789.3206
894.3345, 773.3362
894.8167, 752.8249
895.2988, 723.9260
895.7809, 707.7709
896.2630, 720.2978
896.7451, 743.0956
897.2272, 767.3196
897.7094, 784.5105
898.1915, 780.8264
898.6736, 752.3478
899.1557, 728.1617
899.6378, 738.0277
900.1199, 760.5707
900.6021, 775.0618
901.0842, 783.5814
901.5663, 787.1753
902.0484, 784.7445
902.5305, 777.7274
903.0126, 765.7692
903.4948, 751.8303
903.9769, 743.0386
904.4590, 733.5374
904.9411, 687.9628
905.4232, 616.2346
905.9053, 599.7025
906.3875, 666.8528
906.8696, 746.9255
907.3517, 769.9379
907.8338, 749.2457
908.3159, 724.6943
908.7980, 697.0714
909.2802, 684.0624
909.7623, 689.3630
910.2444, 693.9026
910.7265, 686.5844
911.2086, 680.6910
911.6907, 700.1341
912.1729, 745.8972
912.6550, 753.0492
913.1371, 709.4857
913.6192, 660.5607
914.1013, 605.2630
914.5834, 567.0687
915.0656, 572.2709
915.5477, 597.9502
916.0298, 586.2556
916.5119, 514.9826
916.9940, 490.4979
917.4761, 559.5930
917.9583, 609.2473
918.4404, 605.6599
918.9225, 579.7897
919.4046, 550.5673
919.8867, 519.1075
920.3688, 488.1534
920.8510, 460.2429
921.3331, 427.2728
921.8152, 371.4185
922.2973, 329.5035
922.7794, 325.8875
923.2615, 340.3008
923.7437, 354.3357
924.2258, 364.0375
924.7079, 363.0976
925.1900, 351.0957
925.6721, 325.6513
926.1542, 268.4243
926.6364, 213.7963
927.1185, 196.7754
927.6006, 199.5722
928.0827, 181.9857
928.5648, 138.7276
929.0469, 116.5148
929.5291, 167.4877
930.0112, 218.7889
930.4933, 211.3734
930.9754, 176.0350
931.4575, 139.7845
931.9396, 112.3592
932.4218, 111.5979
932.9039, 143.0620
933.3860, 168.2923
933.8681, 148.3653
934.3502, 108.3431
934.8323, 69.94450
935.3145, 39.97224
935.7966, 41.34222
936.2787, 68.61688
936.7608, 82.97392
937.2429, 63.13393
937.7250, 35.32845
938.2072, 37.22426
938.6893, 52.62407
939.1714, 39.26613
939.6535, 4.780277
940.1356, 19.34235
940.6177, 25.89228
941.0999, 19.14170
941.5820, 3.0655000E-02
942.0641, 19.34233
942.5462, 13.21693
943.0283, 12.73795
943.5104, 30.28681
943.9926, 35.84922
944.4747, 36.03668
944.9568, 22.86996
945.4389, 17.65681
945.9210, 28.00792
946.4031, 7.781059
946.8853, 3.686625
947.3674, 3.860176
947.8495, 25.67031
948.3316, 18.27018
948.8137, 2.760672
949.2958, 12.42089
949.7780, 16.74047
950.2601, 6.666710
950.7422, 47.77293
951.2243, 49.31740
951.7064, 4.389893
952.1885, 17.29773
952.6707, 22.26571
953.1528, 43.43226
953.6349, 37.27216
954.1170, 12.28540
954.5991, 23.50661
955.0812, 27.44746
955.5634, 34.43800
956.0455, 21.21961
956.5276, 10.73482
957.0097, 13.90140
957.4918, 10.06361
957.9739, 6.603426
958.4561, 33.08820
958.9382, 20.79641
959.4203, 9.390274
959.9024, 38.19591
960.3845, 3.839452
960.8666, 5.275368
961.3488, 4.873458
961.8309, 15.40808
962.3130, 2.116098
962.7951, 22.74133
963.2772, 8.142744
963.7593, 26.72298
964.2415, 59.67710
964.7236, 40.74382
965.2057, 14.23091
965.6878, 1.650564
966.1699, 31.52972
966.6520, 36.77362
967.1342, 29.48561
967.6163, 45.10857
968.0984, 97.65929
968.5805, 110.5859
969.0626, 39.88537
969.5447, 4.867088
970.0269, 3.786806
970.5090, 2.585068
970.9911, 48.69062
971.4732, 112.0665
971.9553, 129.0822
972.4374, 72.63909
972.9196, 42.55950
973.4017, 77.01059
973.8838, 106.3845
974.3659, 92.82965
974.8480, 77.95798
975.3301, 114.9918
975.8123, 180.0603
976.2944, 198.7329
976.7765, 144.0876
977.2586, 103.1650
977.7407, 81.25695
978.2228, 86.79871
978.7050, 163.5705
979.1871, 240.7039
979.6692, 232.3374
980.1513, 159.4536
980.6334, 120.6749
981.1155, 145.9707
981.5977, 177.5813
982.0798, 203.4687
982.5619, 225.6015
983.0440, 253.2816
983.5261, 272.1056
984.0082, 257.9307
984.4904, 219.1528
984.9725, 194.0235
985.4546, 199.8251
985.9367, 198.1496
986.4188, 158.9859
986.9009, 126.6828
987.3831, 125.7217
987.8652, 146.9444
988.3473, 189.2728
988.8294, 243.4979
989.3115, 278.7759
989.7936, 279.1439
990.2758, 279.1644
990.7579, 304.4604
991.2400, 321.2624
991.7221, 292.7003
992.2042, 253.1248
992.6863, 253.5456
993.1685, 286.6393
993.6506, 293.3212
994.1327, 237.9368
994.6148, 202.0759
995.0969, 241.9907
995.5790, 292.2816
996.0612, 318.0258
996.5433, 321.5271
997.0254, 299.5928
997.5075, 260.3443
997.9896, 230.0204
998.4717, 214.6422
998.9539, 222.1165
999.4360, 284.2852
999.9181, 340.1741
1000.400, 342.0078
1000.882, 315.4831
1001.364, 288.9553
1001.847, 269.4117
1002.329, 260.2961
1002.811, 265.1014
1003.293, 275.6239
1003.775, 300.1157
1004.257, 314.7747
1004.739, 287.0879
1005.221, 250.9531
1005.703, 257.7096
1006.186, 297.4323
1006.668, 307.0030
1007.150, 251.8596
1007.632, 207.9668
1008.114, 230.9870
1008.596, 254.9324
1009.078, 223.8248
1009.560, 178.8319
1010.043, 175.6022
1010.525, 207.9641
1011.007, 227.6236
1011.489, 224.2780
1011.971, 200.3129
1012.453, 119.4244
1012.935, 58.80955
1013.417, 84.23949
1013.899, 136.1427
1014.382, 154.2620
1014.864, 138.8860
1015.346, 115.6781
1015.828, 86.86475
1016.310, 61.91714
1016.792, 48.79982
1017.274, 43.11051
1017.756, 39.64706
1018.239, 38.09593
1018.721, 43.57147
1019.203, 51.66586
1019.685, 43.63536
1020.167, 11.76044
1020.649, 9.933779
1021.131, 4.474741
1021.613, 3.278341
1022.095, 6.415356
1022.578, 8.931387
1023.060, 16.85028
1023.542, 24.45941
1024.024, 12.25671
1024.506, 3.505754
1024.988, 16.51305
1025.470, 16.49566
1025.952, 17.65691
1026.435, 35.04763
1026.917, 42.28591
1027.399, 42.52356
1027.881, 37.27092
1028.363, 23.34087
1028.845, 0.9881570
1029.327, 18.48380
1029.809, 16.07022
1030.292, 16.10740
1030.774, 10.91074
1031.256, 4.9676999E-02
1031.738, 18.12881
1032.220, 0.5250800
1032.702, 16.15432
1033.184, 40.01866
1033.666, 60.53186
1034.148, 17.95848
1034.630, 41.88334
1035.113, 36.69346
1035.595, 15.99909
1036.077, 5.690947
1036.559, 2.737749
1037.041, 23.09540
1037.523, 13.91404
1038.005, 40.36062
1038.487, 45.88988
1038.970, 57.72839
1039.452, 97.68581
1039.934, 117.2308
1040.416, 76.33807
1040.898, 20.28411
1041.380, 4.975050
1041.862, 26.47349
1042.344, 42.72085
1042.826, 53.46521
1043.309, 58.77692
1043.791, 52.41967
1044.273, 53.54193
1044.755, 79.58020
1045.237, 100.1099
1045.719, 75.35829
1046.201, 20.89504
1046.683, 11.74343
1047.166, 65.55980
1047.648, 104.3725
1048.130, 127.0028
1048.612, 135.8073
1049.094, 128.0954
1049.576, 113.8278
1050.058, 97.29572
1050.540, 85.71062
1051.022, 105.2048
1051.505, 162.5305
1051.987, 177.6096
1052.469, 141.0350
1052.951, 120.8828
1053.433, 133.6315
1053.915, 165.1583
1054.397, 210.4474
1054.879, 254.4356
1055.361, 269.7148
1055.844, 257.8318
1056.326, 223.1177
1056.808, 165.3905
1057.290, 168.2939
1057.772, 246.9044
1058.254, 323.2660
1058.736, 356.5046
1059.218, 367.6020
1059.701, 382.3590
1060.183, 398.6110
1060.665, 412.8694
1061.147, 422.2956
1061.629, 403.4151
1062.111, 358.9666
1062.593, 332.5563
1063.075, 340.5715
1063.557, 357.5858
1064.040, 358.9315
1064.522, 354.3857
1065.004, 365.8062
1065.486, 384.3970
1065.968, 386.0312
1066.450, 373.7993
1066.932, 356.5551
1067.414, 430.4881
1067.896, 436.8702
1068.379, 434.0695
1068.861, 422.6482
1069.343, 376.4129
1069.825, 375.1640
1070.307, 355.8469
1070.789, 335.6182
1071.271, 340.6450
1071.753, 299.5730
1072.236, 304.3130
1072.718, 199.8532
1073.200, 210.0420
1073.682, 217.4879
1074.164, 221.6843
1074.646, 235.2459
1075.128, 235.7329
1075.610, 176.2744
1076.093, 83.42210
1076.575, 32.75942
1077.057, 45.05297
1077.539, 67.31732
1078.021, 83.28417
1078.503, 93.66569
1078.985, 97.01772
1079.467, 101.8108
1079.949, 115.4446
1080.432, 133.2552
1080.914, 152.5869
1081.396, 171.5837
1081.878, 167.1834
1082.360, 100.4215
1082.842, 59.90037
1083.324, 81.03568
1083.806, 109.0102
1084.288, 120.3698
1084.771, 121.9486
1085.253, 116.7859
1085.735, 107.9673
1086.217, 112.1958
1086.699, 144.8682
1087.181, 146.1341
1087.663, 98.24190
1088.145, 57.22532
1088.628, 32.65962
1089.110, 31.68859
1089.592, 66.40708
1090.074, 116.9510
1090.556, 140.0561
1091.038, 137.5700
1091.520, 106.8212
1092.002, 36.57478
1092.484, 1.015862
1092.967, 13.24290
1093.449, 32.45667
1093.931, 31.52776
1094.413, 24.86774
1094.895, 30.56532
1095.377, 48.02574
1095.859, 71.76741
1096.341, 99.12028
1096.823, 110.0475
1097.306, 103.2714
1097.788, 77.87212
1098.270, 35.75700
1098.752, 4.766689
1099.234, 7.966621
1099.716, 32.35878
1100.198, 68.74493
1100.680, 105.7910
1101.163, 116.2217
1101.645, 108.3602
1102.127, 107.8706
1102.609, 115.4336
1103.091, 107.8049
1103.573, 73.16534
1104.055, 43.24244
1104.537, 55.89740
1105.020, 73.37847
1105.502, 56.13859
1105.984, 26.79409
1106.466, 5.186695
1106.948, 1.335949
1107.430, 21.70246
1107.912, 72.50021
1108.394, 104.6490
1108.876, 90.29879
1109.359, 72.23825
1109.841, 66.65793
1110.323, 61.82519
1110.805, 46.15424
1111.287, 30.27975
1111.769, 32.74180
1112.251, 49.11499
1112.733, 50.04197
1113.215, 12.29744
1113.698, 3.339600
1114.180, 50.60911
1114.662, 83.42104
1115.144, 82.66000
1115.626, 75.40511
1116.108, 77.20216
1116.590, 80.93626
1117.072, 72.15639
1117.555, 48.56979
1118.037, 41.95210
1118.519, 57.06154
1119.001, 75.51446
1119.483, 82.75478
1119.965, 79.81721
1120.447, 65.21299
1120.929, 59.85878
1121.411, 72.71298
1121.894, 95.90026
1122.376, 91.84664
1122.858, 66.12441
1123.340, 89.96310
1123.822, 146.5997
1124.304, 172.7175
1124.786, 155.2117
1125.268, 129.8692
1125.750, 114.8651
1126.233, 104.9707
1126.715, 99.92184
1127.197, 99.85303
1127.679, 108.2182
1128.161, 115.8723
1128.643, 98.93742
1129.125, 70.21927
1129.607, 72.56825
1130.090, 114.7841
1130.572, 143.5224
1131.054, 114.8394
1131.536, 88.27647
1132.018, 106.7856
1132.500, 130.9000
1132.982, 137.6911
1133.464, 130.9144
1133.947, 103.0234
1134.429, 67.07645
1134.911, 76.17530
1135.393, 162.9896
1135.875, 203.8477
1136.357, 152.6913
1136.839, 108.4397
1137.321, 88.52448
1137.803, 78.12020
1138.286, 69.56435
1138.768, 64.31890
1139.250, 64.85645
1139.732, 70.93481
1140.214, 82.55830
1140.696, 102.7792
1141.178, 98.91391
1141.660, 64.52898
1142.142, 58.78349
1142.625, 102.5955
1143.107, 142.4826
1143.589, 135.2123
1144.071, 107.8179
1144.553, 112.6298
1145.035, 133.8950
1145.517, 116.4200
1145.999, 74.86449
1146.482, 55.43234
1146.964, 61.09239
1147.446, 74.99414
1147.928, 89.60431
1148.410, 97.64040
1148.892, 89.03364
1149.374, 79.65210
1149.856, 80.98299
1150.339, 90.56593
1150.821, 119.0708
1151.303, 146.5728
1151.785, 137.4396
1152.267, 98.32491
1152.749, 73.63435
1153.231, 77.24138
1153.713, 83.59072
1154.195, 100.2534
1154.677, 100.1284
1155.160, 53.91864
1155.642, 11.90758
1156.124, 5.740566
1156.606, 21.18102
1157.088, 41.39982
1157.570, 65.35784
1158.052, 78.79818
1158.534, 78.82288
1159.017, 80.27289
1159.499, 83.42455
1159.981, 93.98786
1160.463, 116.2614
1160.945, 121.0021
1161.427, 83.25659
1161.909, 35.16843
1162.391, 39.76865
1162.874, 75.29451
1163.356, 63.78399
1163.838, 20.24959
1164.320, 11.62715
1164.802, 25.70924
1165.284, 21.20406
1165.766, 0.1397110
1166.248, 19.55652
1166.730, 26.40825
1167.213, 27.23269
1167.695, 25.46728
1168.177, 22.44543
1168.659, 23.29168
1169.141, 20.62661
1169.623, 1.862219
1170.105, 17.35461
1170.587, 3.201830
1171.069, 14.79307
1171.552, 23.49430
1172.034, 0.4639030
1172.516, 6.776165
1172.998, 21.16183
1173.480, 8.279968
1173.962, 10.38809
1174.444, 25.71113
1174.926, 2.044773
1175.409, 20.20351
1175.891, 0.8856260
1176.373, 79.23248
1176.855, 1.579857
1177.337, 7.226906
1177.819, 7.656460
1178.301, 48.66967
1178.783, 1.422766
1179.266, 11.58318
1179.748, 27.14843
1180.230, 5.189695
1180.712, 44.81245
1181.194, 23.94910
1181.676, 16.92656
1182.158, 19.41720
1182.640, 7.727737
1183.122, 15.22258
1183.604, 40.87344
1184.087, 61.58949
1184.569, 3.547821
1185.051, 11.23337
1185.533, 46.45422
1186.015, 66.82449
1186.497, 43.82334
1186.979, 8.935266
1187.461, 6.204562
1187.944, 26.30357
1188.426, 5.023746
1188.908, 41.97171
1189.390, 73.20106
1189.872, 36.13690
1190.354, 21.27235
1190.836, 34.42177
1191.318, 44.49043
1191.801, 43.42070
1192.283, 50.96737
1192.765, 79.23095
1193.247, 109.0590
1193.729, 114.9429
1194.211, 102.9019
1194.693, 77.32935
1195.175, 49.06514
1195.657, 51.70612
1196.140, 77.67696
1196.622, 104.5432
1197.104, 125.3064
1197.586, 132.6691
1198.068, 120.7663
1198.550, 111.7073
1199.032, 115.4095
1199.514, 129.9581
1199.996, 173.1009
1200.479, 210.5794
1200.961, 202.7051
1201.443, 177.4044
1201.925, 181.0444
1202.407, 210.2750
1202.889, 221.1832
1203.371, 203.3347
1203.853, 204.5529
1204.336, 230.1965
1204.818, 260.3298
1205.300, 284.8208
1205.782, 297.8669
1206.264, 295.2525
1206.746, 284.0237
1207.228, 278.5314
1207.710, 286.5774
1208.193, 310.4713
1208.675, 337.1613
1209.157, 355.3005
1209.639, 366.4098
1210.121, 345.1554
1210.603, 331.9179
1211.085, 331.6943
1211.567, 372.5214
1212.049, 402.7687
1212.531, 362.0754
1213.014, 344.9140
1213.496, 421.7267
1213.978, 503.3730
1214.460, 519.2684
1214.942, 505.4009
1215.424, 495.0743
1215.906, 488.3899
1216.388, 508.7838
1216.871, 543.9409
1217.353, 575.5272
1217.835, 605.8939
1218.317, 619.6431
1218.799, 609.9005
1219.281, 611.8685
1219.763, 642.8632
1220.245, 676.2939
1220.728, 685.0846
1221.210, 684.7460
1221.692, 710.5324
1222.174, 744.5655
1222.656, 748.7443
1223.138, 733.0853
1223.620, 711.8331
1224.102, 693.6919
1224.584, 698.8646
1225.067, 729.0140
1225.549, 740.7864
1226.031, 705.6691
1226.513, 668.7034
1226.995, 642.2503
1227.477, 621.3218
1227.959, 622.7701
1228.441, 607.1336
1228.923, 532.5305
1229.406, 434.4104
1229.888, 374.6341
1230.370, 349.0454
1230.852, 323.6652
1231.334, 298.6570
1231.816, 265.4446
1232.298, 224.5323
1232.780, 201.3266
1233.263, 200.6428
1233.745, 198.2192
1234.227, 180.3525
1234.709, 154.9433
1235.191, 122.3101
1235.673, 95.57613
1236.155, 98.81281
1236.637, 107.1295
1237.120, 90.69627
1237.602, 60.66669
1238.084, 33.15953
1238.566, 12.27289
1239.048, 4.548384
1239.530, 16.65425
1240.012, 18.47407
1240.494, 2.555093
1240.976, 0.7202030
1241.458, 8.960842
1241.941, 22.80154
1242.423, 8.678356
1242.905, 0.0000000E+00
##END=



