##NAMES=Epistilbite
##RRUFFID=R061105
##IDEAL CHEMISTRY=Ca_3_(Si_18_Al_6_)O_48_&#183;16H_2_O
##LOCALITY=Berufiord, Iceland
##OWNER=RRUFF
##SOURCE=Michael Scott
##DESCRIPTION=Globular aggregate of thin tabular peach and white fibrous crystals
##STATUS=The identification of this mineral has been confirmed by X-ray diffraction and chemical analysis
##URL=rruff.info/R061105
##MEASURED CHEMISTRY=(Ca_2.38_Na_1.04_K_0.09_)_Σ=3.51_(Si_18.11_Al_5.89_)O_48·_11.38H_2_O ; = lighter gray phase : (Na_2.91_Ca_0.13_K_0.12_)_Σ=3.16_Ca_2.00_Al_7.29_Si_28.85_O_72_·16.19H_2_O = darker gray phase = heulandite-Na
122.0469, 0.0000000E+00
122.5290, 4.037109
123.0111, 28.97852
123.4933, 113.9131
123.9754, 258.5342
124.4575, 432.1743
124.9396, 532.8530
125.4217, 579.8267
125.9038, 635.8877
126.3860, 712.1313
126.8681, 798.8604
127.3502, 870.5273
127.8323, 907.7598
128.3144, 923.2832
128.7965, 945.7705
129.2787, 977.3486
129.7608, 1007.133
130.2429, 1023.123
130.7250, 1024.694
131.2071, 1012.097
131.6892, 982.3423
132.1714, 936.0098
132.6535, 878.8198
133.1356, 802.6060
133.6177, 721.4019
134.0998, 682.8438
134.5819, 692.3472
135.0640, 704.0029
135.5462, 672.9805
136.0283, 595.8550
136.5104, 528.6592
136.9925, 482.3760
137.4746, 456.1968
137.9567, 449.8911
138.4389, 473.4893
138.9210, 498.9414
139.4031, 484.9497
139.8852, 419.0952
140.3673, 357.8599
140.8494, 321.7026
141.3316, 317.9082
141.8137, 305.1851
142.2958, 275.7217
142.7779, 241.6982
143.2600, 232.2480
143.7421, 259.3311
144.2243, 292.7031
144.7064, 318.0449
145.1885, 332.6025
145.6706, 344.6992
146.1527, 355.0698
146.6348, 363.2061
147.1170, 367.1597
147.5991, 372.5317
148.0812, 368.9517
148.5633, 348.2583
149.0454, 273.5137
149.5275, 223.2422
150.0097, 217.8823
150.4918, 264.9893
150.9739, 292.3960
151.4560, 286.9189
151.9381, 266.0093
152.4202, 247.4497
152.9024, 232.4678
153.3845, 219.9380
153.8666, 209.5933
154.3487, 202.2139
154.8308, 195.6416
155.3129, 194.6797
155.7950, 194.1167
156.2772, 184.8696
156.7593, 153.0815
157.2414, 121.4497
157.7235, 100.2578
158.2056, 94.20020
158.6877, 94.48730
159.1699, 102.3428
159.6520, 115.8242
160.1341, 128.1768
160.6162, 138.5425
161.0983, 146.2817
161.5804, 150.9429
162.0626, 151.0483
162.5447, 151.2661
163.0268, 150.0933
163.5089, 145.4399
163.9910, 141.4834
164.4731, 142.3682
164.9553, 147.5771
165.4374, 152.2363
165.9195, 150.3682
166.4016, 147.2700
166.8837, 148.2363
167.3658, 153.4082
167.8480, 157.0864
168.3301, 162.4980
168.8122, 168.0542
169.2943, 170.9263
169.7764, 167.6768
170.2585, 164.2295
170.7407, 165.3359
171.2228, 174.6816
171.7049, 187.9287
172.1870, 196.3960
172.6691, 198.0186
173.1512, 192.4736
173.6334, 160.1884
174.1155, 178.6499
174.5976, 190.5346
175.0797, 196.1959
175.5618, 176.9938
176.0439, 189.8976
176.5260, 177.8596
177.0082, 191.1354
177.4903, 197.8347
177.9724, 198.3105
178.4545, 173.9229
178.9366, 181.6413
179.4187, 176.4930
179.9009, 170.8168
180.3830, 183.0539
180.8651, 162.2826
181.3472, 170.3657
181.8293, 176.1484
182.3114, 179.6758
182.7936, 175.6348
183.2757, 166.6460
183.7578, 156.9233
184.2399, 145.9092
184.7220, 137.6226
185.2041, 141.0229
185.6863, 153.7588
186.1684, 161.1392
186.6505, 153.3179
187.1326, 134.2935
187.6147, 118.9092
188.0968, 108.1396
188.5790, 99.38428
189.0611, 85.87109
189.5432, 68.10596
190.0253, 57.07617
190.5074, 65.49512
190.9895, 89.40234
191.4717, 97.47754
191.9538, 83.48389
192.4359, 58.20312
192.9180, 41.04492
193.4001, 31.79639
193.8822, 30.76074
194.3644, 43.69141
194.8465, 69.97119
195.3286, 84.59717
195.8107, 81.36426
196.2928, 65.47705
196.7749, 52.82324
197.2570, 43.72803
197.7392, 36.35889
198.2213, 27.79443
198.7034, 17.42822
199.1855, 13.77783
199.6676, 21.84863
200.1497, 38.38965
200.6319, 44.10547
201.1140, 37.84082
201.5961, 24.48389
202.0782, 5.890625
202.5603, 20.22217
203.0424, 37.53320
203.5246, 39.13037
204.0067, 25.44238
204.4888, 12.40186
204.9709, 2.310059
205.4530, 13.06396
205.9352, 10.37988
206.4173, 9.797852
206.8994, 29.93506
207.3815, 44.86719
207.8636, 54.52881
208.3457, 56.87891
208.8279, 50.04883
209.3100, 38.53027
209.7921, 28.98584
210.2742, 20.51855
210.7563, 15.64990
211.2384, 17.43213
211.7206, 29.40918
212.2027, 32.34717
212.6848, 22.10352
213.1669, 5.769531
213.6490, 0.6479490
214.1311, 11.39258
214.6133, 22.60596
215.0954, 26.16211
215.5775, 19.18896
216.0596, 15.42432
216.5417, 16.40039
217.0238, 20.29932
217.5059, 22.41650
217.9881, 23.29785
218.4702, 20.71582
218.9523, 11.06348
219.4344, 11.94141
219.9165, 21.99561
220.3986, 12.01025
220.8808, 12.22217
221.3629, 23.01514
221.8450, 15.54395
222.3271, 3.480469
222.8092, 5.163086
223.2913, 12.32666
223.7735, 12.90869
224.2556, 3.498535
224.7377, 14.36084
225.2198, 23.79541
225.7019, 21.98633
226.1840, 16.33447
226.6662, 13.52832
227.1483, 18.31104
227.6304, 14.52979
228.1125, 5.805664
228.5946, 41.92871
229.0767, 56.30273
229.5589, 36.51074
230.0410, 8.335938
230.5231, 2.953613
231.0052, 13.75635
231.4873, 26.86328
231.9694, 29.06543
232.4516, 19.32422
232.9337, 13.64404
233.4158, 13.13232
233.8979, 15.88916
234.3800, 21.12354
234.8621, 35.25293
235.3443, 40.50000
235.8264, 28.04492
236.3085, 7.375000
236.7906, 23.29248
237.2727, 11.97266
237.7548, 13.07861
238.2369, 35.22607
238.7191, 56.44336
239.2012, 70.92188
239.6833, 75.28174
240.1654, 66.45508
240.6475, 60.63867
241.1296, 58.05518
241.6118, 57.99023
242.0939, 59.07520
242.5760, 47.23106
243.0581, 67.26356
243.5402, 80.71921
244.0223, 87.95125
244.5045, 70.32122
244.9866, 84.79592
245.4687, 86.40406
245.9508, 87.48460
246.4329, 106.4781
246.9150, 92.46308
247.3972, 111.1736
247.8793, 116.8201
248.3614, 128.4451
248.8435, 127.1241
249.3256, 129.8018
249.8077, 142.1221
250.2899, 139.0474
250.7720, 133.7695
251.2541, 131.4590
251.7362, 132.9194
252.2183, 135.2959
252.7004, 140.6289
253.1826, 145.8071
253.6647, 142.3267
254.1468, 123.7075
254.6289, 106.7124
255.1110, 99.11719
255.5931, 105.0044
256.0753, 109.9697
256.5574, 114.6885
257.0395, 118.2725
257.5216, 117.4937
258.0037, 109.4893
258.4858, 102.5742
258.9680, 100.8955
259.4501, 105.6353
259.9322, 113.3325
260.4143, 126.5991
260.8964, 141.3921
261.3785, 145.7559
261.8607, 137.8066
262.3428, 124.8525
262.8249, 108.1860
263.3070, 83.24512
263.7891, 70.24463
264.2712, 75.24854
264.7534, 90.48438
265.2355, 91.38477
265.7176, 71.38965
266.1997, 52.20459
266.6818, 47.87598
267.1639, 63.72852
267.6461, 74.04736
268.1282, 75.34033
268.6103, 70.52637
269.0924, 68.46875
269.5745, 68.97266
270.0566, 71.45557
270.5387, 77.35205
271.0208, 88.38428
271.5030, 93.55029
271.9851, 88.23730
272.4672, 77.42285
272.9493, 79.09326
273.4314, 97.19043
273.9135, 115.4312
274.3957, 124.2437
274.8778, 123.4321
275.3599, 114.2817
275.8420, 92.24512
276.3241, 64.80176
276.8062, 57.49463
277.2884, 75.68848
277.7705, 92.24365
278.2526, 84.05371
278.7347, 48.22119
279.2168, 31.18164
279.6989, 43.75146
280.1811, 74.97217
280.6632, 97.88916
281.1453, 111.9805
281.6274, 116.8462
282.1095, 106.8560
282.5916, 82.45215
283.0738, 69.95654
283.5559, 75.55908
284.0380, 90.87012
284.5201, 76.13528
285.0022, 104.3575
285.4843, 122.7149
285.9665, 131.7378
286.4486, 103.4650
286.9307, 123.3506
287.4128, 123.9367
287.8949, 123.7311
288.3770, 150.3952
288.8592, 127.5476
289.3413, 153.7856
289.8234, 160.4289
290.3055, 176.0405
290.7876, 172.2326
291.2697, 174.4230
291.7519, 196.0394
292.2340, 206.8992
292.7161, 200.8559
293.1982, 217.0375
293.6803, 193.5105
294.1624, 208.0630
294.6446, 212.4849
295.1267, 217.8594
295.6088, 224.1172
296.0909, 230.5659
296.5730, 236.7495
297.0551, 241.0024
297.5373, 240.4150
298.0194, 236.8472
298.5015, 234.7773
298.9836, 234.9238
299.4657, 236.5918
299.9478, 241.4102
300.4300, 247.7847
300.9121, 249.4902
301.3942, 236.0366
301.8763, 217.5850
302.3584, 211.4419
302.8405, 222.1460
303.3227, 235.6719
303.8048, 237.9521
304.2869, 231.6392
304.7690, 224.5684
305.2511, 218.3726
305.7332, 214.7197
306.2154, 217.2852
306.6975, 228.3472
307.1796, 238.5039
307.6617, 239.4443
308.1438, 233.4541
308.6259, 225.5205
309.1081, 218.6069
309.5901, 210.6362
310.0723, 197.5054
310.5544, 177.0654
311.0365, 162.0283
311.5186, 165.4800
312.0007, 179.0938
312.4828, 188.3828
312.9650, 179.0371
313.4471, 169.8750
313.9292, 176.1265
314.4113, 201.7544
314.8934, 221.5630
315.3755, 220.6987
315.8577, 207.2295
316.3398, 192.1660
316.8219, 171.8315
317.3040, 157.2324
317.7861, 158.7939
318.2682, 179.5034
318.7504, 189.1533
319.2325, 166.1587
319.7146, 130.9468
320.1967, 106.2056
320.6788, 104.6162
321.1609, 106.8286
321.6431, 107.7822
322.1252, 107.7588
322.6073, 109.3970
323.0894, 121.4873
323.5715, 130.3677
324.0536, 124.5850
324.5358, 77.60400
325.0179, 43.54346
325.5000, 37.98242
325.9821, 61.23486
326.4642, 76.25537
326.9464, 76.16943
327.4285, 70.33789
327.9106, 65.29346
328.3927, 66.39209
328.8748, 61.93994
329.3569, 46.98389
329.8391, 22.87939
330.3212, 6.532715
330.8033, 3.580078
331.2854, 4.218262
331.7675, 1.934082
332.2496, 7.162598
332.7318, 12.67529
333.2139, 13.25781
333.6960, 10.04688
334.1781, 6.203125
334.6602, 1.184082
335.1423, 6.531738
335.6245, 5.612305
336.1066, 4.668945
336.5887, 15.54541
337.0708, 27.21045
337.5529, 37.23389
338.0350, 39.97266
338.5172, 32.66650
338.9993, 28.34229
339.4814, 36.73486
339.9635, 60.58350
340.4456, 73.65039
340.9277, 72.62061
341.4099, 63.24805
341.8920, 56.65186
342.3741, 53.75928
342.8562, 48.81006
343.3383, 34.90869
343.8204, 13.32031
344.3026, 4.324707
344.7847, 10.58496
345.2668, 24.53564
345.7489, 38.60742
346.2310, 52.57715
346.7131, 62.22314
347.1953, 69.55176
347.6774, 71.38135
348.1595, 51.32520
348.6416, 7.464844
349.1237, 34.92529
349.6058, 46.71729
350.0880, 34.65967
350.5700, 18.93066
351.0522, 3.193848
351.5343, 9.772949
352.0164, 17.52197
352.4985, 19.79199
352.9806, 12.62695
353.4627, 20.88818
353.9449, 63.58936
354.4270, 86.41113
354.9091, 67.14160
355.3912, 39.28760
355.8733, 31.42041
356.3554, 41.47070
356.8376, 58.23438
357.3197, 80.01807
357.8018, 102.9644
358.2839, 123.2793
358.7660, 139.4375
359.2481, 153.6709
359.7303, 167.5908
360.2124, 180.3516
360.6945, 190.5215
361.1766, 196.9160
361.6587, 200.6196
362.1408, 200.0659
362.6230, 188.5718
363.1051, 188.1899
363.5872, 215.6494
364.0693, 257.3960
364.5514, 288.6230
365.0335, 294.3296
365.5157, 297.4209
365.9978, 304.9536
366.4799, 316.8267
366.9620, 335.4292
367.4441, 370.5000
367.9262, 409.1646
368.4084, 435.1035
368.8905, 434.0967
369.3726, 436.8022
369.8547, 450.9346
370.3368, 478.1138
370.8189, 498.4663
371.3011, 506.1357
371.7832, 512.2153
372.2653, 526.1094
372.7474, 547.6909
373.2295, 577.6333
373.7116, 618.6704
374.1938, 668.8984
374.6759, 712.8628
375.1580, 747.2349
375.6401, 781.4678
376.1222, 823.3076
376.6043, 873.4219
377.0865, 923.1475
377.5686, 973.7388
378.0507, 1021.070
378.5328, 1047.176
379.0149, 1048.796
379.4970, 1057.897
379.9792, 1097.978
380.4613, 1166.188
380.9434, 1226.142
381.4255, 1274.313
381.9076, 1320.878
382.3897, 1385.168
382.8719, 1464.563
383.3540, 1536.659
383.8361, 1587.225
384.3182, 1623.976
384.8003, 1663.547
385.2824, 1706.233
385.7646, 1751.499
386.2467, 1800.388
386.7288, 1851.807
387.2109, 1903.525
387.6930, 1951.183
388.1751, 2001.604
388.6573, 2069.818
389.1394, 2153.871
389.6215, 2227.484
390.1036, 2269.815
390.5857, 2294.522
391.0678, 2315.296
391.5499, 2327.979
392.0320, 2348.101
392.5142, 2391.734
392.9963, 2450.546
393.4784, 2499.629
393.9605, 2522.456
394.4426, 2536.281
394.9247, 2551.041
395.4069, 2570.194
395.8890, 2586.595
396.3711, 2602.797
396.8532, 2614.937
397.3353, 2615.899
397.8174, 2591.982
398.2996, 2568.025
398.7817, 2554.258
399.2638, 2556.198
399.7459, 2546.771
400.2280, 2509.604
400.7101, 2471.151
401.1923, 2460.532
401.6744, 2503.867
402.1565, 2528.693
402.6386, 2517.540
403.1207, 2473.404
403.6028, 2434.796
404.0850, 2403.647
404.5671, 2374.386
405.0492, 2344.149
405.5313, 2314.259
406.0134, 2275.661
406.4955, 2221.344
406.9777, 2163.314
407.4598, 2138.677
407.9419, 2150.075
408.4240, 2168.796
408.9061, 2189.081
409.3882, 2206.277
409.8704, 2183.054
410.3525, 2107.979
410.8346, 2028.811
411.3167, 2021.096
411.7988, 2067.952
412.2809, 2092.767
412.7631, 2047.321
413.2452, 1965.728
413.7273, 1899.525
414.2094, 1848.390
414.6915, 1806.419
415.1736, 1771.646
415.6558, 1742.728
416.1379, 1719.028
416.6200, 1702.750
417.1021, 1688.332
417.5842, 1667.141
418.0663, 1642.854
418.5485, 1630.132
419.0306, 1646.587
419.5127, 1669.989
419.9948, 1685.485
420.4769, 1689.315
420.9590, 1686.458
421.4412, 1668.511
421.9233, 1645.844
422.4054, 1636.438
422.8875, 1663.948
423.3696, 1686.314
423.8517, 1684.869
424.3339, 1650.133
424.8160, 1635.055
425.2981, 1659.389
425.7802, 1690.938
426.2623, 1699.202
426.7444, 1660.694
427.2266, 1641.064
427.7087, 1658.445
428.1908, 1704.514
428.6729, 1726.529
429.1550, 1716.506
429.6371, 1700.775
430.1193, 1697.940
430.6014, 1710.860
431.0835, 1712.708
431.5656, 1698.459
432.0477, 1677.833
432.5298, 1667.744
433.0119, 1668.257
433.4940, 1674.736
433.9762, 1688.505
434.4583, 1706.869
434.9404, 1719.947
435.4225, 1727.401
435.9046, 1731.641
436.3867, 1735.467
436.8689, 1737.846
437.3510, 1735.818
437.8331, 1723.444
438.3152, 1711.238
438.7973, 1715.921
439.2794, 1733.029
439.7616, 1740.383
440.2437, 1712.045
440.7258, 1673.780
441.2079, 1651.135
441.6900, 1656.832
442.1721, 1659.679
442.6543, 1637.522
443.1364, 1603.196
443.6185, 1579.252
444.1006, 1596.200
444.5827, 1604.859
445.0648, 1577.607
445.5470, 1504.426
446.0291, 1453.846
446.5112, 1459.813
446.9933, 1477.546
447.4754, 1468.681
447.9576, 1400.841
448.4397, 1354.426
448.9218, 1343.664
449.4039, 1361.843
449.8860, 1373.848
450.3681, 1380.120
450.8503, 1380.758
451.3324, 1372.509
451.8145, 1352.735
452.2966, 1340.556
452.7787, 1336.181
453.2608, 1340.139
453.7430, 1355.543
454.2251, 1382.177
454.7072, 1410.809
455.1893, 1442.083
455.6714, 1471.588
456.1535, 1480.549
456.6357, 1468.260
457.1178, 1458.270
457.5999, 1480.500
458.0820, 1521.322
458.5641, 1548.343
459.0462, 1547.530
459.5284, 1542.692
460.0105, 1555.584
460.4926, 1583.378
460.9747, 1617.856
461.4568, 1662.011
461.9389, 1707.710
462.4211, 1749.313
462.9032, 1786.396
463.3853, 1820.334
463.8674, 1848.009
464.3495, 1873.754
464.8316, 1902.560
465.3138, 1942.790
465.7959, 1978.437
466.2780, 2002.229
466.7601, 2015.332
467.2422, 2035.588
467.7243, 2073.837
468.2065, 2109.773
468.6886, 2133.570
469.1707, 2141.096
469.6528, 2145.862
470.1349, 2150.045
470.6170, 2150.306
471.0992, 2140.581
471.5813, 2120.379
472.0634, 2093.746
472.5455, 2058.222
473.0276, 2015.533
473.5097, 1968.603
473.9918, 1917.265
474.4739, 1864.781
474.9561, 1818.695
475.4382, 1776.674
475.9203, 1728.130
476.4024, 1672.089
476.8845, 1608.686
477.3666, 1538.045
477.8488, 1462.188
478.3309, 1389.513
478.8130, 1331.046
479.2951, 1274.307
479.7772, 1202.850
480.2593, 1113.139
480.7415, 1029.300
481.2236, 967.1685
481.7057, 917.9165
482.1878, 871.4932
482.6699, 825.7354
483.1520, 781.4614
483.6342, 744.2334
484.1163, 710.8755
484.5984, 665.1235
485.0805, 587.3931
485.5626, 511.2637
486.0447, 450.9790
486.5269, 411.5381
487.0090, 375.4404
487.4911, 341.4424
487.9732, 312.4326
488.4553, 294.1680
488.9374, 292.2041
489.4196, 284.6021
489.9017, 263.2700
490.3838, 231.4272
490.8659, 208.4946
491.3480, 196.1587
491.8301, 183.4243
492.3123, 157.7866
492.7944, 122.9463
493.2765, 100.3955
493.7586, 96.42969
494.2407, 94.37646
494.7228, 65.23828
495.2050, 18.75049
495.6871, 14.93457
496.1692, 12.92627
496.6513, 3.011719
497.1334, 14.27539
497.6155, 20.01514
498.0977, 19.82178
498.5798, 5.889160
499.0619, 9.668457
499.5440, 14.61670
500.0261, 4.048340
500.5082, 16.80762
500.9904, 9.084473
501.4725, 10.26318
501.9546, 21.97900
502.4367, 16.52246
502.9188, 9.739746
503.4009, 4.477051
503.8831, 0.1958010
504.3652, 4.562500
504.8473, 24.89111
505.3294, 44.90723
505.8115, 47.36035
506.2936, 24.79443
506.7758, 17.79443
507.2579, 36.52979
507.7400, 67.73291
508.2221, 78.78564
508.7042, 69.00439
509.1863, 59.56152
509.6685, 64.19336
510.1506, 77.43115
510.6327, 81.95068
511.1148, 77.36865
511.5969, 70.18311
512.0790, 67.55322
512.5612, 66.01611
513.0433, 59.38135
513.5254, 44.18262
514.0075, 26.57324
514.4896, 5.116699
514.9717, 15.71924
515.4539, 24.48975
515.9360, 2.741699
516.4181, 21.09668
516.9002, 32.46387
517.3823, 28.37207
517.8644, 20.66943
518.3466, 5.526367
518.8287, 9.508301
519.3108, 17.83545
519.7929, 15.29102
520.2750, 12.54688
520.7571, 8.688477
521.2393, 5.522461
521.7214, 8.536133
522.2035, 18.18213
522.6856, 32.43018
523.1677, 54.01953
523.6498, 81.88379
524.1320, 95.54150
524.6141, 93.43799
525.0962, 84.05957
525.5783, 71.24805
526.0604, 57.43164
526.5425, 53.88916
527.0247, 68.68604
527.5068, 85.75830
527.9889, 81.72949
528.4710, 62.90625
528.9531, 48.91943
529.4352, 15.67334
529.9174, 63.91260
530.3995, 91.98633
530.8816, 100.9761
531.3637, 33.78027
531.8458, 64.91602
532.3279, 56.61914
532.8101, 46.68604
533.2922, 91.60449
533.7743, 35.38574
534.2564, 79.38818
534.7385, 83.35498
535.2206, 105.6157
535.7027, 88.19922
536.1848, 87.84326
536.6669, 101.0664
537.1490, 110.1685
537.6312, 108.0420
538.1133, 90.99414
538.5954, 73.47314
539.0775, 69.64160
539.5596, 78.46533
540.0417, 88.41016
540.5239, 98.29883
541.0060, 107.9160
541.4881, 119.3706
541.9702, 130.6074
542.4523, 134.8403
542.9344, 117.7700
543.4166, 98.81201
543.8987, 102.4712
544.3808, 127.6948
544.8629, 147.0293
545.3450, 138.2485
545.8271, 121.0356
546.3093, 110.4697
546.7914, 108.0312
547.2735, 115.0845
547.7556, 146.0127
548.2377, 183.8994
548.7198, 198.0835
549.2020, 159.7183
549.6841, 137.4956
550.1662, 154.8906
550.6483, 206.4102
551.1304, 225.7539
551.6125, 203.2754
552.0947, 174.0908
552.5768, 165.0894
553.0589, 175.8184
553.5410, 167.0718
554.0231, 131.8877
554.5052, 95.39795
554.9874, 93.25537
555.4695, 118.0195
555.9516, 144.5649
556.4337, 170.1367
556.9158, 186.9482
557.3979, 178.7969
557.8801, 152.3975
558.3622, 133.9854
558.8443, 145.6343
559.3264, 164.3477
559.8085, 173.4517
560.2906, 170.0381
560.7728, 167.2402
561.2549, 168.4839
561.7370, 171.6123
562.2191, 174.3242
562.7012, 174.9136
563.1833, 174.9507
563.6655, 177.0317
564.1476, 180.7563
564.6297, 179.8833
565.1118, 172.3555
565.5939, 159.2612
566.0760, 140.4355
566.5582, 118.4668
567.0403, 102.7686
567.5224, 92.63623
568.0045, 86.97119
568.4866, 90.99316
568.9688, 100.3936
569.4509, 100.3101
569.9330, 84.64307
570.4151, 67.72412
570.8972, 63.49463
571.3793, 69.26562
571.8615, 78.79736
572.3436, 96.71143
572.8257, 111.4146
573.3078, 112.6572
573.7899, 101.1216
574.2720, 92.74658
574.7542, 96.07080
575.2363, 102.0176
575.7184, 106.0337
576.2005, 108.8149
576.6826, 109.0073
577.1647, 103.6709
577.6469, 97.14502
578.1290, 95.15430
578.6111, 98.47119
579.0932, 105.1440
579.5753, 114.6250
580.0574, 126.8740
580.5396, 146.0498
581.0217, 171.8081
581.5038, 187.8159
581.9859, 181.0034
582.4680, 160.5928
582.9501, 135.7588
583.4323, 106.7070
583.9144, 92.62402
584.3965, 122.3701
584.8786, 166.8623
585.3607, 196.4131
585.8428, 202.2046
586.3250, 196.7925
586.8071, 174.1870
587.2892, 144.1924
587.7713, 126.3174
588.2534, 126.4639
588.7355, 132.4805
589.2177, 147.5332
589.6998, 169.9717
590.1819, 170.2642
590.6640, 138.7417
591.1461, 111.6411
591.6282, 110.2793
592.1104, 136.0332
592.5925, 152.4263
593.0746, 158.5669
593.5567, 157.8120
594.0388, 151.3066
594.5209, 141.0732
595.0031, 132.4102
595.4852, 127.2480
595.9673, 122.9624
596.4494, 120.5522
596.9315, 117.5972
597.4136, 108.2983
597.8958, 75.99365
598.3779, 49.56396
598.8600, 47.19482
599.3421, 68.90820
599.8242, 85.46240
600.3063, 93.15771
600.7885, 93.77783
601.2706, 86.59766
601.7527, 66.50781
602.2348, 54.81592
602.7169, 52.49561
603.1990, 56.89111
603.6812, 66.63867
604.1633, 81.95996
604.6454, 95.47412
605.1275, 106.4966
605.6096, 113.4600
606.0917, 109.5376
606.5739, 97.17578
607.0560, 88.74023
607.5381, 93.17871
608.0202, 103.4609
608.5023, 113.9805
608.9844, 124.2363
609.4666, 130.3584
609.9487, 127.7700
610.4308, 121.9990
610.9129, 116.5869
611.3950, 110.1577
611.8771, 108.5513
612.3593, 119.5728
612.8414, 132.0161
613.3235, 131.8496
