##NAMES=Famatinite
##RRUFFID=R110021
##IDEAL CHEMISTRY=Cu^1+^Cu^2+^_2_Sb^3+^S^2-^_4_
##LOCALITY=Mohawk mine, Goldfield, Esmeralda County, Nevada, USA
##OWNER=RRUFF
##SOURCE=William Pinch
##DESCRIPTION=Pinkish grey, metallic massive associated with dark grey metallic massive to granular goldfieldite, R110023
##STATUS=The identification of this mineral is confirmed by single-crystal X-ray diffraction and chemical analysis.
##URL=rruff.info/R110021
##MEASURED CHEMISTRY=Cu_3.02_(Sb_0.53_As_0.48_)_Î£=1.01_S_4_
178.3506, 0.0000000E+00
178.8328, 0.6326430
179.3149, 1.104700
179.7970, 0.9541970
180.2791, 0.3474370
180.7612, 1.1226000E-02
181.2433, 6.0160998E-02
181.7255, 0.5896380
182.2076, 1.062213
182.6897, 1.897743
183.1718, 2.266827
183.6539, 1.680368
184.1360, 0.8212200
184.6181, 0.2554790
185.1003, 0.2803930
185.5824, 0.7702140
186.0645, 1.168430
186.5466, 1.485601
187.0287, 1.771945
187.5108, 2.087735
187.9930, 2.337889
188.4751, 2.334822
188.9572, 2.074090
189.4393, 2.018124
189.9214, 2.256835
190.4035, 3.340891
190.8857, 3.986017
191.3678, 3.536787
191.8499, 2.451868
192.3320, 1.542804
192.8141, 1.312876
193.2962, 1.660278
193.7784, 1.799987
194.2605, 1.479681
194.7426, 1.376370
195.2247, 2.006481
195.7068, 2.509725
196.1889, 2.895826
196.6711, 2.915788
197.1532, 2.607320
197.6353, 2.261860
198.1174, 1.895504
198.5995, 1.481901
199.0816, 0.9078300
199.5638, 0.2278370
200.0459, 0.2757630
200.5280, 0.5378590
201.0101, 0.4702550
201.4922, 3.3177000E-02
201.9743, 1.218783
202.4565, 2.409965
202.9386, 2.570906
203.4207, 1.683233
203.9028, 0.9372770
204.3849, 1.206953
204.8670, 1.941063
205.3492, 2.349401
205.8313, 2.210917
206.3134, 1.801864
206.7955, 1.422270
207.2776, 1.067659
207.7597, 0.7641210
208.2419, 0.4851690
208.7240, 0.2773420
209.2061, 0.2519870
209.6882, 0.5216880
210.1703, 0.8303140
210.6524, 0.6107450
211.1346, 0.5014670
211.6167, 1.178954
212.0988, 0.8375240
212.5809, 1.4880000E-02
213.0630, 1.050328
213.5451, 2.201983
214.0273, 3.193892
214.5094, 3.280517
214.9915, 1.731971
215.4736, 0.5865350
215.9557, 0.3097370
216.4378, 0.5247200
216.9200, 0.8846840
217.4021, 1.237399
217.8842, 1.619994
218.3663, 2.192303
218.8484, 3.652753
219.3305, 4.213610
219.8127, 2.976495
220.2948, 1.098607
220.7769, 0.2219660
221.2590, 0.4398320
221.7411, 0.1466730
222.2232, 0.6625810
222.7054, 1.085588
223.1875, 1.451517
223.6696, 1.933950
224.1517, 2.302660
224.6338, 2.194729
225.1159, 1.444162
225.5980, 0.3373040
226.0802, 0.2920670
226.5623, 4.2346001E-02
227.0444, 0.2295670
227.5265, 0.5479300
228.0086, 0.8323860
228.4907, 0.9193150
228.9729, 0.7260020
229.4550, 0.4243010
229.9371, 0.4788280
230.4192, 1.123243
230.9013, 1.731546
231.3834, 2.239511
231.8656, 2.647125
232.3477, 2.947645
232.8298, 3.134876
233.3119, 3.229126
233.7940, 3.293861
234.2761, 3.456982
234.7583, 3.330355
235.2404, 2.355806
235.7225, 1.082102
236.2046, 0.5757480
236.6867, 1.318178
237.1688, 2.562979
237.6510, 2.931463
238.1331, 2.312702
238.6152, 1.800877
239.0973, 1.933748
239.5794, 2.428051
240.0615, 2.638519
240.5437, 2.315718
241.0258, 1.825842
241.5079, 1.632767
241.9900, 1.715616
242.4721, 1.930525
242.9542, 2.366785
243.4364, 2.903778
243.9185, 3.179850
244.4006, 3.026608
244.8827, 2.776632
245.3648, 2.787279
245.8469, 3.023436
246.3290, 3.245308
246.8112, 3.278744
247.2933, 3.199459
247.7754, 3.312431
248.2575, 3.869886
248.7396, 4.246954
249.2217, 3.629927
249.7039, 2.354233
250.1860, 1.601723
250.6681, 2.465050
251.1502, 4.441031
251.6323, 5.615618
252.1144, 5.572760
252.5966, 5.226137
253.0787, 5.107855
253.5608, 5.139309
254.0429, 5.133785
254.5250, 4.880611
255.0071, 4.502575
255.4893, 4.511715
255.9714, 5.121279
256.4535, 5.796545
256.9356, 6.405565
257.4177, 6.876343
257.8998, 7.071827
258.3820, 6.818733
258.8641, 6.328918
259.3462, 6.319372
259.8283, 6.995590
260.3104, 7.822742
260.7925, 8.864033
261.2747, 9.872784
261.7568, 10.52935
262.2389, 10.67557
262.7210, 10.38172
263.2031, 9.726088
263.6852, 8.018078
264.1674, 7.201267
264.6495, 8.343353
265.1316, 10.20552
265.6137, 11.47392
266.0958, 11.57363
266.5779, 10.89680
267.0601, 10.30807
267.5422, 9.677729
268.0243, 9.415417
268.5064, 9.726576
268.9885, 10.25273
269.4706, 10.76838
269.9528, 11.25063
270.4349, 11.64288
270.9170, 11.71358
271.3991, 11.29000
271.8812, 10.86384
272.3633, 10.36614
272.8455, 9.944860
273.3276, 9.859711
273.8097, 10.11297
274.2918, 10.31457
274.7739, 9.747934
275.2560, 7.604294
275.7382, 6.455126
276.2202, 7.077190
276.7024, 7.894787
277.1845, 7.819660
277.6666, 6.764977
278.1487, 5.466585
278.6308, 4.843307
279.1129, 5.189646
279.5951, 5.205256
280.0772, 4.594933
280.5593, 3.950903
281.0414, 3.615793
281.5235, 3.567215
282.0056, 3.547009
282.4878, 3.293566
282.9699, 2.751541
283.4520, 2.373007
283.9341, 2.302628
284.4162, 2.229235
284.8983, 1.950167
285.3805, 1.542894
285.8626, 1.255899
286.3447, 1.311327
286.8268, 1.698877
287.3089, 1.771021
287.7910, 1.000994
288.2732, 0.5030630
288.7553, 0.9600660
289.2374, 1.904949
289.7195, 2.309528
290.2016, 1.470465
290.6837, 0.2347390
291.1659, 0.6681400
291.6480, 1.682652
292.1301, 3.530346
292.6122, 4.095695
293.0943, 3.900206
293.5764, 3.616762
294.0586, 3.542191
294.5407, 3.694277
295.0228, 4.124166
295.5049, 5.111151
295.9870, 6.051167
296.4691, 6.841011
296.9513, 7.609253
297.4334, 8.568361
297.9155, 9.770775
298.3976, 10.97289
298.8797, 11.73514
299.3618, 11.57502
299.8440, 11.89362
300.3261, 13.22297
300.8082, 14.68542
301.2903, 15.27777
301.7724, 14.93466
302.2545, 14.79730
302.7367, 16.32645
303.2188, 20.18693
303.7009, 23.16958
304.1830, 24.52895
304.6651, 25.71587
305.1472, 27.46643
305.6294, 29.88471
306.1115, 32.92022
306.5936, 36.62915
307.0757, 41.08479
307.5578, 44.96426
308.0399, 47.97469
308.5221, 50.82027
309.0042, 53.64380
309.4863, 56.53691
309.9684, 59.73459
310.4505, 63.48515
310.9326, 67.58511
311.4148, 70.43036
311.8969, 71.13709
312.3790, 71.83971
312.8611, 73.13225
313.3432, 74.73244
313.8253, 76.15590
314.3075, 77.16995
314.7896, 77.93406
315.2717, 78.87346
315.7538, 80.58158
316.2359, 81.60281
316.7180, 81.34186
317.2001, 80.54797
317.6823, 80.02375
318.1644, 80.00127
318.6465, 80.22537
319.1286, 80.35128
319.6107, 80.49046
320.0928, 80.16671
320.5750, 79.42460
321.0571, 78.20676
321.5392, 76.27925
322.0213, 73.71687
322.5034, 71.04518
322.9855, 68.87051
323.4677, 67.31905
323.9498, 65.25075
324.4319, 62.35866
324.9140, 59.25810
325.3961, 56.44637
325.8782, 53.76132
326.3604, 50.53709
326.8425, 46.21146
327.3246, 40.93615
327.8067, 36.35926
328.2888, 32.43403
328.7709, 29.10881
329.2531, 26.76377
329.7352, 24.99903
330.2173, 23.16252
330.6994, 20.90635
331.1815, 18.33228
331.6636, 15.80274
332.1458, 13.09190
332.6279, 10.77736
333.1100, 8.842493
333.5921, 7.339590
334.0742, 6.471865
334.5563, 6.258104
335.0385, 6.269688
335.5206, 5.885807
336.0027, 4.920000
336.4848, 4.017048
336.9669, 2.964525
337.4490, 2.082413
337.9312, 1.743998
338.4133, 1.875278
338.8954, 1.977062
339.3775, 1.526623
339.8596, 0.4274090
340.3417, 3.0266000E-02
340.8239, 0.7387410
341.3060, 1.450932
341.7881, 1.549369
342.2702, 1.247323
342.7523, 1.027203
343.2344, 1.185801
343.7166, 1.664399
344.1987, 2.181963
344.6808, 2.899032
345.1629, 3.453497
345.6450, 3.785018
346.1271, 3.945473
346.6093, 4.050006
347.0914, 4.078336
347.5735, 3.934659
348.0556, 3.457403
348.5377, 2.132922
349.0198, 1.430160
349.5020, 1.612901
349.9841, 2.132944
350.4662, 2.735658
350.9483, 3.327892
351.4304, 3.857734
351.9125, 4.311427
352.3947, 4.738907
352.8768, 4.880467
353.3589, 4.323675
353.8410, 3.774187
354.3231, 3.532677
354.8052, 3.532818
355.2874, 3.550282
355.7695, 3.416681
356.2516, 3.190695
356.7337, 3.223200
357.2158, 3.840512
357.6979, 4.273472
358.1800, 4.244965
358.6621, 4.032998
359.1443, 3.980021
359.6264, 4.215849
360.1085, 4.528862
360.5906, 4.533885
361.0727, 4.148047
361.5548, 3.657288
362.0370, 2.749832
362.5191, 2.008880
363.0012, 1.979766
363.4833, 2.610607
363.9654, 3.263456
364.4475, 3.168490
364.9297, 2.244344
365.4118, 1.645666
365.8939, 1.434432
366.3760, 1.544628
366.8581, 2.238559
367.3402, 3.207304
367.8224, 3.831989
368.3045, 3.669152
368.7866, 2.983644
369.2687, 2.532144
369.7508, 2.359072
370.2329, 2.355615
370.7151, 2.586900
371.1972, 2.905158
371.6793, 3.228086
372.1614, 3.553370
372.6435, 3.702158
373.1256, 3.361259
373.6078, 2.497365
374.0899, 1.725456
374.5720, 1.144852
375.0541, 0.7328340
375.5362, 0.4764110
376.0183, 0.3771090
376.5005, 0.3982560
376.9826, 0.6255050
377.4647, 0.9348130
377.9468, 0.8616910
378.4289, 0.2424930
378.9110, 0.3697710
379.3932, 0.5594090
379.8753, 0.4888920
380.3574, 0.4593910
380.8395, 0.6594310
381.3216, 0.8537700
381.8037, 0.6850190
382.2859, 0.1439090
382.7680, 0.3353480
383.2501, 0.5953720
383.7322, 0.6510870
384.2143, 0.5273980
384.6964, 0.1570790
385.1786, 0.1668590
385.6607, 0.1689410
386.1428, 1.6732000E-02
386.6249, 4.3664001E-02
387.1070, 0.5459800
387.5891, 1.041681
388.0713, 0.9412320
388.5534, 0.3047150
389.0355, 0.3808990
389.5176, 1.198294
389.9997, 1.908188
390.4818, 2.238508
390.9640, 2.189929
391.4461, 1.997529
391.9282, 1.817866
392.4103, 1.619317
392.8924, 1.263912
393.3745, 0.4580160
393.8567, 0.1718120
394.3388, 0.2678980
394.8209, 2.7047001E-02
395.3030, 0.1786730
395.7851, 0.2125440
396.2672, 0.1559990
396.7494, 0.1487600
397.2315, 0.2009750
397.7136, 0.2845000
398.1957, 0.3556950
398.6778, 0.4867610
399.1599, 0.8612660
399.6420, 1.425209
400.1241, 1.782345
400.6063, 1.509967
401.0884, 0.5720280
401.5705, 0.2283720
402.0526, 1.231421
402.5347, 1.911119
403.0168, 1.432321
403.4990, 0.3575360
403.9811, 0.3518540
404.4632, 0.2293410
404.9453, 0.3965290
405.4274, 0.7245490
405.9095, 0.4745560
406.3917, 0.3920190
406.8738, 0.7139180
407.3559, 1.046128
407.8380, 1.108566
408.3201, 0.8664080
408.8022, 0.4373220
409.2844, 0.1566710
409.7665, 0.9525580
410.2486, 1.254387
410.7307, 0.6248150
411.2128, 5.5964999E-02
411.6949, 0.5149180
412.1771, 0.8559470
412.6592, 1.317610
413.1413, 2.060060
413.6234, 2.840730
414.1055, 3.084747
414.5876, 2.609662
415.0698, 2.154552
415.5519, 1.847056
416.0340, 1.654455
416.5161, 1.550905
416.9982, 1.536749
417.4803, 1.659931
417.9625, 2.120564
418.4446, 2.825034
418.9267, 3.118723
419.4088, 2.861617
419.8909, 2.349657
420.3730, 1.582514
420.8552, 0.7271750
421.3373, 0.1476940
421.8194, 7.0170001E-03
422.3015, 0.1493970
422.7836, 0.4936480
423.2657, 1.035085
423.7479, 1.449111
424.2300, 1.597447
424.7121, 1.550442
425.1942, 1.357870
425.6763, 0.8799830
426.1584, 0.7435940
426.6406, 1.594337
427.1227, 2.868012
427.6048, 3.570733
428.0869, 3.516428
428.5690, 3.199272
429.0511, 3.103503
429.5333, 3.209551
430.0154, 2.954175
430.4975, 1.766614
430.9796, 0.7521450
431.4617, 0.7867210
431.9438, 1.505633
432.4260, 1.907122
432.9081, 1.490633
433.3902, 0.5967010
433.8723, 1.4607000E-02
434.3544, 0.2499760
434.8365, 0.1706100
435.3187, 0.5473200
435.8008, 1.413394
436.2829, 2.109754
436.7650, 2.541115
437.2471, 2.683803
437.7292, 2.487239
438.2114, 1.935948
438.6935, 1.529491
439.1756, 1.407240
439.6577, 1.297040
440.1398, 1.126383
440.6219, 0.9334810
441.1040, 0.7527900
441.5862, 0.6031890
442.0683, 0.5925660
442.5504, 0.9791900
443.0325, 1.983562
443.5146, 2.858303
443.9967, 3.622909
444.4789, 4.018789
444.9610, 3.735908
445.4431, 2.908143
445.9252, 2.046961
446.4073, 1.407954
446.8894, 1.038597
447.3716, 1.344920
447.8537, 2.743088
448.3358, 3.747691
448.8179, 3.262069
449.3000, 2.232797
449.7821, 1.696253
450.2643, 1.943161
450.7464, 2.347274
451.2285, 2.158859
451.7106, 1.455159
452.1927, 1.411688
452.6748, 2.573839
453.1570, 3.828194
453.6391, 3.858181
454.1212, 2.926798
454.6033, 2.155878
455.0854, 1.771535
455.5675, 1.683418
456.0497, 2.010560
456.5318, 2.647552
457.0139, 2.955245
457.4960, 2.481206
457.9781, 1.626137
458.4602, 1.565543
458.9424, 2.842649
459.4245, 3.641084
459.9066, 3.281198
460.3887, 2.500899
460.8708, 2.006966
461.3529, 1.920167
461.8351, 2.030208
462.3172, 2.279972
462.7993, 2.709253
463.2814, 2.686942
463.7635, 1.638295
464.2456, 0.8243410
464.7278, 0.5485410
465.2099, 0.7017780
465.6920, 1.256529
466.1741, 2.181148
466.6562, 3.090003
467.1383, 3.181276
467.6205, 1.968898
468.1026, 1.404682
468.5847, 2.352485
469.0668, 3.358075
469.5489, 3.836660
470.0310, 3.785467
470.5132, 3.337093
470.9953, 2.383476
471.4774, 1.270581
471.9595, 1.033560
472.4416, 1.974056
472.9237, 2.664908
473.4059, 2.318977
473.8880, 1.659471
474.3701, 1.294620
474.8522, 1.293297
475.3343, 1.494232
475.8164, 1.920458
476.2986, 2.460931
476.7807, 2.848736
477.2628, 3.047450
477.7449, 3.118235
478.2270, 3.037387
478.7091, 2.853057
479.1913, 2.767685
479.6734, 3.042960
480.1555, 3.178670
480.6376, 2.842315
481.1197, 2.181302
481.6018, 1.385952
482.0839, 0.4901890
482.5660, 0.1463650
483.0482, 8.9869000E-02
483.5303, 1.655692
484.0124, 2.366482
484.4945, 1.408286
484.9766, 0.4229530
485.4587, 0.3647270
485.9409, 1.003690
486.4230, 1.661138
486.9051, 1.967793
487.3872, 1.978558
487.8693, 1.811119
488.3514, 1.184958
488.8336, 0.9144200
489.3157, 1.303610
489.7978, 1.831630
490.2799, 2.259706
490.7620, 2.505932
491.2441, 2.439584
491.7263, 1.773899
492.2084, 0.7192770
492.6905, 0.3182190
493.1726, 0.7904760
493.6547, 1.468992
494.1368, 2.401998
494.6190, 3.235596
495.1011, 3.530767
495.5832, 3.165438
496.0653, 2.632358
496.5474, 2.262132
497.0295, 2.018524
497.5117, 1.809972
497.9938, 1.635223
498.4759, 1.443295
498.9580, 1.217998
499.4401, 0.9385200
499.9222, 0.5264580
500.4044, 0.5999500
500.8865, 1.260222
501.3686, 0.4548740
501.8507, 1.203476
502.3328, 2.552167
502.8149, 3.202412
503.2971, 3.220785
503.7792, 2.594443
504.2613, 0.9347470
504.7434, 5.5073000E-02
505.2255, 0.3774020
505.7076, 0.9754100
506.1898, 1.772102
506.6719, 2.464735
507.1540, 2.405307
507.6361, 1.211332
508.1182, 0.4575110
508.6003, 0.9805930
509.0825, 0.1675470
509.5646, 1.050806
510.0467, 1.368949
510.5288, 1.474150
511.0109, 1.429610
511.4930, 1.316375
511.9752, 1.344252
512.4573, 1.787900
512.9394, 2.368776
513.4215, 2.328904
513.9036, 1.538282
514.3857, 0.9528230
514.8679, 1.013703
515.3500, 1.418955
515.8321, 1.811770
516.3142, 2.199777
516.7963, 2.439010
517.2784, 2.423930
517.7606, 2.244891
518.2427, 2.006242
518.7248, 1.721511
519.2069, 1.392653
519.6890, 0.9676420
520.1711, 0.5178320
520.6533, 0.4279780
521.1354, 0.9974150
521.6175, 1.466709
522.0996, 1.725749
522.5817, 1.812395
523.0638, 1.712018
523.5460, 1.456456
524.0281, 1.171700
524.5102, 0.9667910
524.9923, 0.8434910
525.4744, 0.8795950
525.9565, 1.337115
526.4387, 1.605452
526.9208, 1.406574
527.4029, 1.123905
527.8850, 1.039221
528.3671, 1.161211
528.8492, 1.360358
529.3314, 1.721157
529.8135, 2.234323
530.2956, 2.397463
530.7777, 1.942675
531.2598, 1.634721
531.7419, 2.291429
532.2241, 3.336811
532.7062, 3.826298
533.1883, 3.467253
533.6704, 2.773012
534.1525, 1.779464
534.6346, 0.7411640
535.1168, 0.3475860
535.5989, 0.7937980
536.0810, 1.486829
536.5631, 1.884222
537.0452, 1.971101
537.5273, 1.827380
538.0095, 1.166630
538.4916, 0.6156910
538.9737, 0.4717590
539.4558, 0.5598530
539.9379, 0.5740840
540.4200, 0.4072200
540.9022, 0.3023080
541.3843, 0.6200990
541.8664, 1.505601
542.3485, 1.913800
542.8306, 1.237854
543.3127, 0.7274790
543.7948, 0.9833590
544.2769, 1.590986
544.7590, 1.878884
545.2411, 1.575245
545.7233, 1.090508
546.2054, 0.9143870
546.6875, 1.030686
547.1696, 1.224271
547.6517, 1.491792
548.1339, 1.773815
548.6160, 2.173068
549.0981, 2.567709
549.5802, 2.536971
550.0623, 1.434514
550.5444, 0.4880390
551.0266, 0.7527960
551.5087, 1.750365
551.9908, 2.323155
552.4729, 2.107368
552.9550, 1.717646
553.4371, 2.002210
553.9193, 3.213612
554.4014, 3.520511
554.8835, 1.797280
555.3656, 0.5477710
555.8477, 1.236287
556.3298, 2.789534
556.8120, 3.527604
557.2941, 2.854464
557.7762, 1.571260
558.2583, 0.6740280
558.7404, 0.1788330
559.2225, 0.1174340
559.7047, 0.8155370
560.1868, 1.454664
560.6689, 1.588373
561.1510, 1.445088
561.6331, 1.442227
562.1152, 1.772456
562.5974, 2.072476
563.0795, 1.876041
563.5616, 1.358159
564.0437, 1.208321
564.5258, 1.614337
565.0079, 2.175078
565.4901, 2.618158
565.9722, 2.876877
566.4543, 2.744260
566.9364, 1.934459
567.4185, 1.209214
567.9006, 0.8745370
568.3828, 0.8154750
568.8649, 0.8924120
569.3470, 1.055184
569.8291, 1.267933
570.3112, 1.483559
570.7933, 1.699188
571.2755, 1.992496
571.7576, 2.562067
572.2397, 2.953396
572.7218, 2.961680
573.2039, 2.791571
573.6860, 2.664829
574.1682, 2.637105
574.6503, 2.638646
575.1324, 2.687549
575.6145, 2.726190
576.0966, 2.385522
576.5787, 1.489271
577.0609, 0.8417250
577.5430, 1.190683
578.0251, 2.055271
578.5072, 2.211643
578.9893, 1.195610
579.4714, 0.4653900
579.9536, 0.8845730
580.4357, 1.733361
580.9178, 2.092682
581.3999, 1.888544
581.8820, 1.673862
582.3641, 1.920447
582.8463, 2.468644
583.3284, 2.380452
583.8105, 1.114401
584.2926, 2.9851001E-02
584.7747, 1.349960
585.2568, 2.229167
585.7390, 1.962932
586.2211, 0.7158170
586.7032, 0.6004340
587.1853, 1.330873
587.6674, 1.670282
588.1495, 2.236091
588.6317, 3.142160
589.1138, 3.536772
589.5959, 2.882167
590.0780, 1.833612
590.5601, 1.092992
591.0422, 0.6538200
591.5244, 0.5102010
592.0065, 1.004617
592.4886, 1.526172
592.9707, 1.385838
593.4528, 0.7654820
593.9349, 0.3031560
594.4171, 0.2712750
594.8992, 0.6197000
595.3813, 1.356654
595.8634, 2.942544
596.3455, 3.513269
596.8276, 2.134752
597.3098, 0.8699860
597.7919, 0.7575170
598.2740, 1.306821
598.7561, 1.598877
599.2382, 1.254628
599.7203, 0.6603560
600.2025, 0.2052650
600.6846, 0.1037040
601.1667, 0.1568500
601.6488, 1.363944
602.1309, 2.469781
602.6130, 2.680516
603.0952, 2.283331
603.5773, 1.748568
604.0594, 0.8802150
604.5415, 0.3643900
605.0236, 0.8182150
605.5057, 1.742121
605.9879, 2.414543
606.4700, 2.707017
606.9521, 2.764854
607.4342, 2.685030
607.9163, 2.482674
608.3984, 2.265979
608.8806, 1.909524
609.3627, 1.721400
609.8448, 1.847838
610.3269, 2.056117
610.8090, 2.216748
611.2911, 2.299162
611.7733, 2.253926
612.2554, 2.023492
612.7375, 1.672637
613.2196, 1.293395
613.7017, 0.8684610
614.1838, 0.5503500
614.6660, 0.2419550
615.1481, 0.2347170
615.6302, 1.206583
616.1123, 3.068091
616.5944, 4.133099
617.0765, 3.348978
617.5587, 2.334755
618.0408, 2.310591
618.5229, 2.876780
619.0050, 3.028950
619.4871, 2.422850
619.9692, 1.582592
620.4514, 1.215566
620.9335, 1.381618
621.4156, 1.556920
621.8977, 1.789674
622.3798, 1.972421
622.8619, 1.967447
623.3441, 1.952435
623.8262, 2.145874
624.3083, 2.595719
624.7904, 3.140676
625.2725, 3.859544
625.7546, 4.545646
626.2367, 4.402135
626.7188, 3.291487
627.2009, 2.573020
627.6830, 3.212576
628.1652, 4.481750
628.6473, 4.551747
629.1294, 2.901297
629.6115, 1.946175
630.0936, 2.356183
630.5757, 3.301325
631.0579, 4.487685
631.5400, 5.684777
632.0221, 6.488614
632.5042, 6.684819
632.9863, 6.517985
633.4684, 6.413433
633.9506, 6.372646
634.4327, 6.382241
634.9148, 6.427103
635.3969, 6.551564
635.8790, 7.016533
636.3611, 7.543302
636.8433, 7.600195
637.3254, 6.937585
637.8075, 6.169844
638.2896, 5.483758
638.7717, 5.127242
639.2538, 5.762427
639.7360, 7.328127
640.2181, 8.537485
640.7002, 8.439363
641.1823, 7.356798
641.6644, 6.599669
642.1465, 6.246691
642.6287, 6.090281
643.1108, 6.299343
643.5929, 6.609248
644.0750, 7.106710
644.5571, 7.569578
645.0392, 7.516987
645.5214, 6.600966
646.0035, 5.387334
646.4856, 4.808321
646.9677, 4.862438
647.4498, 5.284583
647.9319, 6.330719
648.4141, 7.105140
648.8962, 6.504863
649.3783, 4.969883
649.8604, 4.204192
650.3425, 5.028895
650.8246, 5.700611
651.3068, 5.330806
651.7889, 4.538858
652.2710, 3.968968
652.7531, 3.769343
653.2352, 4.000946
653.7173, 4.798064
654.1995, 5.919609
654.6816, 6.343861
655.1637, 5.893240
655.6458, 5.164614
656.1279, 3.754642
656.6100, 2.506987
657.0922, 1.936416
657.5743, 1.955870
658.0564, 2.217317
658.5385, 2.772681
659.0206, 3.254966
659.5027, 3.182254
659.9849, 2.750415
660.4670, 2.563748
660.9491, 2.768945
661.4312, 2.949051
661.9133, 2.629690
662.3954, 1.892461
662.8776, 1.902542
663.3597, 3.862506
663.8418, 4.989004
664.3239, 4.562633
664.8060, 3.547202
665.2881, 2.514331
665.7703, 1.629799
666.2524, 1.041034
666.7345, 0.9312360
667.2166, 1.027453
667.6987, 0.7438540
668.1808, 9.6849002E-02
668.6630, 0.2890890
669.1451, 0.2415060
669.6272, 4.4218000E-02
670.1093, 0.4180230
670.5914, 0.8816800
671.0735, 1.388000
671.5557, 2.413739
672.0378, 2.897541
672.5199, 1.917806
673.0020, 0.5561070
673.4841, 4.6771001E-02
673.9662, 0.4920320
674.4484, 1.208576
674.9305, 1.605819
675.4126, 1.767193
675.8947, 1.791271
676.3768, 1.630905
676.8589, 1.537295
677.3411, 1.527275
677.8232, 1.641431
678.3053, 2.059537
678.7874, 2.646997
679.2695, 2.890791
679.7516, 2.445946
680.2338, 1.918891
680.7159, 1.575437
681.1980, 1.415414
681.6801, 1.479834
682.1622, 1.753057
682.6443, 2.120344
683.1265, 2.523046
683.6086, 2.897715
684.0907, 2.923775
684.5728, 2.471850
685.0549, 1.954011
685.5370, 1.265344
686.0192, 0.7695860
686.5013, 0.4663140
686.9834, 0.4263430
687.4655, 0.7384510
687.9476, 1.625669
688.4297, 2.508813
688.9119, 2.798362
689.3940, 2.713051
689.8761, 2.825686
690.3582, 3.234541
690.8403, 3.249957
691.3224, 2.187556
691.8046, 0.4194290
692.2867, 0.2730780
692.7688, 1.058371
693.2509, 1.960029
693.7330, 2.269731
694.2151, 2.208347
694.6973, 1.786420
695.1794, 1.111988
695.6615, 0.2853780
696.1436, 0.8070840
696.6257, 1.491098
697.1078, 0.5715450
697.5900, 1.402593
698.0721, 2.486244
698.5542, 2.374254
699.0363, 1.722266
699.5184, 0.7497610
700.0005, 0.2724470
700.4827, 0.3568390
700.9648, 1.436303
701.4469, 2.641922
701.9290, 2.970973
702.4111, 2.947598
702.8932, 2.728966
703.3754, 2.429689
703.8575, 2.167483
704.3396, 1.985157
704.8217, 1.950503
705.3038, 2.315417
705.7859, 2.937055
706.2681, 3.088354
706.7502, 2.668996
707.2323, 2.050995
707.7144, 1.324531
708.1965, 0.6237230
708.6786, 0.3109710
709.1607, 0.5048590
709.6428, 0.6089770
710.1249, 0.5085410
710.6071, 0.4369550
711.0892, 0.4915740
711.5713, 0.6778310
712.0534, 1.026995
712.5355, 1.541651
713.0176, 2.066205
713.4998, 2.515625
713.9819, 2.845117
714.4640, 2.717638
714.9461, 2.037364
715.4282, 1.524497
715.9103, 1.600082
716.3925, 1.871437
716.8746, 1.619606
717.3567, 0.7312640
717.8388, 0.3593520
718.3209, 1.142176
718.8030, 1.870157
719.2852, 1.857846
719.7673, 1.494999
720.2494, 1.352987
720.7315, 1.551402
721.2136, 1.836554
721.6957, 1.963455
722.1779, 1.886405
722.6600, 1.521915
723.1421, 0.7802570
723.6242, 0.6364100
724.1063, 1.761790
724.5884, 2.957731
725.0706, 2.712425
725.5527, 1.165955
726.0348, 0.2654760
726.5169, 0.4992730
726.9990, 0.9044800
727.4811, 1.243406
727.9633, 1.535699
728.4454, 1.851789
728.9275, 2.165726
729.4096, 2.371449
729.8917, 2.424254
730.3738, 2.252975
730.8560, 1.466682
731.3381, 2.9013000E-02
731.8202, 0.5473080
732.3023, 0.2656530
732.7844, 1.282693
733.2665, 1.681645
733.7487, 1.578828
734.2308, 1.473139
734.7129, 1.392970
735.1950, 1.258182
735.6771, 0.8765360
736.1592, 0.5818530
736.6414, 0.6658890
737.1235, 1.056106
737.6056, 1.552278
738.0877, 2.071526
738.5698, 2.547527
739.0519, 2.857008
739.5341, 3.022853
740.0162, 3.333509
740.4983, 3.897547
740.9804, 4.164618
741.4625, 3.853549
741.9446, 3.065948
742.4268, 1.749063
742.9089, 0.4211850
743.3910, 1.461766
743.8731, 0.2322090
744.3552, 1.100228
744.8373, 1.586245
745.3195, 1.482008
745.8016, 1.026424
746.2837, 0.3847030
746.7658, 5.0648000E-02
747.2479, 0.6356840
747.7300, 1.765540
748.2122, 2.420917
748.6943, 2.597283
749.1764, 2.632252
749.6585, 2.624167
750.1406, 2.472061
750.6227, 2.065919
751.1049, 1.402359
751.5870, 0.9225640
752.0691, 0.5475140
752.5512, 0.4447670
753.0333, 0.7572210
753.5154, 1.264513
753.9976, 1.939586
754.4797, 2.604461
754.9618, 2.876534
755.4439, 2.406575
755.9260, 1.679965
756.4081, 1.380110
756.8903, 1.415984
757.3724, 1.435575
757.8545, 1.379187
758.3366, 1.244188
758.8187, 0.9982920
759.3008, 0.7454700
759.7830, 0.8402510
760.2651, 1.639746
760.7472, 1.932837
761.2293, 1.078764
761.7114, 0.4674560
762.1935, 1.002031
762.6757, 1.959311
763.1578, 2.315263
763.6399, 1.849265
764.1220, 1.214073
764.6041, 0.8416980
765.0862, 0.6030820
765.5684, 0.1992360
766.0505, 0.2812400
766.5326, 0.3224100
767.0147, 0.2579830
767.4968, 1.019510
767.9789, 1.503901
768.4611, 1.746881
768.9432, 1.706647
769.4253, 1.005833
769.9074, 0.6218750
770.3895, 0.9395690
770.8716, 1.393522
771.3538, 1.574784
771.8359, 1.583613
772.3180, 1.764214
772.8001, 2.384212
773.2822, 2.916492
773.7643, 3.022215
774.2465, 2.803106
774.7286, 2.206378
775.2107, 1.375230
775.6928, 0.9636740
776.1749, 1.369978
776.6570, 2.071604
777.1392, 1.987227
777.6213, 0.9702350
778.1034, 0.2038360
778.5855, 0.3726700
779.0676, 0.5509010
779.5497, 9.7324997E-02
780.0319, 1.000915
780.5140, 1.377803
780.9961, 1.176605
781.4782, 1.050883
781.9603, 1.277062
782.4424, 1.494587
782.9246, 1.379630
783.4067, 1.175006
783.8888, 1.352322
784.3709, 1.918260
784.8530, 2.319811
785.3351, 2.047087
785.8173, 1.415342
786.2994, 1.257860
786.7815, 1.576336
787.2636, 1.759736
787.7457, 1.689002
788.2278, 1.481359
788.7100, 1.124216
789.1921, 0.7136310
789.6742, 0.6627710
790.1563, 1.368558
790.6384, 1.870368
791.1205, 1.802600
791.6026, 1.838408
792.0847, 2.695728
792.5668, 3.799250
793.0490, 4.104419
793.5311, 3.314832
794.0132, 2.285584
794.4953, 1.538028
794.9774, 1.098767
795.4595, 1.188725
795.9417, 1.697646
796.4238, 2.003856
796.9059, 1.904370
797.3880, 1.510425
797.8701, 0.8301940
798.3522, 7.0750996E-02
798.8344, 1.0261000E-02
799.3165, 1.802723
799.7986, 3.053924
800.2807, 2.950046
800.7628, 2.519489
801.2449, 2.400089
801.7271, 2.563322
802.2092, 2.395884
802.6913, 1.536541
803.1734, 0.8232280
803.6555, 0.8947320
804.1376, 1.183177
804.6198, 0.9105780
805.1019, 0.3149900
805.5840, 0.2617050
806.0661, 1.117133
806.5482, 2.149488
807.0303, 2.337728
807.5125, 1.777079
807.9946, 1.347473
808.4767, 1.058847
808.9588, 0.8229290
809.4409, 0.5644870
809.9230, 0.4222130
810.4052, 0.5625190
810.8873, 0.9907810
811.3694, 1.526400
811.8515, 2.440112
812.3336, 3.090800
812.8157, 3.480060
813.2979, 3.451077
813.7800, 2.436722
814.2621, 0.9187860
814.7442, 0.1896410
815.2263, 0.8967080
815.7084, 1.976386
816.1906, 2.546826
816.6727, 2.645748
817.1548, 2.323233
817.6369, 1.694932
818.1190, 1.591987
818.6011, 2.439422
819.0833, 3.384378
819.5654, 3.076200
820.0475, 1.442088
820.5296, 0.6959290
821.0117, 1.378382
821.4938, 1.828080
821.9760, 1.415554
822.4581, 0.7835710
822.9402, 0.3852080
823.4223, 0.2177300
823.9044, 0.2319580
824.3865, 0.7668040
824.8687, 1.041451
825.3508, 0.3081130
825.8329, 0.5422580
826.3150, 0.5214660
826.7971, 0.1600610
827.2792, 0.7202860
827.7614, 0.8158370
828.2435, 0.6417880
828.7256, 0.2360210
829.2077, 0.2408360
829.6898, 7.1900003E-02
830.1719, 0.7570980
830.6541, 1.631610
831.1362, 2.343677
831.6183, 2.783089
832.1004, 2.905874
832.5825, 2.714940
833.0646, 2.387835
833.5468, 1.652390
834.0289, 1.214540
834.5110, 1.337778
834.9931, 1.597305
835.4752, 1.782856
835.9573, 1.884841
836.4395, 1.892282
836.9216, 1.821155
837.4037, 1.751102
837.8858, 1.463117
838.3679, 1.296914
838.8500, 1.916566
839.3322, 2.927530
839.8143, 3.237847
840.2964, 2.506614
840.7785, 1.466678
841.2606, 0.8710180
841.7427, 0.6475280
842.2249, 0.5441760
842.7070, 0.5384180
843.1891, 0.6701490
843.6712, 0.9943490
844.1533, 1.293695
844.6354, 1.348125
845.1176, 1.582516
845.5997, 1.762017
846.0818, 1.745317
846.5639, 1.977527
847.0460, 1.871430
847.5281, 1.644598
848.0103, 1.110226
848.4924, 0.6452160
848.9745, 1.010771
849.4566, 2.353220
849.9387, 3.229090
850.4208, 2.313929
850.9030, 1.132854
851.3851, 1.150648
851.8672, 1.910729
852.3493, 2.572383
852.8314, 2.926969
853.3135, 3.123313
853.7957, 3.201660
854.2778, 3.118525
854.7599, 2.831669
855.2420, 2.381154
855.7241, 1.755267
856.2062, 0.8486270
856.6884, 0.2909850
857.1705, 0.5677050
857.6526, 1.190695
858.1347, 1.215712
858.6168, 0.4109970
859.0989, 6.0548998E-02
859.5811, 0.6997960
860.0632, 1.088161
860.5453, 0.5901550
861.0274, 6.5700002E-03
861.5095, 6.1230998E-02
861.9916, 0.7126410
862.4738, 1.339798
862.9559, 1.829201
863.4380, 2.063716
863.9201, 1.786936
864.4022, 1.332751
864.8843, 1.015885
865.3665, 0.9033840
865.8486, 1.152110
866.3307, 1.811110
866.8128, 2.428800
867.2949, 2.378564
867.7770, 1.814561
868.2592, 1.345318
868.7413, 0.9697600
869.2234, 0.9480110
869.7055, 1.450010
870.1876, 1.893727
870.6697, 1.676601
871.1519, 0.9503260
871.6340, 0.5893530
872.1161, 0.9389580
872.5981, 0.9902520
873.0803, 6.1322998E-02
873.5624, 0.5581300
874.0445, 0.7217230
874.5266, 2.691915
875.0087, 3.801933
875.4908, 3.847195
875.9730, 3.432613
876.4551, 2.261685
876.9372, 1.230328
877.4193, 0.9515910
877.9014, 1.105207
878.3835, 1.346536
878.8657, 1.562869
879.3478, 1.654863
879.8299, 1.542550
880.3120, 1.362433
880.7941, 1.307429
881.2762, 1.351123
881.7584, 1.347074
882.2405, 1.274566
882.7226, 1.270225
883.2047, 1.390683
883.6868, 1.548737
884.1689, 1.698962
884.6511, 1.873540
885.1332, 2.164900
885.6153, 2.739935
886.0974, 2.965917
886.5795, 2.651431
887.0616, 2.023878
887.5438, 0.8920550
888.0259, 0.3751460
888.5080, 0.5669490
888.9901, 1.003932
889.4722, 2.062403
889.9543, 2.038048
890.4365, 1.699517
890.9186, 1.089498
891.4007, 0.6011840
891.8828, 0.9272890
892.3649, 2.028222
892.8470, 2.827467
893.3292, 2.556565
893.8113, 1.958811
894.2934, 1.540625
894.7755, 1.380604
895.2576, 1.849186
895.7397, 2.788379
896.2219, 3.348701
896.7040, 3.074832
897.1861, 2.459195
897.6682, 2.328699
898.1503, 2.567034
898.6324, 1.995817
899.1146, 0.5139500
899.5967, 0.1338110
900.0788, 0.7894510
900.5609, 2.028798
901.0430, 2.445904
901.5251, 2.158126
902.0073, 1.872310
902.4894, 1.418993
902.9715, 1.323039
903.4536, 2.119534
903.9357, 2.680023
904.4178, 2.279881
904.9000, 1.468105
905.3821, 0.9678790
905.8642, 0.8453650
906.3463, 0.8764560
906.8284, 1.061123
907.3105, 1.324753
907.7927, 1.813266
908.2748, 2.232410
908.7569, 2.314559
909.2390, 2.040440
909.7211, 1.392580
910.2032, 0.2751320
910.6854, 0.6677970
911.1675, 0.9162640
911.6496, 0.5705030
912.1317, 0.6337560
912.6138, 2.297550
913.0959, 3.002077
913.5781, 2.377452
914.0602, 1.531954
914.5423, 1.496573
915.0244, 2.025964
915.5065, 2.347244
915.9886, 2.457646
916.4708, 2.956137
916.9529, 4.072566
917.4350, 4.682009
917.9171, 4.004738
918.3992, 2.771760
918.8813, 2.319239
919.3635, 2.820452
919.8456, 2.758318
920.3277, 1.518575
920.8098, 0.7252880
921.2919, 1.065775
921.7740, 1.656991
922.2562, 1.875360
922.7383, 1.850752
923.2204, 2.053218
923.7025, 2.806270
924.1846, 3.087591
924.6667, 2.020293
925.1489, 1.069266
925.6310, 1.396493
926.1131, 2.242191
926.5952, 2.447006
927.0773, 1.917286
927.5594, 1.533680
928.0416, 1.957676
928.5237, 2.425388
929.0058, 2.236579
929.4879, 1.636307
929.9700, 0.7836630
930.4521, 0.1177180
930.9343, 0.4276680
931.4164, 7.8433000E-02
931.8985, 0.7328750
932.3806, 0.4895660
932.8627, 0.2750730
933.3448, 0.2693450
933.8270, 0.4403320
934.3091, 1.231110
934.7912, 1.994678
935.2733, 2.248994
935.7554, 1.516742
936.2375, 0.3890110
936.7197, 0.4816350
937.2018, 2.217312
937.6839, 2.621944
938.1660, 1.040129
938.6481, 0.2110440
939.1302, 0.2767520
939.6124, 0.1658220
940.0945, 0.4966810
940.5766, 0.7251960
941.0587, 0.9407180
941.5408, 1.198183
942.0229, 1.360562
942.5051, 1.387950
942.9872, 1.355409
943.4693, 1.092434
943.9514, 0.8997680
944.4335, 1.443511
944.9156, 2.736943
945.3978, 3.272778
945.8799, 1.751107
946.3620, 0.2656490
946.8441, 5.1576000E-02
947.3262, 0.3275860
947.8083, 0.3968550
948.2905, 0.2466980
948.7726, 4.4101000E-02
949.2547, 0.1521160
949.7368, 0.1906710
950.2189, 0.1101680
950.7010, 0.5995720
951.1832, 1.185988
951.6653, 1.772403
952.1474, 2.091715
952.6295, 2.135632
953.1116, 2.201862
953.5938, 2.496356
954.0759, 2.815825
954.5580, 2.771097
955.0400, 2.440180
955.5222, 2.340066
956.0043, 2.471687
956.4864, 2.016695
956.9685, 0.6058880
957.4506, 0.4485050
957.9327, 0.3277570
958.4149, 2.343431
958.8970, 3.045384
959.3791, 2.156191
959.8612, 1.289052
960.3433, 0.3692900
960.8254, 1.1382000E-02
961.3076, 0.8036480
961.7897, 1.925374
962.2718, 2.175221
962.7539, 1.526760
963.2360, 1.410800
963.7181, 2.550687
964.2003, 3.101653
964.6824, 2.120327
965.1645, 1.346178
965.6466, 2.305960
966.1287, 3.845643
966.6108, 3.733757
967.0930, 1.554688
967.5751, 0.1111570
968.0572, 0.2432850
968.5393, 0.8533150
969.0214, 2.221761
969.5035, 3.410698
969.9857, 3.296230
970.4678, 2.258158
970.9499, 1.468620
971.4320, 1.266883
971.9141, 1.549090
972.3962, 2.846888
972.8784, 4.030172
973.3605, 3.917106
973.8426, 3.097788
974.3247, 2.445510
974.8068, 2.123239
975.2889, 1.973560
975.7711, 1.926552
976.2532, 1.941558
976.7353, 2.071744
977.2174, 2.182137
977.6995, 1.832726
978.1816, 1.230948
978.6638, 1.266922
979.1459, 2.107919
979.6280, 2.877888
980.1101, 2.853346
980.5922, 2.369575
981.0743, 2.030624
981.5565, 1.842824
982.0386, 1.895078
982.5207, 2.185480
983.0028, 2.482205
983.4849, 2.710998
983.9670, 2.718860
984.4492, 2.248190
984.9313, 1.521014
985.4134, 1.647004
985.8955, 2.868145
986.3776, 3.171435
986.8597, 2.100307
987.3419, 1.061590
987.8240, 0.6929820
988.3061, 0.7885640
988.7882, 1.162612
989.2703, 1.855429
989.7524, 1.999400
990.2346, 1.199654
990.7167, 0.7638240
991.1988, 1.308822
991.6809, 1.734002
992.1630, 1.122070
992.6451, 0.1176960
993.1273, 5.9967000E-02
993.6094, 0.7304040
994.0915, 1.303286
994.5736, 1.299031
995.0557, 1.559189
995.5378, 2.785143
996.0200, 3.793122
996.5021, 3.611275
996.9842, 2.684099
997.4663, 1.963420
997.9484, 1.508683
998.4305, 1.183910
998.9127, 1.264171
999.3948, 1.469338
999.8769, 1.825281
1000.359, 2.135667
1000.841, 2.160184
1001.323, 1.994721
1001.805, 1.951597
1002.287, 2.155805
1002.770, 2.204084
1003.252, 1.826427
1003.734, 1.287848
1004.216, 0.4817830
1004.698, 0.1857520
1005.180, 6.1849998E-03
1005.662, 0.8537440
1006.144, 1.391702
1006.627, 1.172209
1007.109, 0.8180510
1007.591, 0.7799540
1008.073, 0.9613010
1008.555, 1.326204
1009.037, 1.771160
1009.519, 2.229656
1010.001, 2.593772
1010.483, 2.469278
1010.966, 1.563844
1011.448, 0.5692940
1011.930, 0.2156280
1012.412, 0.4008760
1012.894, 1.276183
1013.376, 2.493850
1013.858, 2.867534
1014.340, 2.206960
1014.823, 1.343135
1015.305, 0.8015790
1015.787, 0.5863430
1016.269, 0.6502060
1016.751, 0.9625620
1017.233, 1.463861
1017.715, 2.121794
1018.197, 2.850908
1018.679, 3.612021
1019.162, 3.888047
1019.644, 3.183769
1020.126, 1.975310
1020.608, 1.333205
1021.090, 1.220403
1021.572, 1.050653
1022.054, 0.7894680
1022.536, 0.8943830
1023.018, 1.546488
1023.501, 2.306509
1023.983, 2.799216
1024.465, 3.064173
1024.947, 3.215574
1025.429, 3.248736
1025.911, 3.201502
1026.393, 3.054602
1026.875, 2.981608
1027.358, 3.127604
1027.840, 3.046075
1028.322, 2.164025
1028.804, 0.8140570
1029.286, 0.4590920
1029.768, 1.386623
1030.250, 2.163939
1030.732, 2.893916
1031.214, 3.059633
1031.697, 2.236820
1032.179, 1.198592
1032.661, 0.7123590
1033.143, 0.6800410
1033.625, 0.5764020
1034.107, 0.1816960
1034.589, 0.3248160
1035.071, 1.549833
1035.553, 2.306807
1036.036, 1.677357
1036.518, 0.7776380
1037.000, 0.7890710
1037.482, 1.545003
1037.964, 2.009682
1038.446, 2.015463
1038.928, 2.072403
1039.410, 2.344859
1039.893, 2.445570
1040.375, 2.239942
1040.857, 1.808695
1041.339, 0.9937200
1041.821, 4.1999999E-02
1042.303, 0.3775560
1042.785, 0.3331300
1043.267, 1.095779
1043.750, 2.349526
1044.232, 3.053102
1044.714, 2.343227
1045.196, 1.298467
1045.678, 1.085887
1046.160, 1.503557
1046.642, 1.377614
1047.124, 5.5663001E-02
1047.606, 0.5479080
1048.089, 1.250381
1048.571, 2.746044
1049.053, 2.695037
1049.535, 2.017946
1050.017, 1.462428
1050.499, 1.113732
1050.981, 1.041818
1051.463, 1.400879
1051.945, 1.655539
1052.428, 1.594811
1052.910, 1.719110
1053.392, 2.642947
1053.874, 3.301768
1054.356, 1.741351
1054.838, 1.132665
1055.320, 2.076838
1055.802, 0.2765710
1056.285, 1.957477
1056.767, 1.142473
1057.249, 0.2194710
1057.731, 0.2002260
1058.213, 0.7522230
1058.695, 1.927357
1059.177, 3.293754
1059.659, 3.640702
1060.141, 2.409164
1060.624, 1.504522
1061.106, 1.926020
1061.588, 2.425074
1062.070, 2.233931
1062.552, 1.910200
1063.034, 2.058115
1063.516, 2.582595
1063.998, 3.179011
1064.480, 3.835655
1064.963, 4.078110
1065.445, 3.584725
1065.927, 2.794150
1066.409, 1.426300
1066.891, 0.2923750
1067.373, 0.4760190
1067.855, 1.472348
1068.337, 1.874729
1068.820, 1.300706
1069.302, 1.107156
1069.784, 2.482749
1070.266, 3.622239
1070.748, 3.309470
1071.230, 2.567514
1071.712, 2.395346
1072.194, 2.550026
1072.677, 2.196831
1073.159, 1.176236
1073.641, 0.6214210
1074.123, 1.386890
1074.605, 2.277838
1075.087, 2.752582
1075.569, 3.028679
1076.051, 3.319695
1076.533, 3.553199
1077.016, 3.616808
1077.498, 3.472220
1077.980, 2.974012
1078.462, 1.460567
1078.944, 0.4503220
1079.426, 1.343147
1079.908, 2.379713
1080.390, 1.778675
1080.872, 0.5205500
1081.354, 0.4483180
1081.837, 1.654533
1082.319, 2.447693
1082.801, 1.900616
1083.283, 1.400565
1083.765, 1.647146
1084.247, 2.119618
1084.729, 2.576664
1085.211, 2.939262
1085.694, 3.231532
1086.176, 3.381978
1086.658, 3.056787
1087.140, 1.904025
1087.622, 0.9555170
1088.104, 0.2697370
1088.586, 0.3369900
1089.068, 2.471600
1089.551, 4.814836
1090.033, 4.988721
1090.515, 3.365056
1090.997, 1.871178
1091.479, 0.8798350
1091.961, 0.6645930
1092.443, 2.196791
1092.925, 3.472625
1093.407, 3.330797
1093.890, 2.523993
1094.372, 1.260303
1094.854, 0.1001150
1095.336, 0.4547170
1095.818, 2.782485
1096.300, 4.269986
1096.782, 3.297509
1097.264, 2.322315
1097.746, 2.505565
1098.229, 2.875678
1098.711, 2.517452
1099.193, 1.823842
1099.675, 1.683832
1100.157, 2.201180
1100.639, 2.495105
1101.121, 1.981609
1101.603, 1.677768
1102.086, 1.998688
1102.568, 2.459060
1103.050, 3.013537
1103.532, 3.368444
1104.014, 3.002881
1104.496, 1.978281
1104.978, 1.250541
1105.460, 0.7609400
1105.943, 0.9353050
1106.425, 2.620753
1106.907, 3.955698
1107.389, 3.876167
1107.871, 3.212278
1108.353, 3.009642
1108.835, 3.064338
1109.317, 2.086989
1109.799, 1.322678
1110.281, 2.519054
1110.764, 1.563293
1111.246, 4.266020
1111.728, 2.095435
1112.210, 0.6841400
1112.692, 0.6262880
1113.174, 1.300464
1113.656, 2.759504
1114.138, 3.534419
1114.621, 4.032623
1115.103, 4.219553
1115.585, 4.170009
1116.067, 3.674532
1116.549, 3.242573
1117.031, 3.231110
1117.513, 3.418734
1117.995, 3.494655
1118.478, 3.461234
1118.960, 3.096782
1119.442, 2.002626
1119.924, 1.578295
1120.406, 2.333730
1120.888, 2.948957
1121.370, 2.767766
1121.852, 2.336828
1122.334, 2.312348
1122.817, 2.581394
1123.299, 2.446754
1123.781, 2.585138
1124.263, 2.959739
1124.745, 2.705316
1125.227, 3.526149
1125.709, 3.606928
1126.191, 3.276223
1126.673, 2.700881
1127.156, 2.040736
1127.638, 1.695901
1128.120, 1.677017
1128.602, 1.722698
1129.084, 1.852768
1129.566, 1.800903
1130.048, 1.487266
1130.530, 1.218500
1131.013, 1.157080
1131.495, 1.322149
1131.977, 1.766810
1132.459, 2.442313
1132.941, 3.268440
1133.423, 4.189752
1133.905, 4.209774
1134.387, 3.262758
1134.870, 2.358945
1135.352, 1.896471
1135.834, 1.534571
1136.316, 0.8780980
1136.798, 0.2925540
1137.280, 0.8830890
1137.762, 0.6373040
1138.244, 0.6886960
1138.726, 1.267727
1139.208, 0.9014440
1139.691, 1.419906
1140.173, 1.738888
1140.655, 1.137439
1141.137, 0.4342570
1141.619, 0.7840550
1142.101, 1.657325
1142.583, 2.315783
1143.065, 2.670858
1143.548, 2.414105
1144.030, 1.692860
1144.512, 1.015994
1144.994, 0.6025470
1145.476, 0.7213560
1145.958, 2.033864
1146.440, 3.396628
1146.922, 3.752054
1147.405, 3.399336
1147.887, 2.151773
1148.369, 0.7178370
1148.851, 0.6340800
1149.333, 1.951919
1149.815, 2.986247
1150.297, 2.937929
1150.779, 2.485834
1151.261, 1.839101
1151.744, 1.144107
1152.226, 0.2264770
1152.708, 0.4805740
1153.190, 0.1877570
1153.672, 0.7596220
1154.154, 1.121459
1154.636, 0.4832760
1155.118, 0.2639450
1155.600, 1.592238
1156.083, 2.430762
1156.565, 1.427039
1157.047, 0.3582570
1157.529, 0.5709680
1158.011, 1.498983
1158.493, 2.375365
1158.975, 3.139063
1159.457, 3.084436
1159.940, 0.8736180
1160.422, 1.1997000E-02
1160.904, 1.775962
1161.386, 3.072913
1161.868, 2.402468
1162.350, 1.289539
1162.832, 1.092032
1163.314, 1.548825
1163.796, 1.890553
1164.279, 2.159996
1164.761, 1.987451
1165.243, 1.122543
1165.725, 0.7616750
1166.207, 1.304205
1166.689, 1.782371
1167.171, 1.656712
1167.653, 1.131525
1168.135, 0.6362080
1168.618, 0.4770990
1169.100, 0.6859350
1169.582, 1.254714
1170.064, 1.548610
1170.546, 1.586657
1171.028, 1.772911
1171.510, 2.175310
1171.992, 2.512642
1172.474, 2.553458
1172.957, 2.425759
1173.439, 2.345837
1173.921, 2.279263
1174.403, 2.025553
1174.885, 1.719126
1175.367, 1.874103
1175.849, 2.404972
1176.331, 2.759577
1176.814, 2.686063
1177.296, 2.342018
1177.778, 1.634427
1178.260, 1.041603
1178.742, 1.192580
1179.224, 1.747664
1179.706, 2.485165
1180.188, 3.155884
1180.671, 3.398815
1181.153, 3.139900
1181.635, 2.329302
1182.117, 0.6162470
1182.599, 0.4584030
1183.081, 0.5301750
1183.563, 1.712468
1184.045, 1.921936
1184.527, 1.755444
1185.010, 1.561776
1185.492, 1.591617
1185.974, 2.513834
1186.456, 4.513751
1186.938, 5.509883
1187.420, 4.725259
1187.902, 3.584679
1188.384, 1.523116
1188.866, 0.1297440
1189.349, 0.4799640
1189.831, 1.443017
1190.313, 2.017723
1190.795, 2.195727
1191.277, 1.832833
1191.759, 2.241139
1192.241, 2.523721
1192.723, 2.210462
1193.206, 3.147969
1193.688, 2.624807
1194.170, 2.331303
1194.652, 3.435600
1195.134, 4.539936
1195.616, 3.452774
1196.098, 0.8985970
1196.580, 3.7944999E-02
1197.063, 0.7175960
1197.545, 1.385194
1198.027, 1.923248
1198.509, 2.577839
1198.991, 3.384905
1199.473, 3.883654
1199.955, 3.731224
1200.437, 3.302822
1200.919, 3.119308
1201.401, 2.967881
1201.884, 2.338793
1202.366, 1.522260
1202.848, 1.060292
1203.330, 0.9647510
1203.812, 1.089956
1204.294, 1.363746
1204.776, 1.589336
1205.258, 1.571593
1205.741, 1.632305
1206.223, 2.181973
1206.705, 2.668292
1207.187, 2.415464
1207.669, 2.075795
1208.151, 2.702448
1208.633, 3.787170
1209.115, 3.821982
1209.598, 2.228477
1210.080, 1.436065
1210.562, 2.433395
1211.044, 3.312100
1211.526, 3.799414
1212.008, 3.908930
1212.490, 3.506561
1212.972, 2.868275
1213.454, 2.207541
1213.937, 1.610497
1214.419, 1.642536
1214.901, 2.556866
1215.383, 2.766486
1215.865, 2.140147
1216.347, 1.473954
1216.829, 0.8798460
1217.311, 0.9989240
1217.793, 2.311608
1218.276, 3.631010
1218.758, 3.223677
1219.240, 1.829151
1219.722, 1.562885
1220.204, 2.132645
1220.686, 2.582679
1221.168, 2.840952
1221.650, 3.057650
1222.133, 3.221798
1222.615, 3.022335
1223.097, 2.262490
1223.579, 1.306872
1224.061, 0.1359430
1224.543, 0.7016830
1225.025, 0.6856590
1225.507, 5.7120002E-03
1225.990, 1.648068
1226.472, 3.547842
1226.954, 4.378021
1227.436, 3.978292
1227.918, 3.262555
1228.400, 2.195814
1228.882, 1.432857
1229.364, 1.204541
1229.846, 1.203398
1230.328, 1.661119
1230.811, 1.940083
1231.293, 1.384999
1231.775, 0.4428440
1232.257, 0.1574790
1232.739, 0.4123500
1233.221, 0.3196460
1233.703, 2.442061
1234.185, 3.737133
1234.668, 4.044062
1235.150, 3.743301
1235.632, 2.885180
1236.114, 2.189082
1236.596, 2.248709
1237.078, 2.627782
1237.560, 2.606097
1238.042, 2.272388
1238.525, 1.752128
1239.007, 1.209279
1239.489, 1.268377
1239.971, 1.827816
1240.453, 2.260683
1240.935, 2.391171
1241.417, 2.574917
1241.899, 3.153375
1242.381, 3.396911
1242.864, 2.187013
1243.346, 0.9928650
1243.828, 1.083430
1244.310, 1.832417
1244.792, 2.944140
1245.274, 3.933627
1245.756, 3.609717
1246.238, 4.267969
1246.720, 4.709797
1247.203, 3.775272
1247.685, 4.890762
1248.167, 3.298363
1248.649, 1.616355
1249.131, 0.2784480
1249.613, 0.2660480
1250.095, 0.6482630
1250.577, 2.108198
1251.059, 2.228206
1251.542, 1.164936
1252.024, 0.7859220
1252.506, 1.087738
1252.988, 1.895433
1253.470, 3.136121
1253.952, 3.848956
1254.434, 3.753932
1254.916, 3.325701
1255.399, 3.048432
1255.881, 2.856846
1256.363, 2.390803
1256.845, 1.827168
1257.327, 1.380507
1257.809, 1.047127
1258.291, 0.7405650
1258.773, 0.5251760
1259.255, 0.6850750
1259.738, 1.324504
1260.220, 1.958289
1260.702, 2.560380
1261.184, 2.809621
1261.666, 2.286130
1262.148, 1.817300
1262.630, 1.617134
1263.112, 1.718162
1263.594, 2.681021
1264.077, 3.504856
1264.559, 2.343530
1265.041, 0.3977580
1265.523, 1.053737
1266.005, 0.8744020
1266.487, 1.964016
1266.969, 2.067639
1267.451, 1.556485
1267.934, 0.7366600
1268.416, 0.3676690
1268.898, 0.9537560
1269.380, 1.633561
1269.862, 1.289144
1270.344, 0.5324310
1270.826, 0.2398060
1271.308, 0.4780570
1271.791, 1.812090
1272.273, 3.584262
1272.755, 4.583910
1273.237, 4.604445
1273.719, 3.730602
1274.201, 1.903546
1274.683, 0.6831970
1275.165, 1.079531
1275.647, 1.133008
1276.130, 0.5563490
1276.612, 9.0549000E-02
1277.094, 0.6537310
1277.576, 1.522744
1278.058, 1.826724
1278.540, 1.760708
1279.022, 1.463423
1279.504, 0.8501640
1279.986, 0.9110730
1280.469, 1.902102
1280.951, 2.350010
1281.433, 2.075562
1281.915, 1.553978
1282.397, 0.9525080
1282.879, 0.4658590
1283.361, 0.2461710
1283.843, 0.1613250
1284.326, 6.3355997E-02
1284.808, 0.0000000E+00
##END=



