##NAMES=Ferrierite-Mg
##RRUFFID=R060982
##IDEAL CHEMISTRY=[Mg_2_(K,Na)_2_Ca_0.5_](Si_29_Al_7_)O_72_&#183;18H_2_O
##LOCALITY=Monte Lake, British Columbia, Canada
##OWNER=RRUFF
##SOURCE=Bob Jenkins
##DESCRIPTION=Orange lath shaped crystals in radial aggregates associated with white calcite
##STATUS=The identification of this mineral is confirmed by single-crystal X-ray diffraction and chemical analysis.
##URL=rruff.info/R060982
##MEASURED CHEMISTRY=(Mg_1.70_K_0.83_Fe_0.49_Na_0.36_Ca_0.21_)_Σ=3.49_(Si_30.01_Al_5.99_)_Σ=36_O_72_·20.71H_2_O; = dark phase. Light phase is calcite: (Ca_0.96_Mn_0.02_Mg_0.01_Fe_0.01_)CO_3_
129.2419, 0.0000000E+00
129.7240, 3.998779
130.2061, 23.48291
130.6883, 73.51562
131.1704, 142.4910
131.6525, 235.8804
132.1346, 336.8899
132.6167, 425.4548
133.0988, 498.0081
133.5810, 562.4912
134.0631, 624.3518
134.5452, 682.2124
135.0273, 729.9673
135.5094, 764.7200
135.9915, 787.4016
136.4737, 803.4358
136.9558, 819.8240
137.4379, 811.4111
137.9200, 756.6233
138.4021, 667.7783
138.8842, 569.0295
139.3664, 460.3315
139.8485, 348.9258
140.3306, 265.9492
140.8127, 218.2366
141.2948, 192.9260
141.7769, 175.7544
142.2591, 170.5383
142.7412, 187.3557
143.2233, 239.0310
143.7054, 323.1562
144.1875, 407.2856
144.6696, 484.7524
145.1517, 570.2578
145.6339, 671.6541
146.1160, 786.2019
146.5981, 905.3262
147.0802, 1022.770
147.5623, 1138.216
148.0444, 1255.772
148.5266, 1387.752
149.0087, 1509.168
149.4908, 1609.353
149.9729, 1689.905
150.4550, 1758.474
150.9371, 1826.150
151.4193, 1896.339
151.9014, 1938.771
152.3835, 1951.108
152.8656, 1936.462
153.3477, 1887.244
153.8298, 1807.838
154.3120, 1713.097
154.7941, 1615.043
155.2762, 1509.359
155.7583, 1417.835
156.2404, 1343.140
156.7225, 1278.387
157.2047, 1223.863
157.6868, 1177.538
158.1689, 1133.540
158.6510, 1082.454
159.1331, 1013.584
159.6152, 974.7148
160.0974, 979.1597
160.5795, 998.2136
161.0616, 1020.814
161.5437, 1042.093
162.0258, 1059.181
162.5079, 1069.692
162.9901, 1072.962
163.4722, 1059.549
163.9543, 1022.141
164.4364, 977.4331
164.9185, 933.9849
165.4007, 893.7312
165.8828, 856.0308
166.3649, 819.6956
166.8470, 784.7632
167.3291, 752.2771
167.8112, 722.5947
168.2933, 694.8711
168.7755, 669.3782
169.2576, 645.8660
169.7397, 622.9670
170.2218, 598.2092
170.7039, 567.9265
171.1860, 547.2747
171.6682, 546.1462
172.1503, 547.1775
172.6324, 537.8726
173.1145, 516.1897
173.5966, 487.7866
174.0787, 459.3870
174.5609, 430.8574
175.0430, 402.7842
175.5251, 375.2312
176.0072, 348.0815
176.4893, 320.9858
176.9714, 294.0173
177.4536, 267.0459
177.9357, 239.3599
178.4178, 208.3425
178.8999, 185.4695
179.3820, 180.0906
179.8641, 177.1494
180.3463, 159.1860
180.8284, 124.3303
181.3105, 92.14380
181.7926, 85.30786
182.2747, 115.7815
182.7568, 134.0500
183.2390, 133.8269
183.7211, 125.7173
184.2032, 117.6165
184.6853, 111.2019
185.1674, 107.8606
185.6495, 112.1753
186.1317, 129.9893
186.6138, 132.2405
187.0959, 100.8755
187.5780, 63.57275
188.0601, 38.18018
188.5422, 27.37598
189.0244, 24.25122
189.5065, 23.39062
189.9886, 26.12061
190.4707, 21.50439
190.9528, 0.2700200
191.4349, 21.78906
191.9170, 31.95215
192.3992, 30.49634
192.8813, 23.34644
193.3634, 14.38745
193.8455, 1.955811
194.3276, 2.093018
194.8097, 16.56079
195.2919, 37.20410
195.7740, 38.10352
196.2561, 16.90967
196.7382, 7.089844
197.2203, 15.46582
197.7024, 6.265137
198.1846, 0.5080570
198.6667, 0.9853520
199.1488, 3.916260
199.6309, 6.461426
200.1130, 8.693359
200.5951, 11.06030
201.0773, 12.51660
201.5594, 13.13794
202.0415, 21.45557
202.5236, 49.43921
203.0057, 75.84277
203.4878, 82.39331
203.9700, 71.04028
204.4521, 58.94482
204.9342, 57.65820
205.4163, 67.07007
205.8984, 74.63574
206.3805, 80.99854
206.8627, 85.78174
207.3448, 89.33423
207.8269, 91.69067
208.3090, 90.70728
208.7911, 82.80200
209.2732, 69.63208
209.7554, 60.90454
210.2375, 65.27222
210.7196, 67.33716
211.2017, 51.33081
211.6838, 21.25537
212.1659, 0.4389650
212.6480, 4.434082
213.1302, 28.38696
213.6123, 41.13892
214.0944, 34.34473
214.5765, 26.39014
215.0586, 29.58984
215.5407, 41.01025
216.0229, 48.80835
216.5050, 47.56006
216.9871, 38.93164
217.4692, 36.88550
217.9513, 42.77905
218.4334, 52.63647
218.9156, 71.42773
219.3977, 93.49097
219.8798, 102.2766
220.3619, 86.90186
220.8440, 57.88989
221.3261, 46.39502
221.8083, 58.53174
222.2904, 74.14917
222.7725, 87.85815
223.2546, 100.5322
223.7367, 114.9473
224.2188, 133.4048
224.7010, 151.7351
225.1831, 158.7275
225.6652, 149.4856
226.1473, 141.8547
226.6294, 147.9387
227.1115, 156.0605
227.5937, 145.6165
228.0758, 108.6836
228.5579, 60.25464
229.0400, 26.10742
229.5221, 8.625488
230.0042, 2.605225
230.4864, 5.542725
230.9685, 4.290771
231.4506, 2.664307
231.9327, 1.591553
232.4148, 2.228027
232.8969, 7.756836
233.3791, 23.51147
233.8612, 25.47949
234.3433, 5.476563
234.8254, 39.94214
235.3075, 48.56738
235.7896, 27.66992
236.2717, 1.818604
236.7539, 18.22900
237.2360, 18.15503
237.7181, 17.46094
238.2002, 15.99585
238.6823, 14.03271
239.1644, 11.77490
239.6466, 9.212891
240.1287, 5.859863
240.6108, 0.6831050
241.0929, 6.734619
241.5750, 8.657715
242.0571, 2.358398
242.5393, 11.14478
243.0214, 9.504150
243.5035, 1.174316
243.9856, 15.32178
244.4677, 29.61938
244.9498, 43.94360
245.4320, 54.69995
245.9141, 65.55957
246.3962, 69.78491
246.8783, 62.86914
247.3604, 47.86621
247.8425, 29.00293
248.3247, 7.466797
248.8068, 13.97559
249.2889, 22.58130
249.7710, 1.600342
250.2531, 15.58521
250.7352, 4.136475
251.2174, 17.92822
251.6995, 30.35962
252.1816, 24.37354
252.6637, 7.414307
253.1458, 2.178711
253.6279, 4.710449
254.1101, 5.939697
254.5922, 5.113770
255.0743, 18.26025
255.5564, 24.41675
256.0385, 21.00757
256.5206, 11.50146
257.0027, 0.8305660
257.4849, 13.88452
257.9670, 23.55371
258.4491, 30.59644
258.9312, 31.85889
259.4133, 19.88281
259.8954, 3.196777
260.3776, 23.34937
260.8597, 22.13062
261.3418, 8.253418
261.8239, 24.22339
262.3060, 13.74194
262.7881, 0.1965330
263.2703, 8.490723
263.7524, 11.69629
264.2345, 11.14331
264.7166, 6.743408
265.1987, 1.356934
265.6808, 1.686523
266.1630, 18.90186
266.6451, 33.21021
267.1272, 29.42163
267.6093, 14.43018
268.0914, 0.3796390
268.5735, 5.974854
269.0557, 5.525146
269.5378, 10.78955
270.0199, 4.633301
270.5020, 13.97925
270.9841, 17.57422
271.4662, 1.711670
271.9484, 8.462158
272.4305, 6.775635
272.9126, 4.566650
273.3947, 18.77612
273.8768, 2.622070
274.3589, 20.40527
274.8411, 20.64575
275.3232, 18.64575
275.8053, 18.78174
276.2874, 21.99512
276.7695, 27.36084
277.2516, 35.17505
277.7338, 45.63525
278.2159, 53.09082
278.6980, 53.61499
279.1801, 53.40894
279.6622, 56.17651
280.1443, 62.15063
280.6265, 71.54810
281.1086, 89.35352
281.5907, 111.9080
282.0728, 120.9917
282.5549, 106.6907
283.0370, 93.79443
283.5192, 104.3623
284.0013, 132.6494
284.4834, 160.6663
284.9655, 185.8044
285.4476, 204.9402
285.9297, 209.1794
286.4119, 195.5005
286.8940, 183.8848
287.3761, 186.2837
287.8582, 201.0947
288.3403, 224.4080
288.8224, 264.5615
289.3046, 305.5164
289.7867, 331.0261
290.2688, 343.3840
290.7509, 360.1360
291.2330, 391.8811
291.7151, 431.9976
292.1972, 463.8965
292.6794, 488.2881
293.1615, 502.4236
293.6436, 499.5547
294.1257, 486.0129
294.6078, 473.9456
295.0899, 467.8145
295.5721, 466.0583
296.0542, 466.9846
296.5363, 472.5457
297.0184, 474.7622
297.5005, 472.7922
297.9826, 466.9431
298.4648, 454.6951
298.9469, 436.4739
299.4290, 420.4187
299.9111, 416.6272
300.3932, 429.2317
300.8753, 429.7952
301.3575, 413.3403
301.8396, 391.2544
302.3217, 364.0955
302.8038, 335.7812
303.2859, 315.8318
303.7680, 312.1013
304.2502, 322.7983
304.7323, 327.4333
305.2144, 325.8110
305.6965, 318.0557
306.1786, 297.6654
306.6607, 272.9304
307.1429, 255.1967
307.6250, 250.3003
308.1071, 253.9733
308.5892, 256.8409
309.0713, 260.1748
309.5534, 257.9355
310.0356, 247.0828
310.5177, 235.7383
310.9998, 228.0205
311.4819, 224.2258
311.9640, 224.0835
312.4461, 227.8269
312.9283, 236.3359
313.4104, 245.4177
313.8925, 261.4629
314.3746, 272.7109
314.8567, 270.7410
315.3388, 257.0547
315.8210, 240.2568
316.3031, 222.7124
316.7852, 207.1584
317.2673, 208.0930
317.7494, 237.9158
318.2315, 262.1824
318.7137, 256.8320
319.1958, 236.0027
319.6779, 222.8613
320.1600, 230.3630
320.6421, 244.5491
321.1242, 243.6040
321.6064, 225.9797
322.0885, 215.7368
322.5706, 224.7610
323.0527, 243.6348
323.5348, 261.2837
324.0169, 279.6221
324.4991, 292.4343
324.9812, 290.4912
325.4633, 279.3174
325.9454, 274.8496
326.4275, 281.6543
326.9096, 295.1538
327.3918, 313.0156
327.8739, 336.8359
328.3560, 351.2368
328.8381, 344.0334
329.3202, 330.4143
329.8023, 328.6792
330.2845, 338.6440
330.7666, 349.9229
331.2487, 356.2664
331.7308, 356.1682
332.2129, 354.5405
332.6950, 351.0720
333.1772, 344.9656
333.6593, 335.5994
334.1414, 323.7014
334.6235, 309.0911
335.1056, 291.2837
335.5877, 273.8142
336.0698, 265.2068
336.5519, 274.9507
337.0341, 280.4902
337.5162, 281.1946
337.9983, 278.3025
338.4804, 270.8140
338.9625, 259.6182
339.4446, 249.2146
339.9268, 245.3523
340.4089, 249.5129
340.8910, 251.6526
341.3731, 252.7407
341.8552, 250.9141
342.3373, 242.6763
342.8195, 230.8911
343.3016, 222.0747
343.7837, 221.3970
344.2658, 225.5229
344.7479, 222.0352
345.2300, 206.1790
345.7122, 192.9666
346.1943, 192.1157
346.6764, 193.8167
347.1585, 186.5217
347.6406, 165.8115
348.1227, 144.8113
348.6049, 138.0710
349.0870, 145.1016
349.5691, 154.6509
350.0512, 169.2942
350.5333, 179.3159
351.0154, 173.2358
351.4976, 152.2366
351.9797, 133.0491
352.4618, 122.4360
352.9439, 118.1519
353.4260, 117.8572
353.9081, 121.5854
354.3903, 126.1719
354.8724, 131.5796
355.3545, 135.9829
355.8366, 131.1150
356.3187, 108.3308
356.8008, 84.71802
357.2830, 65.97583
357.7651, 53.19385
358.2472, 50.83984
358.7293, 62.42920
359.2114, 79.50269
359.6935, 83.35107
360.1757, 65.56982
360.6578, 47.42773
361.1399, 25.85229
361.6220, 6.569336
362.1041, 3.691650
362.5862, 5.164551
363.0684, 5.544189
363.5505, 14.08057
364.0326, 32.78613
364.5147, 38.28174
364.9968, 14.54736
365.4789, 6.049316
365.9611, 14.13818
366.4432, 12.53467
366.9253, 6.179932
367.4074, 2.946533
367.8895, 13.15210
368.3716, 20.98950
368.8538, 27.55591
369.3359, 28.66895
369.8180, 13.44995
370.3001, 1.090088
370.7822, 0.7995610
371.2643, 20.84912
371.7465, 40.92725
372.2286, 45.15112
372.7107, 36.01001
373.1928, 26.89380
373.6749, 20.16724
374.1570, 11.36060
374.6392, 8.446045
375.1213, 33.94873
375.6034, 49.19434
376.0855, 41.87183
376.5676, 28.20776
377.0497, 23.33374
377.5319, 26.42529
378.0140, 31.62183
378.4961, 37.53540
378.9782, 42.34741
379.4603, 39.58105
379.9424, 21.01367
380.4246, 12.10791
380.9066, 26.48120
381.3888, 49.73389
381.8709, 65.44336
382.3530, 70.21802
382.8351, 70.36157
383.3172, 72.27466
383.7993, 75.80859
384.2815, 82.47168
384.7636, 98.77100
385.2457, 111.1387
385.7278, 109.8296
386.2099, 101.2927
386.6920, 97.74023
387.1742, 105.9780
387.6563, 123.0320
388.1384, 141.8127
388.6205, 165.0044
389.1026, 183.4810
389.5847, 191.2830
390.0669, 197.1636
390.5490, 207.9148
391.0311, 224.2063
391.5132, 241.0876
391.9953, 256.1367
392.4774, 268.6860
392.9596, 272.4978
393.4417, 260.6348
393.9238, 253.5498
394.4059, 268.9683
394.8880, 298.9573
395.3701, 327.9641
395.8523, 350.7800
396.3344, 372.6182
396.8165, 398.6399
397.2986, 428.0527
397.7807, 456.6243
398.2628, 483.1370
398.7450, 507.2173
399.2271, 527.4197
399.7092, 542.5229
400.1913, 558.4456
400.6734, 573.5984
401.1555, 591.4602
401.6377, 615.2507
402.1198, 645.0615
402.6019, 679.6533
403.0840, 717.7649
403.5661, 759.5378
404.0482, 804.1887
404.5304, 856.1416
405.0125, 906.3210
405.4946, 951.7473
405.9767, 994.8584
406.4588, 1038.312
406.9409, 1083.149
407.4231, 1128.731
407.9052, 1177.114
408.3873, 1231.604
408.8694, 1271.116
409.3515, 1273.698
409.8336, 1279.673
410.3158, 1320.282
410.7979, 1385.461
411.2800, 1436.858
411.7621, 1443.136
412.2442, 1426.704
412.7263, 1433.510
413.2085, 1466.960
413.6906, 1491.736
414.1727, 1490.589
414.6548, 1469.454
415.1369, 1440.249
415.6190, 1392.063
416.1012, 1362.731
416.5833, 1387.465
417.0654, 1434.676
417.5475, 1453.625
418.0296, 1434.169
418.5117, 1400.894
418.9939, 1377.574
419.4760, 1365.045
419.9581, 1355.084
420.4402, 1346.426
420.9223, 1341.396
421.4044, 1342.569
421.8866, 1346.681
422.3687, 1349.911
422.8508, 1351.724
423.3329, 1352.752
423.8150, 1355.080
424.2971, 1358.465
424.7793, 1363.845
425.2614, 1373.433
425.7435, 1382.876
426.2256, 1390.621
426.7077, 1396.311
427.1898, 1399.916
427.6719, 1402.249
428.1541, 1402.667
428.6362, 1398.835
429.1183, 1388.978
429.6004, 1379.351
430.0825, 1373.500
430.5646, 1371.485
431.0468, 1373.247
431.5289, 1381.847
432.0110, 1385.313
432.4931, 1370.697
432.9752, 1348.353
433.4573, 1338.379
433.9395, 1344.953
434.4216, 1355.976
434.9037, 1359.650
435.3858, 1355.250
435.8679, 1352.702
436.3500, 1356.635
436.8322, 1357.266
437.3143, 1344.615
437.7964, 1327.675
438.2785, 1323.089
438.7606, 1337.903
439.2427, 1360.398
439.7249, 1367.569
440.2070, 1351.542
440.6891, 1343.511
441.1712, 1357.615
441.6533, 1369.015
442.1354, 1359.237
442.6176, 1335.198
443.0997, 1321.064
443.5818, 1338.205
444.0639, 1368.854
444.5460, 1374.018
445.0281, 1350.685
445.5103, 1328.666
445.9924, 1323.055
446.4745, 1322.788
446.9566, 1307.723
447.4387, 1272.538
447.9208, 1247.485
448.4030, 1255.674
448.8851, 1272.880
449.3672, 1264.428
449.8493, 1229.292
450.3314, 1194.547
450.8135, 1183.784
451.2957, 1194.000
451.7778, 1182.772
452.2599, 1127.331
452.7420, 1079.902
453.2241, 1054.149
453.7062, 1039.848
454.1884, 1028.677
454.6705, 1016.916
455.1526, 998.4318
455.6347, 961.1179
456.1168, 902.2192
456.5989, 864.2898
457.0811, 864.1028
457.5632, 863.3965
458.0453, 842.6394
458.5274, 809.6941
459.0095, 778.3989
459.4916, 754.1855
459.9738, 732.5629
460.4559, 707.4308
460.9380, 678.9393
461.4201, 653.2157
461.9022, 633.1902
462.3843, 614.1764
462.8665, 589.4998
463.3486, 558.9387
463.8307, 528.5312
464.3128, 490.5054
464.7949, 459.1311
465.2770, 450.0239
465.7592, 455.9221
466.2413, 456.8240
466.7234, 442.2119
467.2055, 419.0024
467.6876, 404.3866
468.1697, 406.1659
468.6519, 399.3796
469.1340, 375.0371
469.6161, 350.4048
470.0982, 337.2802
470.5803, 333.2806
471.0624, 327.2643
471.5445, 312.1763
472.0266, 291.4944
472.5088, 272.6511
472.9909, 254.8400
473.4730, 242.2603
473.9551, 241.0588
474.4372, 242.9259
474.9193, 235.4121
475.4015, 215.9131
475.8836, 199.8026
476.3657, 198.7157
476.8478, 202.5305
477.3299, 200.6702
477.8120, 191.6311
478.2942, 173.2368
478.7763, 140.5554
479.2584, 99.66052
479.7405, 84.34912
480.2226, 125.5112
480.7047, 153.9268
481.1869, 158.1270
481.6690, 151.3076
482.1511, 141.6730
482.6332, 132.3676
483.1153, 127.2542
483.5974, 133.0481
484.0796, 147.3016
484.5617, 147.7919
485.0438, 125.3761
485.5259, 109.4633
486.0080, 122.7634
486.4901, 145.8756
486.9723, 155.0175
487.4544, 143.1863
487.9365, 132.5428
488.4186, 142.7708
488.9007, 161.8472
489.3828, 163.6635
489.8650, 144.2063
490.3471, 125.5824
490.8292, 127.0194
491.3113, 146.9194
491.7934, 157.6053
492.2755, 153.0901
492.7577, 148.1793
493.2398, 148.5012
493.7219, 148.8059
494.2040, 140.7638
494.6861, 123.6158
495.1682, 107.2124
495.6504, 103.8531
496.1325, 113.5239
496.6146, 117.4998
497.0967, 113.6124
497.5788, 107.4620
498.0609, 99.93542
498.5431, 92.23169
499.0252, 86.28650
499.5073, 82.90173
499.9894, 79.83630
500.4715, 75.56348
500.9536, 70.39685
501.4358, 65.35547
501.9179, 60.73022
502.4000, 54.76709
502.8821, 45.77185
503.3642, 33.90662
503.8463, 21.68494
504.3285, 7.604370
504.8106, 4.927734
505.2927, 19.67236
505.7748, 30.16821
506.2569, 24.41028
506.7390, 1.488281
507.2212, 22.28577
507.7033, 27.09729
508.1854, 12.82166
508.6675, 4.112305
509.1496, 4.897949
509.6317, 4.782471
510.1139, 2.916138
510.5960, 13.14563
511.0781, 19.70935
511.5602, 21.40149
512.0423, 19.03687
512.5244, 8.030518
513.0065, 5.657471
513.4886, 7.167358
513.9708, 6.114258
514.4529, 20.89124
514.9350, 26.29358
515.4171, 23.09009
515.8992, 20.92346
516.3813, 18.20593
516.8635, 18.36707
517.3456, 28.19019
517.8277, 37.80322
518.3098, 34.68848
518.7919, 17.96387
519.2740, 0.4298100
519.7562, 9.310913
520.2383, 9.260742
520.7204, 5.266357
521.2025, 5.928467
521.6846, 13.64307
522.1667, 10.56396
522.6489, 2.587402
523.1310, 5.043213
523.6131, 12.44250
524.0952, 15.71594
524.5773, 8.367188
525.0594, 2.442261
525.5416, 4.679077
526.0237, 2.128662
526.5058, 8.220215
526.9879, 6.000732
527.4700, 1.594238
527.9521, 0.6464840
528.4343, 23.87207
528.9164, 36.78174
529.3985, 24.91736
529.8806, 9.628784
530.3627, 11.06421
530.8448, 27.15991
531.3270, 38.19275
531.8091, 25.77527
532.2912, 0.2233890
532.7733, 7.196533
533.2554, 6.750977
533.7375, 18.98376
534.2197, 19.83362
534.7018, 16.77356
535.1839, 18.88147
535.6660, 26.05164
536.1481, 37.93860
536.6302, 60.53528
537.1124, 82.97888
537.5945, 93.06506
538.0766, 94.20276
538.5587, 99.82593
539.0408, 117.0342
539.5229, 139.8608
540.0051, 154.4095
540.4872, 156.1263
540.9693, 160.5654
541.4514, 174.9016
541.9335, 185.3607
542.4156, 180.7217
542.8978, 167.5201
543.3799, 161.1241
543.8620, 169.7349
544.3441, 184.8508
544.8262, 198.9353
545.3083, 211.2584
545.7905, 215.9478
546.2726, 209.7883
546.7547, 202.4904
547.2368, 204.7404
547.7189, 217.1694
548.2010, 224.4310
548.6832, 217.2983
549.1653, 215.5953
549.6474, 234.7904
550.1295, 260.1277
550.6116, 269.3851
551.0938, 257.7726
551.5759, 241.8273
552.0580, 240.5507
552.5401, 253.5010
553.0222, 266.5643
553.5043, 283.4464
553.9865, 293.0668
554.4686, 282.4050
554.9507, 265.0057
555.4328, 257.5261
555.9149, 263.7692
556.3970, 270.2811
556.8792, 270.5388
557.3613, 267.2225
557.8434, 264.0773
558.3255, 261.1887
558.8076, 255.1984
559.2897, 242.8973
559.7719, 228.1312
560.2540, 224.6423
560.7361, 244.0416
561.2182, 254.6288
561.7003, 253.9034
562.1824, 246.0699
562.6646, 229.1315
563.1467, 206.0718
563.6288, 186.4252
564.1109, 177.0516
564.5930, 174.6511
565.0751, 173.7094
565.5573, 173.6613
566.0394, 168.3682
566.5215, 154.7979
567.0036, 139.2753
567.4857, 128.3887
567.9678, 122.3279
568.4500, 117.5171
568.9321, 112.3759
569.4142, 111.0072
569.8963, 119.0348
570.3784, 130.9708
570.8605, 138.4811
571.3427, 138.7418
571.8248, 135.1443
572.3069, 131.5577
572.7890, 128.4451
573.2711, 123.8173
573.7532, 116.8959
574.2354, 110.4783
574.7175, 106.3252
575.1996, 102.0493
575.6817, 95.66528
576.1638, 87.25110
576.6459, 84.35254
577.1281, 99.86682
577.6102, 114.7937
578.0923, 100.6871
578.5744, 64.06775
579.0565, 41.04382
579.5386, 53.45935
580.0208, 86.76868
580.5029, 105.0527
580.9850, 104.2443
581.4671, 98.74194
581.9492, 77.60950
582.4313, 60.79297
582.9134, 62.82666
583.3955, 76.60840
583.8776, 84.29590
584.3597, 76.42285
584.8419, 65.74768
585.3240, 64.84265
585.8061, 70.72522
586.2882, 74.32483
586.7703, 73.04895
587.2524, 69.97485
587.7346, 66.82202
588.2167, 64.54236
588.6988, 68.21436
589.1809, 86.60522
589.6630, 96.29187
590.1451, 89.23853
590.6273, 76.70117
591.1094, 67.43250
591.5915, 62.56274
592.0736, 62.09497
592.5557, 69.28137
593.0378, 79.12061
593.5200, 77.63159
594.0021, 64.48267
594.4842, 58.31934
594.9663, 66.98193
595.4484, 82.16357
595.9305, 94.41675
596.4127, 103.7866
596.8948, 108.5247
597.3769, 104.0366
597.8590, 99.91321
598.3411, 99.99988
598.8232, 103.0856
599.3054, 107.2151
599.7875, 111.7898
600.2696, 117.4362
600.7517, 125.7872
601.2338, 136.3287
601.7159, 143.8510
602.1981, 147.6746
602.6802, 150.7869
603.1623, 153.4440
603.6444, 156.9036
604.1265, 163.5076
604.6086, 174.0615
605.0908, 183.9128
605.5729, 191.9338
606.0550, 198.8740
606.5371, 205.4342
607.0192, 211.3699
607.5013, 216.1715
607.9835, 219.5651
608.4656, 221.3033
608.9477, 219.4453
609.4298, 212.7753
609.9119, 213.3960
610.3940, 224.9717
610.8762, 238.5990
611.3583, 251.2080
611.8404, 262.1340
612.3225, 270.3938
612.8046, 276.5953
613.2867, 277.8700
613.7689, 270.4927
614.2510, 258.8828
614.7331, 248.7461
615.2152, 239.8318
615.6973, 227.5358
616.1794, 208.3586
616.6616, 186.3767
617.1437, 172.6606
617.6258, 170.7120
618.1079, 166.3584
618.5900, 153.7673
619.0721, 142.1505
619.5543, 137.4956
620.0364, 137.3518
