##NAMES=Ferro-gedrite
##RRUFFID=R070531
##IDEAL CHEMISTRY=[box]Fe^2+^_2_(Fe^2+^_3_Al_2_)(Si_6_Al_2_)O_22_(OH)_2_
##LOCALITY=Ludvika, Dalarna District, Kopparberg, Sweden
##OWNER=RRUFF
##SOURCE=James Shigley
##DESCRIPTION=Flattened black prismatic crystals in semi-sheaflike aggregates, associated with quartz
##STATUS=The identification of this mineral is confirmed by single-crystal X-ray diffraction and chemical analysis.
##URL=rruff.info/R070531
##MEASURED CHEMISTRY=(Na_0.56_[box]_0.44_)_Σ=1_(Fe^2+^_1.94_Mn_0.05_Ca_0.01_)_Σ=2_(Fe^2+^_1.92_Mg_1.53_Al_1.52_Fe^3+^_0.02_Ti_0.01_)_Σ=5_(Si_5.88_Al_2.12_)_Σ=8_O_22_(OH)_2_; = light phase, and the dark phase is quartz
146.7805, 0.0000000E+00
147.2626, 0.4572140
147.7448, 10.12366
148.2269, 20.59552
148.7090, 28.73676
149.1911, 34.44055
149.6732, 40.33575
150.1554, 49.78412
150.6375, 56.96643
151.1196, 57.54834
151.6017, 39.45001
152.0838, 27.22620
152.5659, 25.72614
153.0481, 36.33331
153.5302, 45.22369
154.0123, 49.99176
154.4944, 53.30243
154.9765, 57.86377
155.4586, 67.43689
155.9408, 75.12616
156.4229, 77.38177
156.9050, 66.89362
157.3871, 57.50006
157.8692, 63.32794
158.3513, 74.97119
158.8335, 77.02203
159.3156, 51.60272
159.7977, 27.17255
160.2798, 17.53345
160.7619, 31.61145
161.2440, 45.78156
161.7262, 55.31238
162.2083, 59.97662
162.6904, 58.95258
163.1725, 44.69592
163.6546, 28.99017
164.1367, 20.03070
164.6189, 24.34393
165.1010, 29.68451
165.5831, 30.38379
166.0652, 27.09753
166.5473, 23.13123
167.0294, 16.93774
167.5116, 12.13116
167.9937, 12.29987
168.4758, 24.04022
168.9579, 36.97949
169.4400, 45.52997
169.9221, 49.60236
170.4043, 49.30396
170.8864, 41.30176
171.3685, 29.61444
171.8506, 19.94745
172.3327, 15.24298
172.8148, 13.35767
173.2970, 11.54572
173.7791, 9.381042
174.2612, 10.87250
174.7433, 23.56622
175.2254, 42.60663
175.7076, 57.60803
176.1897, 60.32343
176.6718, 57.27832
177.1539, 58.87360
177.6360, 68.22144
178.1181, 74.02039
178.6003, 57.45239
179.0824, 24.46588
179.5645, 0.5979000
180.0466, 2.788269
180.5287, 22.51276
181.0108, 34.91406
181.4930, 35.57111
181.9751, 30.42444
182.4572, 25.50348
182.9393, 21.04504
183.4214, 19.50354
183.9035, 26.13708
184.3857, 37.40259
184.8678, 42.64801
185.3499, 37.67682
185.8320, 27.76117
186.3141, 22.66956
186.7962, 22.33374
187.2784, 23.54736
187.7605, 22.87634
188.2426, 21.05945
188.7247, 22.13318
189.2068, 28.57660
189.6889, 37.95959
190.1711, 44.29523
190.6532, 47.66290
191.1353, 51.65857
191.6174, 49.48816
192.0995, 41.14252
192.5816, 37.38300
193.0638, 45.77057
193.5459, 62.60852
194.0280, 68.24438
194.5101, 60.70074
194.9922, 52.11139
195.4743, 53.43140
195.9565, 63.67804
196.4386, 73.21442
196.9207, 78.33740
197.4028, 79.17328
197.8849, 75.72430
198.3671, 66.30933
198.8492, 56.25000
199.3313, 53.40515
199.8134, 58.10809
200.2955, 67.38684
200.7776, 84.30957
201.2598, 106.4255
201.7419, 120.5009
202.2240, 125.4002
202.7061, 123.2346
203.1882, 121.8735
203.6703, 121.4043
204.1525, 121.2806
204.6346, 120.7459
205.1167, 119.9364
205.5988, 120.0917
206.0809, 121.1494
206.5630, 123.2789
207.0452, 127.9196
207.5273, 136.4070
208.0094, 144.0024
208.4915, 147.1676
208.9736, 144.5660
209.4557, 144.7681
209.9379, 149.1048
210.4200, 156.5038
210.9021, 163.8954
211.3842, 172.4736
211.8663, 178.4358
212.3484, 177.7645
212.8306, 167.7648
213.3127, 162.2086
213.7948, 164.7271
214.2769, 173.2011
214.7590, 174.4112
215.2411, 164.5499
215.7233, 154.2322
216.2054, 153.1285
216.6875, 165.7417
217.1696, 173.5115
217.6517, 173.2415
218.1338, 165.4014
218.6160, 154.7323
219.0981, 137.8247
219.5802, 122.7654
220.0623, 119.0102
220.5444, 134.2699
221.0265, 140.8862
221.5087, 130.9122
221.9908, 104.5328
222.4729, 85.98407
222.9550, 76.81885
223.4371, 73.68140
223.9192, 73.84418
224.4014, 79.23346
224.8835, 82.77173
225.3656, 83.02704
225.8477, 79.89764
226.3298, 74.90796
226.8119, 66.48218
227.2941, 57.68811
227.7762, 52.29333
228.2583, 52.86890
228.7404, 51.74255
229.2225, 45.96234
229.7046, 34.44092
230.1868, 27.85468
230.6689, 28.18091
231.1510, 31.80524
231.6331, 34.64191
232.1152, 37.90283
232.5974, 38.15833
233.0795, 34.35858
233.5616, 26.17242
234.0437, 15.55457
234.5258, 0.9808960
235.0079, 17.52759
235.4901, 25.07043
235.9722, 19.24268
236.4543, 11.85681
236.9364, 6.100769
237.4185, 2.211609
237.9006, 1.234558
238.3828, 4.639587
238.8649, 7.341980
239.3470, 7.982727
239.8291, 4.675049
240.3112, 2.318909
240.7933, 3.377014
241.2755, 10.20709
241.7576, 11.26892
242.2397, 2.794189
242.7218, 9.449768
243.2039, 15.03595
243.6860, 12.01996
244.1682, 5.660828
244.6503, 3.426331
245.1324, 18.03937
245.6145, 25.84766
246.0966, 23.84894
246.5787, 16.58820
247.0609, 12.91541
247.5430, 14.77862
248.0251, 17.06171
248.5072, 18.24670
248.9893, 16.61603
249.4714, 15.45801
249.9536, 13.46838
250.4357, 12.54840
250.9178, 18.07147
251.3999, 36.58173
251.8820, 50.35791
252.3641, 51.23907
252.8463, 33.91284
253.3284, 18.84857
253.8105, 4.612976
254.2926, 6.572815
254.7747, 8.154358
255.2568, 6.698486
255.7390, 19.15784
256.2211, 19.73615
256.7032, 1.114380
257.1853, 6.625732
257.6674, 0.6779170
258.1495, 16.77002
258.6317, 28.30664
259.1138, 35.47333
259.5959, 37.57513
260.0780, 33.11218
260.5601, 17.61890
261.0422, 8.868713
261.5244, 8.824463
262.0065, 13.70099
262.4886, 14.41510
262.9707, 8.500610
263.4528, 3.835693
263.9349, 4.261902
264.4171, 11.35376
264.8992, 17.50012
265.3813, 23.00293
265.8634, 27.40558
266.3455, 28.86115
266.8276, 25.31268
267.3098, 23.99420
267.7919, 30.17328
268.2740, 47.41656
268.7561, 55.38281
269.2382, 50.81488
269.7203, 39.35254
270.2025, 32.59637
270.6846, 31.91254
271.1667, 31.92407
271.6488, 29.77161
272.1309, 24.73914
272.6130, 21.78558
273.0952, 20.96283
273.5773, 22.26868
274.0594, 26.79053
274.5415, 35.73218
275.0236, 42.88513
275.5057, 44.77985
275.9879, 40.90515
276.4700, 37.08142
276.9521, 33.37793
277.4342, 29.80103
277.9163, 26.48792
278.3984, 23.54248
278.8806, 20.29120
279.3627, 15.96503
279.8448, 10.51868
280.3269, 6.162659
280.8090, 2.374817
281.2911, 0.7023930
281.7733, 5.844727
282.2554, 18.69513
282.7375, 28.37408
283.2196, 27.43677
283.7017, 16.58472
284.1838, 11.21606
284.6660, 12.28247
285.1481, 17.06647
285.6302, 21.96149
286.1123, 26.96558
286.5944, 32.40613
287.0765, 39.93365
287.5587, 48.76019
288.0408, 52.78632
288.5229, 51.54797
289.0050, 46.92120
289.4871, 40.12683
289.9692, 31.41534
290.4514, 24.03436
290.9335, 19.85187
291.4156, 18.49695
291.8977, 16.93530
292.3798, 14.19202
292.8619, 11.61523
293.3441, 13.46301
293.8262, 19.80121
294.3083, 26.13519
294.7904, 32.54065
295.2726, 37.22699
295.7547, 33.40796
296.2368, 20.04901
296.7189, 7.093750
297.2010, 7.016968
297.6831, 16.54596
298.1653, 24.21759
298.6474, 24.90283
299.1295, 21.08569
299.6116, 15.59772
300.0937, 8.330078
300.5758, 2.829346
301.0580, 6.468323
301.5401, 15.89075
302.0222, 22.38263
302.5043, 19.38672
302.9864, 13.13770
303.4685, 14.18127
303.9507, 22.14001
304.4328, 27.69403
304.9149, 18.40448
305.3970, 2.536316
305.8791, 6.176819
306.3612, 3.032654
306.8434, 16.46088
307.3255, 20.29028
307.8076, 15.39331
308.2897, 9.365173
308.7718, 5.779419
309.2539, 4.576599
309.7361, 5.946655
310.2182, 12.81470
310.7003, 19.11334
311.1824, 18.27612
311.6645, 11.88763
312.1466, 7.637512
312.6288, 15.73804
313.1109, 27.10876
313.5930, 31.12079
314.0751, 19.58411
314.5572, 8.132874
315.0393, 7.361145
315.5215, 14.92682
316.0036, 19.12128
316.4857, 11.02747
316.9678, 0.2101440
317.4499, 8.489441
317.9320, 13.14368
318.4142, 13.75623
318.8963, 6.085876
319.3784, 6.005798
319.8605, 13.31689
320.3426, 6.232056
320.8247, 1.767883
321.3069, 3.226501
321.7890, 5.963745
322.2711, 15.44928
322.7532, 25.12787
323.2353, 33.21887
323.7174, 36.39948
324.1996, 25.24457
324.6817, 16.49609
325.1638, 17.94238
325.6459, 35.48883
326.1280, 47.93494
326.6101, 53.71094
327.0923, 53.25366
327.5744, 47.16992
328.0565, 23.80084
328.5386, 6.316345
329.0207, 1.065125
329.5028, 10.59259
329.9850, 21.54327
330.4671, 38.88733
330.9492, 55.06952
331.4313, 61.65204
331.9134, 51.51587
332.3955, 41.79346
332.8777, 35.28302
333.3598, 32.08051
333.8419, 32.18347
334.3240, 38.79968
334.8061, 45.37769
335.2882, 44.70172
335.7704, 30.27161
336.2525, 24.11121
336.7346, 34.16864
337.2167, 57.23224
337.6988, 64.57178
338.1809, 49.69263
338.6631, 31.74738
339.1452, 27.47675
339.6273, 41.20184
340.1094, 48.40112
340.5915, 44.36194
341.0736, 32.24292
341.5558, 22.39795
342.0379, 14.58136
342.5200, 9.533203
343.0021, 8.510559
343.4842, 11.52014
343.9663, 14.37219
344.4485, 16.82764
344.9306, 18.72076
345.4127, 19.28986
345.8948, 18.56049
346.3769, 18.02454
346.8590, 20.62982
347.3412, 24.75531
347.8233, 20.89734
348.3054, 6.735840
348.7875, 8.602722
349.2696, 12.30249
349.7517, 5.907043
350.2339, 2.977417
350.7160, 13.90674
351.1981, 24.11389
351.6802, 27.75232
352.1623, 24.29779
352.6444, 17.54938
353.1266, 7.515442
353.6087, 3.127563
354.0908, 8.193481
354.5729, 1.830933
355.0550, 9.289612
355.5371, 20.06134
356.0193, 30.34735
356.5014, 36.38953
356.9835, 32.24091
357.4656, 23.37805
357.9477, 16.57123
358.4298, 14.97394
358.9120, 14.91309
359.3941, 14.22900
359.8762, 13.08588
360.3583, 12.08527
360.8404, 11.41882
361.3225, 11.09460
361.8047, 10.98364
362.2868, 10.36401
362.7689, 11.12067
363.2510, 15.93811
363.7331, 22.26135
364.2152, 26.01978
364.6974, 22.36932
365.1795, 17.53381
365.6616, 13.94501
366.1437, 11.35876
366.6258, 11.33447
367.1079, 15.64233
367.5901, 22.31891
368.0722, 28.41760
368.5543, 35.75592
369.0364, 40.49023
369.5185, 40.44122
370.0006, 34.08356
370.4828, 31.60907
370.9649, 35.29181
371.4470, 41.42529
371.9291, 46.86786
372.4112, 53.59180
372.8933, 55.93347
373.3755, 49.23492
373.8576, 34.88312
374.3397, 35.17548
374.8218, 58.16711
375.3039, 82.43677
375.7861, 90.53748
376.2682, 76.38245
376.7503, 72.35297
377.2324, 86.24719
377.7145, 109.4268
378.1967, 115.6049
378.6788, 101.4331
379.1609, 85.65601
379.6430, 79.74109
380.1251, 83.39948
380.6072, 87.17200
381.0894, 91.19641
381.5715, 93.70508
382.0536, 89.84692
382.5357, 80.19586
383.0178, 73.46649
383.4999, 75.88141
383.9821, 84.29883
384.4642, 88.60590
384.9463, 88.33972
385.4284, 87.93707
385.9105, 93.78143
386.3926, 103.1883
386.8748, 108.8849
387.3569, 104.7411
387.8390, 98.21368
388.3211, 99.02039
388.8032, 106.5825
389.2853, 115.2779
389.7675, 125.2239
390.2496, 132.7518
390.7317, 132.2991
391.2138, 117.3256
391.6959, 102.7057
392.1780, 99.73810
392.6602, 105.0326
393.1423, 108.5326
393.6244, 101.8728
394.1065, 94.79547
394.5886, 94.16962
395.0707, 103.5615
395.5529, 111.4366
396.0350, 112.3252
396.5171, 109.9084
396.9992, 109.5572
397.4813, 117.0906
397.9634, 122.2955
398.4456, 120.2307
398.9277, 108.9930
399.4098, 103.1647
399.8919, 110.1409
400.3740, 119.2653
400.8561, 121.7764
401.3383, 109.5970
401.8204, 102.6444
402.3025, 105.7346
402.7846, 116.8549
403.2667, 121.9717
403.7488, 116.6418
404.2310, 112.1021
404.7131, 116.5924
405.1952, 134.5337
405.6773, 143.8074
406.1594, 140.6293
406.6415, 130.8855
407.1237, 128.5501
407.6058, 134.7999
408.0879, 138.6109
408.5700, 131.7713
409.0521, 115.9080
409.5342, 114.9219
410.0164, 131.6885
410.4985, 150.1292
410.9806, 148.6187
411.4627, 130.8026
411.9448, 116.9859
412.4269, 115.6617
412.9091, 121.1131
413.3912, 119.8881
413.8733, 112.7041
414.3554, 108.2145
414.8375, 118.1025
415.3196, 133.7375
415.8018, 140.5255
416.2839, 132.8145
416.7660, 121.8928
417.2481, 115.2283
417.7302, 111.7166
418.2123, 109.6656
418.6945, 110.1260
419.1766, 110.3630
419.6587, 107.9277
420.1408, 102.2653
420.6229, 98.21362
421.1050, 98.98041
421.5872, 101.2281
422.0693, 101.3814
422.5514, 96.21649
423.0335, 91.36621
423.5156, 88.33521
423.9977, 87.02527
424.4799, 84.74243
424.9620, 78.32355
425.4441, 72.93640
425.9262, 71.61664
426.4083, 78.57471
426.8904, 83.48950
427.3726, 86.82635
427.8547, 88.08490
428.3368, 84.67755
428.8189, 71.79303
429.3010, 60.93250
429.7831, 57.05566
430.2653, 61.16315
430.7474, 65.35321
431.2295, 71.09070
431.7116, 74.31720
432.1937, 67.85156
432.6758, 50.77258
433.1580, 36.20258
433.6401, 27.15393
434.1222, 23.48578
434.6043, 27.51862
435.0864, 39.59070
435.5685, 49.27692
436.0507, 44.52960
436.5328, 30.37610
437.0149, 22.68896
437.4970, 25.01282
437.9791, 31.68048
438.4612, 38.73932
438.9434, 44.99268
439.4255, 46.68414
439.9076, 35.43530
440.3897, 22.16132
440.8718, 20.15021
441.3539, 30.85223
441.8361, 40.48804
442.3182, 41.05847
442.8003, 36.00824
443.2824, 29.25885
443.7645, 16.71381
444.2466, 7.981567
444.7288, 8.853149
445.2109, 17.59650
445.6930, 24.96350
446.1751, 28.22760
446.6572, 30.08484
447.1393, 31.81488
447.6215, 33.31866
448.1036, 34.99811
448.5857, 37.03809
449.0678, 39.18097
449.5499, 41.35809
450.0320, 45.57471
450.5142, 46.37616
450.9963, 41.05554
451.4784, 29.38330
451.9605, 21.86224
452.4426, 19.89606
452.9247, 19.18732
453.4069, 13.95312
453.8890, 3.054321
454.3711, 1.353699
454.8532, 14.16302
455.3353, 33.82184
455.8174, 42.20013
456.2996, 39.46283
456.7817, 33.47156
457.2638, 26.87518
457.7459, 20.58191
458.2281, 16.51550
458.7102, 14.68335
459.1923, 16.09344
459.6744, 26.37030
460.1565, 40.51208
460.6386, 47.76971
461.1208, 37.89722
461.6029, 25.10016
462.0850, 23.54608
462.5671, 30.78619
463.0492, 33.44727
463.5313, 17.98560
464.0135, 0.5996700
464.4956, 10.40009
464.9777, 6.424744
465.4598, 0.7452390
465.9419, 5.336670
466.4240, 10.60205
466.9062, 12.94525
467.3883, 10.15668
467.8704, 6.227966
468.3525, 0.1737670
468.8346, 9.791138
469.3167, 9.842529
469.7989, 8.489014
470.2810, 27.14752
470.7631, 31.09644
471.2452, 12.27386
471.7273, 2.158508
472.2094, 7.502991
472.6916, 20.39215
473.1737, 19.80969
473.6558, 3.616516
474.1379, 11.89276
474.6200, 19.61505
475.1021, 19.95715
475.5843, 14.90381
476.0664, 3.401917
476.5485, 7.042725
477.0306, 5.251343
477.5127, 4.710510
477.9948, 9.831665
478.4770, 3.446289
478.9591, 5.948730
479.4412, 6.972717
479.9233, 1.452026
480.4054, 2.640869
480.8875, 0.9504390
481.3697, 4.384949
481.8518, 12.68890
482.3339, 24.95282
482.8160, 34.95905
483.2981, 42.13812
483.7802, 44.72437
484.2624, 40.41949
484.7445, 17.55426
485.2266, 0.5249630
485.7087, 5.755493
486.1908, 0.9426880
486.6729, 5.585876
487.1551, 5.649658
487.6372, 5.526855
488.1193, 7.665955
488.6014, 14.06683
489.0835, 17.70020
489.5656, 17.97931
490.0478, 16.06842
490.5299, 13.14240
491.0120, 8.583740
491.4941, 5.968262
491.9762, 6.598022
492.4583, 10.04224
492.9405, 14.14923
493.4226, 18.92072
493.9047, 24.82642
494.3868, 35.28064
494.8689, 47.43817
495.3510, 51.36920
495.8332, 43.44006
496.3153, 33.29382
496.7974, 31.48700
497.2795, 35.90704
497.7616, 41.48151
498.2437, 47.17999
498.7259, 52.11096
499.2080, 54.88824
499.6901, 55.61853
500.1722, 57.52856
500.6543, 66.86151
501.1364, 75.15015
501.6186, 75.71655
502.1007, 60.79108
502.5828, 47.74176
503.0649, 37.74188
503.5470, 31.63318
504.0291, 31.25250
504.5113, 42.12073
504.9934, 51.68713
505.4755, 56.78076
505.9576, 57.29828
506.4397, 55.91888
506.9218, 51.18024
507.4040, 47.13245
507.8861, 47.85315
508.3682, 53.91614
508.8503, 58.41595
509.3324, 60.09406
509.8145, 60.52942
510.2967, 61.94568
510.7788, 64.43457
511.2609, 69.19824
511.7430, 80.51508
512.2252, 93.44507
512.7073, 97.04346
513.1894, 91.31879
513.6715, 84.70074
514.1536, 83.26825
514.6357, 85.00555
515.1179, 87.50031
515.6000, 90.58661
516.0821, 93.55029
516.5642, 95.84863
517.0463, 97.79419
517.5284, 100.0200
518.0106, 104.4060
518.4927, 107.5766
518.9748, 107.4485
519.4569, 103.4347
519.9390, 101.4041
520.4211, 103.6417
520.9033, 106.1361
521.3854, 105.8528
521.8675, 100.0383
522.3496, 96.85992
522.8317, 97.89825
523.3138, 102.6215
523.7960, 110.9691
524.2781, 124.0764
524.7602, 133.1251
525.2423, 133.8424
525.7244, 127.7787
526.2065, 120.2286
526.6887, 110.5758
527.1708, 103.7983
527.6529, 106.2673
528.1350, 114.2672
528.6171, 121.8771
529.0992, 128.4692
529.5814, 133.0375
530.0635, 133.5713
530.5456, 131.6615
531.0277, 130.5660
531.5098, 132.5191
531.9919, 133.9687
532.4741, 133.8496
532.9562, 132.5829
533.4383, 131.8360
533.9204, 129.8899
534.4025, 130.0426
534.8846, 134.5850
535.3668, 150.3989
535.8489, 157.0691
536.3310, 151.1457
536.8131, 140.0560
537.2952, 133.8455
537.7773, 133.0083
538.2595, 134.7351
538.7416, 141.2657
539.2237, 150.7147
539.7058, 150.3646
540.1879, 139.0561
540.6700, 126.4907
541.1522, 118.9381
541.6343, 115.7004
542.1164, 114.7109
542.5985, 115.8650
543.0806, 118.7068
543.5627, 125.0267
544.0449, 133.0461
544.5270, 137.4340
545.0091, 133.6271
545.4912, 127.6978
545.9733, 120.3887
546.4554, 113.2844
546.9376, 112.3134
547.4197, 130.7517
547.9018, 147.1784
548.3839, 148.0506
548.8660, 125.8579
549.3481, 111.5259
549.8303, 113.0660
550.3124, 119.8298
550.7945, 122.2864
551.2766, 117.0769
551.7587, 115.4327
552.2408, 120.5652
552.7230, 128.9342
553.2051, 130.2381
553.6872, 123.5005
554.1693, 116.3335
554.6514, 112.2562
555.1335, 110.6495
555.6157, 109.1133
556.0978, 107.6658
556.5799, 105.5115
557.0620, 100.5217
557.5441, 94.58698
558.0262, 91.78632
558.5084, 94.51196
558.9905, 96.70209
559.4726, 92.14514
559.9547, 84.06378
560.4368, 78.20752
560.9189, 78.91693
561.4011, 80.29608
561.8832, 79.19818
562.3653, 75.81647
562.8474, 75.27502
563.3295, 82.17084
563.8116, 88.82849
564.2938, 91.81403
564.7759, 90.39899
565.2580, 86.64343
565.7401, 77.94012
566.2222, 70.06073
566.7043, 72.81305
567.1865, 87.94879
567.6686, 96.84283
568.1507, 93.94092
568.6328, 83.69458
569.1149, 74.34991
569.5970, 66.11597
570.0792, 61.49811
570.5613, 65.26849
571.0434, 72.12598
571.5255, 73.37354
572.0076, 68.42664
572.4897, 64.75037
572.9719, 69.92664
573.4540, 77.76550
573.9361, 82.09021
574.4182, 81.55835
574.9003, 77.13727
575.3824, 65.35077
575.8646, 50.29114
576.3467, 40.20648
576.8288, 38.00446
577.3109, 38.05670
577.7930, 40.07800
578.2751, 43.82336
578.7573, 46.06860
579.2394, 46.87024
579.7215, 46.10327
580.2036, 43.27527
580.6857, 38.42633
581.1678, 32.97064
581.6500, 26.36566
582.1321, 21.88733
582.6142, 27.74261
583.0963, 39.49518
583.5784, 42.96521
584.0605, 29.61212
584.5427, 12.69727
585.0248, 4.692627
585.5069, 3.991821
585.9890, 6.061035
586.4711, 13.09833
586.9532, 18.63757
587.4354, 17.33527
587.9175, 8.411560
588.3996, 3.455200
588.8817, 10.62085
589.3638, 18.01617
589.8459, 18.10260
590.3281, 5.513733
590.8102, 3.940125
591.2923, 10.01013
591.7744, 13.07031
592.2565, 12.54346
592.7386, 7.771423
593.2208, 5.175598
593.7029, 7.657471
594.1850, 12.47498
594.6671, 11.75574
595.1492, 6.091064
595.6313, 1.011780
596.1135, 1.191101
596.5956, 3.404358
597.0777, 3.198975
597.5598, 0.2292480
598.0419, 3.430908
598.5240, 9.169067
599.0062, 13.64648
599.4883, 13.51086
599.9704, 4.508118
600.4525, 3.457214
600.9346, 10.16760
601.4167, 14.02417
601.8989, 11.83209
602.3810, 2.464966
602.8631, 12.70343
603.3452, 14.60571
603.8273, 9.629333
604.3094, 5.372925
604.7916, 1.318604
605.2737, 0.1666870
605.7558, 6.286316
606.2379, 17.40070
606.7200, 20.74329
607.2021, 15.47388
607.6843, 8.942505
608.1664, 6.918030
608.6485, 8.624939
609.1306, 13.20184
609.6127, 21.71106
610.0948, 30.02618
610.5770, 37.63342
611.0591, 42.84033
611.5412, 42.57239
612.0233, 27.26782
612.5054, 15.35260
612.9875, 14.60193
613.4697, 23.76257
613.9518, 29.02448
614.4339, 28.22937
614.9160, 26.75305
615.3981, 26.20270
615.8802, 26.28918
616.3624, 31.82404
616.8445, 44.22028
617.3266, 57.21735
617.8087, 64.55365
618.2908, 67.00543
618.7729, 68.52814
619.2551, 70.03986
619.7372, 70.07892
620.2193, 64.91101
620.7014, 57.09882
621.1835, 52.09473
621.6656, 53.55432
622.1478, 57.30103
622.6299, 60.49377
623.1120, 63.86218
623.5941, 70.56482
624.0762, 91.23920
624.5583, 106.3458
625.0405, 104.3643
625.5226, 81.39343
626.0047, 71.98706
626.4868, 80.78253
626.9689, 95.96069
627.4510, 109.5615
627.9332, 121.7001
628.4153, 129.5902
628.8974, 131.7957
629.3795, 133.0602
629.8616, 142.1927
630.3438, 156.5011
630.8259, 165.9082
631.3080, 164.0637
631.7901, 159.4850
632.2722, 162.0914
632.7543, 169.3407
633.2365, 173.6090
633.7186, 169.2705
634.2007, 163.1970
634.6828, 157.8744
635.1649, 153.4031
635.6470, 152.1259
636.1292, 157.5856
636.6113, 163.1827
637.0934, 165.2438
637.5755, 162.5542
638.0576, 160.6616
638.5397, 159.6892
639.0219, 159.2750
639.5040, 158.3040
639.9861, 156.9902
640.4682, 159.3486
640.9503, 168.2803
641.4324, 176.8341
641.9146, 172.0613
642.3967, 158.6356
642.8788, 149.2808
643.3609, 153.8422
643.8430, 161.5016
644.3251, 164.2104
644.8073, 162.9443
645.2894, 164.3189
645.7715, 174.7420
646.2536, 184.4231
646.7357, 188.4570
647.2178, 185.8035
647.7000, 183.5994
648.1821, 182.2769
648.6642, 180.4829
649.1463, 177.0197
649.6284, 171.8374
650.1105, 168.5396
650.5927, 167.9227
651.0748, 168.6386
651.5569, 169.3245
652.0390, 169.5601
652.5211, 168.4000
653.0032, 163.5590
653.4854, 160.5479
653.9675, 167.0553
654.4496, 179.1923
654.9317, 187.3871
655.4138, 186.3483
655.8959, 181.9948
656.3781, 174.8044
656.8602, 165.0681
657.3423, 159.9171
657.8244, 162.0881
658.3065, 165.4141
658.7886, 167.3174
659.2708, 168.0062
659.7529, 167.0844
660.2350, 164.5815
660.7171, 162.2859
661.1992, 165.6627
661.6813, 172.2219
662.1635, 168.2034
662.6456, 148.6726
663.1277, 128.4639
663.6099, 124.2328
664.0920, 130.6285
664.5741, 137.9547
665.0562, 148.1786
665.5383, 152.4120
666.0204, 141.2339
666.5026, 120.6404
666.9847, 107.4532
667.4668, 110.3434
667.9489, 114.5282
668.4310, 117.1224
668.9131, 118.1920
669.3953, 119.1623
669.8774, 121.1168
670.3595, 119.3441
670.8416, 107.1368
671.3237, 87.37494
671.8058, 79.74988
672.2880, 85.39648
672.7701, 90.93225
673.2522, 79.87585
673.7343, 62.68378
674.2164, 55.97620
674.6985, 66.50879
675.1807, 76.09100
675.6628, 74.38568
676.1449, 66.34222
676.6270, 57.71783
677.1091, 45.94708
677.5912, 38.56586
678.0734, 38.31830
678.5555, 42.13959
679.0376, 43.06885
679.5197, 40.13098
680.0018, 37.66663
680.4839, 36.64984
680.9661, 37.64069
681.4482, 43.36298
681.9303, 52.74493
682.4124, 56.42389
682.8945, 40.36029
683.3766, 19.47070
683.8588, 14.67511
684.3409, 26.13873
684.8230, 38.54773
685.3051, 45.71454
685.7872, 49.77234
686.2693, 52.10065
686.7515, 53.31677
687.2336, 51.04156
687.7157, 42.81494
688.1978, 33.28577
688.6799, 25.74860
689.1620, 19.48822
689.6442, 19.74011
690.1263, 29.33728
690.6084, 41.23535
691.0905, 43.55597
691.5726, 37.90430
692.0547, 32.37762
692.5369, 28.95813
693.0190, 27.42126
693.5011, 28.43951
693.9832, 31.15997
694.4653, 33.47150
694.9474, 37.29852
695.4296, 37.81946
695.9117, 29.10760
696.3938, 12.82312
696.8759, 6.646362
697.3580, 19.56329
697.8401, 30.91235
698.3223, 31.51923
698.8044, 21.16101
699.2865, 15.50873
699.7686, 14.76178
700.2507, 17.30573
700.7328, 24.57275
701.2150, 34.04364
701.6971, 37.07361
702.1792, 32.23096
702.6613, 27.72577
703.1434, 31.77631
703.6255, 39.15033
704.1077, 44.08472
704.5898, 45.24426
705.0719, 43.71802
705.5540, 38.37280
706.0361, 31.01398
706.5182, 23.62805
707.0004, 13.65857
707.4825, 9.863525
707.9646, 16.07776
708.4467, 26.58032
708.9288, 27.35980
709.4109, 18.52887
709.8931, 13.12030
710.3752, 18.60571
710.8573, 27.73773
711.3394, 27.40961
711.8215, 20.01746
712.3036, 14.93225
712.7858, 21.02277
713.2679, 27.68719
713.7500, 26.77509
714.2321, 18.52655
714.7142, 13.27783
715.1964, 15.73602
715.6785, 18.94714
716.1606, 20.18451
716.6427, 19.17828
717.1248, 18.87073
717.6069, 19.69397
718.0891, 19.81885
718.5712, 17.46552
719.0533, 13.04712
719.5354, 8.422729
720.0175, 3.716614
720.4996, 0.9728390
720.9818, 8.233093
721.4639, 14.41895
721.9460, 13.88074
722.4281, 0.8246460
722.9102, 9.370056
723.3923, 7.096924
723.8745, 0.7976070
724.3566, 2.418579
724.8387, 21.24786
725.3208, 31.00476
725.8029, 25.70422
726.2850, 12.66937
726.7672, 6.441345
727.2493, 7.009216
727.7314, 10.01013
728.2135, 15.16101
728.6956, 20.50348
729.1777, 23.59760
729.6599, 24.27014
730.1420, 22.19098
730.6241, 13.54834
731.1062, 5.327881
731.5883, 1.875488
732.0704, 2.920532
732.5526, 5.211548
733.0347, 10.80139
733.5168, 14.73889
733.9989, 14.13019
734.4810, 9.086121
734.9631, 11.38538
735.4453, 23.20300
735.9274, 33.31329
736.4095, 33.48462
736.8916, 25.58850
737.3737, 13.71057
737.8558, 2.134277
738.3380, 13.34204
738.8201, 12.46112
739.3022, 3.866821
739.7843, 10.11829
740.2664, 32.47443
740.7485, 47.46393
741.2307, 48.28235
741.7128, 40.78766
742.1949, 28.81891
742.6770, 7.189209
743.1591, 4.985718
743.6412, 4.791565
744.1234, 1.162537
744.6055, 5.348938
745.0876, 7.548950
745.5697, 6.237732
746.0518, 0.8156130
746.5339, 6.410217
747.0161, 5.3710002E-03
747.4982, 13.35016
747.9803, 24.55975
748.4624, 31.56274
748.9445, 34.32562
749.4266, 29.55634
749.9088, 20.81165
750.3909, 17.14294
750.8730, 22.06024
751.3551, 25.85480
751.8372, 25.81104
752.3193, 23.53223
752.8015, 24.61224
753.2836, 29.04669
753.7657, 33.36719
754.2478, 35.56415
754.7299, 36.98175
755.2120, 41.70776
755.6942, 48.26343
756.1763, 49.83154
756.6584, 37.03052
757.1405, 23.32385
757.6226, 14.97626
758.1047, 12.84454
758.5869, 16.55145
759.0690, 28.92975
759.5511, 41.72894
760.0332, 52.96179
760.5153, 62.29333
760.9974, 60.97968
761.4796, 48.07959
761.9617, 36.21027
762.4438, 37.56085
762.9259, 45.69922
763.4080, 47.96344
763.8901, 43.34851
764.3723, 38.93433
764.8544, 39.82605
765.3365, 42.35345
765.8186, 43.69025
766.3007, 43.25677
766.7828, 42.22241
767.2650, 38.49597
767.7471, 36.03894
768.2292, 38.94189
768.7113, 48.02985
769.1934, 55.33282
769.6755, 60.03717
770.1577, 61.96240
770.6398, 59.53394
771.1219, 54.40771
771.6040, 50.58417
772.0861, 49.44519
772.5682, 47.55591
773.0504, 39.27612
773.5325, 30.41736
774.0146, 27.85828
774.4967, 41.06067
774.9788, 49.87921
775.4609, 52.49670
775.9431, 50.86194
776.4252, 46.74414
776.9073, 39.89893
777.3894, 36.11108
777.8715, 35.82983
778.3536, 39.03381
778.8358, 50.29724
779.3179, 65.60046
779.8000, 73.17218
780.2821, 63.42157
780.7642, 51.72864
781.2463, 46.03149
781.7285, 45.44391
782.2106, 47.89453
782.6927, 56.74005
783.1748, 64.18628
783.6569, 69.73004
784.1390, 72.77643
784.6212, 70.62634
785.1033, 62.66486
785.5854, 55.72852
786.0675, 52.50299
786.5496, 51.41821
787.0317, 49.32800
787.5139, 47.00134
787.9960, 46.45233
788.4781, 51.13239
788.9602, 55.07471
789.4423, 53.95837
789.9244, 48.68939
790.4066, 44.55072
790.8887, 42.84308
791.3708, 41.51953
791.8529, 38.71613
792.3350, 35.48120
792.8171, 38.40808
793.2993, 48.01050
793.7814, 54.49255
794.2635, 50.32043
794.7456, 40.53870
795.2277, 32.78522
795.7098, 26.83765
796.1920, 21.43768
796.6741, 14.67737
797.1562, 10.69763
797.6383, 12.88525
798.1204, 21.47040
798.6025, 26.43500
799.0847, 26.45374
799.5668, 24.91217
800.0489, 23.34918
800.5310, 21.62994
801.0131, 16.16492
801.4952, 7.203064
801.9774, 3.835571
802.4595, 20.78058
802.9416, 43.32379
803.4237, 49.74884
803.9058, 39.72662
804.3879, 33.59314
804.8701, 52.20795
805.3522, 68.37628
805.8343, 60.79413
806.3164, 26.19037
806.7985, 11.70496
807.2806, 24.96838
807.7628, 41.28882
808.2449, 43.91797
808.7270, 34.96942
809.2091, 27.48096
809.6912, 21.73633
810.1733, 16.99115
810.6555, 12.44269
811.1376, 8.737000
811.6197, 6.765198
812.1018, 6.734863
812.5839, 6.881226
813.0660, 7.160645
813.5482, 7.037231
814.0303, 6.526367
814.5124, 5.929993
814.9945, 2.183899
815.4766, 5.475586
815.9587, 12.50897
816.4409, 14.12170
816.9230, 11.31342
817.4051, 6.760437
817.8872, 0.5736080
818.3693, 4.014709
818.8514, 2.828674
819.3336, 0.3942260
819.8157, 0.5397950
820.2978, 4.401794
820.7799, 8.321899
821.2620, 12.59723
821.7441, 16.04486
822.2263, 18.05981
822.7084, 18.62677
823.1905, 16.07568
823.6726, 9.729126
824.1547, 4.937683
824.6368, 9.863159
825.1190, 18.20605
825.6011, 18.67407
826.0832, 8.987793
826.5653, 1.784607
827.0474, 6.446045
827.5295, 13.54907
828.0117, 15.42126
828.4938, 9.405579
828.9760, 7.983765
829.4581, 12.58679
829.9402, 18.74457
830.4223, 23.47540
830.9044, 26.67975
831.3865, 27.56781
831.8687, 26.10358
832.3508, 23.19745
832.8329, 19.49402
833.3150, 14.86511
833.7971, 8.053467
834.2792, 2.274048
834.7614, 8.326599
835.2435, 7.959839
835.7256, 3.025330
836.2077, 7.715698
836.6898, 26.98706
837.1719, 34.05450
837.6541, 27.70483
838.1362, 17.78467
838.6183, 10.30438
839.1004, 6.127075
839.5825, 8.837219
840.0646, 19.06000
840.5468, 27.14520
841.0289, 26.12146
841.5110, 21.94696
841.9931, 18.16602
842.4752, 14.47998
842.9573, 15.14014
843.4395, 24.00452
843.9216, 30.31299
844.4037, 22.75665
844.8858, 4.011169
845.3679, 0.7533570
845.8500, 13.68829
846.3322, 28.18115
846.8143, 35.85114
847.2964, 37.28290
847.7785, 29.73352
848.2606, 12.15967
848.7427, 2.073914
849.2249, 13.17023
849.7070, 24.52704
850.1891, 24.83441
850.6712, 13.29718
851.1533, 10.04364
851.6354, 16.45892
852.1176, 22.66748
852.5997, 19.52075
853.0818, 12.00952
853.5639, 10.67078
854.0460, 15.39783
854.5281, 20.24890
855.0103, 23.30145
855.4924, 24.27472
855.9745, 22.19928
856.4566, 16.89355
856.9387, 13.20953
857.4208, 12.07227
857.9030, 10.37396
858.3851, 4.236145
858.8672, 3.784058
859.3493, 1.814697
859.8314, 19.58368
860.3135, 33.59271
860.7957, 30.99084
861.2778, 22.22845
861.7599, 12.79205
862.2420, 4.041565
862.7241, 2.654846
863.2062, 19.72595
863.6884, 33.44635
864.1705, 36.76031
864.6526, 31.47626
865.1347, 27.45142
865.6168, 24.65558
866.0989, 24.15576
866.5811, 29.06110
867.0632, 34.66974
867.5453, 33.48499
868.0274, 27.12347
868.5095, 21.10938
868.9916, 14.87744
869.4738, 12.37878
869.9559, 19.49951
870.4380, 31.59625
870.9201, 33.72028
871.4022, 23.64307
871.8843, 12.55286
872.3665, 1.938965
872.8486, 5.398560
873.3307, 0.6185910
873.8128, 12.73688
874.2949, 22.80310
874.7770, 23.46448
875.2592, 21.05835
875.7413, 17.29187
876.2234, 12.92010
876.7055, 9.728943
877.1876, 7.837219
877.6697, 7.116699
878.1519, 8.049561
878.6340, 9.460876
879.1161, 7.784363
879.5982, 4.574280
880.0803, 10.14008
880.5624, 31.95795
881.0446, 51.09265
881.5267, 47.61841
882.0088, 31.92365
882.4909, 18.32233
882.9730, 9.584534
883.4551, 4.116821
883.9373, 2.443420
884.4194, 2.583313
884.9015, 3.212219
885.3836, 4.288513
885.8657, 4.428467
886.3478, 3.092773
886.8300, 2.742981
887.3121, 9.062805
887.7942, 16.66632
888.2763, 17.29510
888.7584, 6.944092
889.2405, 0.8428340
889.7227, 0.9721680
890.2048, 2.092346
890.6869, 5.257141
891.1690, 7.908142
891.6511, 16.57294
892.1332, 32.76324
892.6154, 42.85461
893.0975, 26.74701
893.5796, 0.5302120
894.0617, 7.320190
894.5438, 4.604858
895.0259, 18.09430
895.5081, 30.22314
895.9902, 36.37518
896.4723, 31.06207
896.9544, 14.35645
897.4365, 4.086609
897.9186, 0.7087400
898.4008, 1.660461
898.8829, 9.145386
899.3650, 18.75073
899.8471, 15.85297
900.3292, 3.318542
900.8113, 3.845215
901.2935, 11.52625
901.7756, 25.77008
902.2577, 22.36127
902.7398, 5.019226
903.2219, 1.929993
903.7040, 6.375122
904.1862, 14.83148
904.6683, 19.67163
905.1504, 21.51654
905.6325, 21.50372
906.1146, 19.78241
906.5967, 16.77600
907.0789, 11.30530
907.5610, 7.447205
908.0431, 10.29211
908.5252, 16.07159
909.0073, 17.98352
909.4894, 11.54980
909.9716, 8.811279
910.4537, 12.25513
910.9358, 17.49640
911.4179, 17.32123
911.9000, 12.99341
912.3821, 11.71222
912.8643, 15.36633
913.3464, 19.66077
913.8285, 22.41071
914.3106, 23.20740
914.7927, 21.26306
915.2748, 14.50110
915.7570, 9.665894
916.2391, 6.578674
916.7212, 5.553528
917.2033, 7.807129
917.6854, 13.21509
918.1675, 24.22174
918.6497, 41.04224
919.1318, 51.90143
919.6139, 43.05646
920.0960, 27.48285
920.5781, 14.50537
921.0602, 5.171631
921.5424, 3.904907
922.0245, 17.85870
922.5066, 29.97449
922.9887, 33.55719
923.4708, 29.74689
923.9529, 23.41882
924.4351, 14.86633
924.9172, 8.206970
925.3993, 6.923157
925.8814, 7.536621
926.3635, 6.004517
926.8456, 3.702881
927.3278, 4.597473
927.8099, 15.87433
928.2920, 21.83447
928.7741, 17.26465
929.2562, 8.519287
929.7383, 10.26099
930.2205, 21.39807
930.7026, 26.20441
931.1847, 19.41248
931.6668, 12.07257
932.1489, 17.41144
932.6310, 27.71112
933.1132, 32.61237
933.5953, 28.25446
934.0774, 20.60406
934.5595, 6.696228
935.0416, 5.906433
935.5237, 10.06262
936.0059, 6.084106
936.4880, 0.1199340
936.9701, 8.470947
937.4522, 13.86731
937.9343, 7.308105
938.4164, 1.119690
938.8986, 0.8444820
939.3807, 15.28650
939.8628, 21.00983
940.3449, 6.901001
940.8270, 4.554321
941.3091, 2.060425
941.7913, 11.11267
942.2734, 12.91034
942.7555, 4.455505
943.2376, 0.2218630
943.7197, 15.24225
944.2018, 32.15796
944.6840, 34.64801
945.1661, 26.77490
945.6482, 19.84723
946.1303, 15.64154
946.6124, 13.82648
947.0945, 15.28137
947.5767, 18.11938
948.0588, 19.01025
948.5409, 18.05426
949.0230, 15.87299
949.5051, 12.19489
949.9872, 8.988159
950.4694, 4.714417
950.9515, 3.497681
951.4336, 11.37000
951.9157, 39.96130
952.3978, 52.65771
952.8799, 42.20886
953.3621, 26.48792
953.8442, 20.09161
954.3263, 21.37488
954.8084, 21.56818
955.2905, 20.35638
955.7726, 18.54309
956.2548, 15.92969
956.7369, 13.50592
957.2190, 10.52490
957.7011, 7.460938
958.1832, 11.79523
958.6653, 29.59320
959.1475, 40.69659
959.6296, 34.76746
960.1117, 20.04407
960.5938, 18.49829
961.0759, 27.42950
961.5580, 36.53619
962.0402, 42.99469
962.5223, 46.13135
963.0044, 44.90778
963.4865, 40.24878
963.9686, 33.08124
964.4507, 19.86505
964.9329, 14.68597
965.4150, 20.46887
965.8971, 29.23669
966.3792, 29.69269
966.8613, 25.84076
967.3434, 28.71564
967.8256, 40.79144
968.3077, 49.63861
968.7898, 45.06488
969.2719, 38.26459
969.7540, 36.61975
970.2361, 40.35474
970.7183, 46.20593
971.2004, 55.25391
971.6825, 60.70953
972.1646, 57.05493
972.6467, 48.23669
973.1288, 37.65741
973.6110, 27.37708
974.0931, 24.83276
974.5752, 40.90375
975.0573, 56.15710
975.5394, 66.54706
976.0215, 71.52234
976.5037, 68.00220
976.9858, 55.49457
977.4679, 47.16235
977.9500, 45.68042
978.4321, 47.72778
978.9142, 53.42944
979.3964, 58.62256
979.8785, 56.26654
980.3606, 40.55518
980.8427, 31.86426
981.3248, 36.90796
981.8069, 44.87329
982.2891, 49.90839
982.7712, 52.00531
983.2533, 50.22455
983.7354, 44.74640
984.2175, 39.77606
984.6996, 36.15076
985.1818, 35.88019
985.6639, 43.57837
986.1460, 57.05493
986.6281, 64.35889
987.1102, 61.65771
987.5923, 58.13983
988.0745, 54.68646
988.5566, 52.86157
989.0387, 57.49030
989.5208, 66.70386
990.0029, 74.28503
990.4850, 79.58740
990.9672, 79.86774
991.4493, 67.66406
991.9314, 53.14062
992.4135, 47.01263
992.8957, 51.26178
993.3778, 58.25800
993.8599, 69.90179
994.3420, 78.35638
994.8242, 72.28265
995.3063, 60.85107
995.7884, 62.02875
996.2705, 73.93909
996.7526, 83.33917
997.2347, 83.76923
997.7169, 80.26855
998.1990, 72.17578
998.6811, 62.37274
999.1632, 60.89069
999.6453, 68.06592
1000.127, 73.31860
1000.610, 73.53284
1001.092, 70.75610
1001.574, 66.24347
1002.056, 60.72174
1002.538, 54.81482
1003.020, 44.71191
1003.502, 43.15173
1003.984, 55.85120
1004.466, 69.59717
1004.949, 72.17316
1005.431, 65.34369
1005.913, 61.27930
1006.395, 60.38788
1006.877, 63.67523
1007.359, 77.85901
1007.841, 89.44183
1008.323, 85.22528
1008.806, 68.62769
1009.288, 63.35345
1009.770, 74.47736
1010.252, 81.10297
1010.734, 76.72394
1011.216, 66.72552
1011.698, 58.09003
1012.180, 51.26117
1012.662, 47.18530
1013.145, 46.29907
1013.627, 47.77832
1014.109, 54.09155
1014.591, 60.52112
1015.073, 63.58105
1015.555, 63.12964
1016.037, 59.61420
1016.519, 52.72150
1017.002, 48.46008
1017.484, 55.29028
1017.966, 63.95862
1018.448, 63.94110
1018.930, 56.45892
1019.412, 50.91656
1019.894, 51.88812
1020.376, 50.18811
1020.858, 42.64221
1021.341, 33.08026
1021.823, 29.13586
1022.305, 29.98895
1022.787, 32.47510
1023.269, 35.93500
1023.751, 40.45453
1024.233, 53.24927
1024.715, 62.13928
1025.198, 51.87152
1025.680, 15.04840
1026.162, 5.586731
1026.644, 28.49384
1027.126, 51.90070
1027.608, 50.57703
1028.090, 37.59424
1028.572, 33.84192
1029.054, 37.08325
1029.536, 37.75183
1030.019, 27.58319
1030.501, 20.66382
1030.983, 20.48553
1031.465, 24.64343
1031.947, 32.05481
1032.429, 41.47998
1032.911, 38.36566
1033.393, 18.07904
1033.876, 2.163025
1034.358, 9.675110
1034.840, 9.490417
1035.322, 4.218384
1035.804, 7.167542
1036.286, 11.19141
1036.768, 5.272705
1037.250, 0.4660640
1037.733, 4.098694
1038.215, 11.57605
1038.697, 12.80707
1039.179, 9.430054
1039.661, 6.480774
1040.143, 5.343628
1040.625, 5.782288
1041.107, 7.390930
1041.589, 10.73627
1042.072, 18.43781
1042.554, 30.55029
1043.036, 34.69855
1043.518, 29.30688
1044.000, 21.13782
1044.482, 14.01581
1044.964, 8.314148
1045.446, 4.527405
1045.928, 2.778931
1046.411, 1.610657
1046.893, 0.8712770
1047.375, 0.8411870
1047.857, 2.360962
1048.339, 4.688354
1048.821, 5.614075
1049.303, 6.015442
1049.785, 8.378601
1050.268, 15.67261
1050.750, 20.97620
1051.232, 23.31329
1051.714, 21.43323
1052.196, 10.99493
1052.678, 9.017822
1053.160, 12.27576
1053.642, 1.814270
1054.125, 17.17993
1054.607, 24.25641
1055.089, 26.19098
1055.571, 22.81598
1056.053, 16.49042
1056.535, 16.03931
1057.017, 25.36945
1057.499, 30.64111
1057.981, 28.52197
1058.464, 23.38623
1058.946, 22.12714
1059.428, 22.90601
1059.910, 20.88763
1060.392, 13.89636
1060.874, 10.40515
1061.356, 18.17499
1061.838, 26.03223
1062.320, 28.86249
1062.803, 26.68262
1063.285, 17.48413
1063.767, 1.939636
1064.249, 9.713013
1064.731, 12.38263
1065.213, 8.793152
1065.695, 4.161072
1066.177, 20.43512
1066.660, 28.74634
1067.142, 25.14441
1067.624, 19.85730
1068.106, 12.12579
1068.588, 7.728882
1069.070, 15.93103
1069.552, 30.12848
1070.034, 40.63501
1070.516, 46.52380
1070.999, 45.73071
1071.481, 24.85406
1071.963, 13.24292
1072.445, 23.53864
1072.927, 45.70325
1073.409, 54.03833
1073.891, 50.18121
1074.373, 42.01263
1074.855, 29.36487
1075.338, 20.26868
1075.820, 23.44507
1076.302, 30.50342
1076.784, 33.80951
1077.266, 32.93024
1077.748, 30.18640
1078.230, 25.43652
1078.713, 19.99011
1079.195, 12.00922
1079.677, 5.599487
1080.159, 9.268799
1080.641, 18.77380
1081.123, 23.59406
1081.605, 12.98602
1082.087, 10.04285
1082.569, 20.43933
1083.052, 31.97656
1083.534, 26.30847
1084.016, 10.02277
1084.498, 2.498230
1084.980, 5.590271
1085.462, 13.42206
1085.944, 30.65039
1086.426, 43.31055
1086.908, 45.10461
1087.391, 38.54095
1087.873, 30.76447
1088.355, 21.90186
1088.837, 17.16559
1089.319, 19.64203
1089.801, 22.16205
1090.283, 14.18024
1090.765, 4.903503
1091.248, 6.333801
1091.730, 23.06097
1092.212, 32.15277
1092.694, 33.24200
1093.176, 30.09241
1093.658, 21.82471
1094.140, 12.27350
1094.622, 8.833984
1095.104, 10.07574
1095.587, 12.47278
1096.069, 15.75177
1096.551, 17.80353
1097.033, 17.27325
1097.515, 17.23444
1097.997, 22.75464
1098.479, 31.97784
1098.961, 37.76154
1099.443, 39.53070
1099.926, 36.20917
1100.408, 19.17731
1100.890, 5.205200
1101.372, 5.598999
1101.854, 14.97870
1102.336, 17.50537
1102.818, 13.22504
1103.300, 7.352356
1103.783, 0.1223140
1104.265, 3.974548
1104.747, 1.770508
1105.229, 11.38751
1105.711, 19.51770
1106.193, 25.73340
1106.675, 30.16266
1107.157, 32.96490
1107.640, 33.15363
1108.122, 29.01428
1108.604, 23.11865
1109.086, 19.35956
1109.568, 17.14819
1110.050, 15.67365
1110.532, 12.23120
1111.014, 13.17963
1111.496, 23.75323
1111.979, 32.56915
1112.461, 24.87048
1112.943, 5.886841
1113.425, 4.241089
1113.907, 5.358948
1114.389, 1.458618
1114.871, 9.557129
1115.353, 20.50793
1115.835, 30.71246
1116.318, 38.04816
1116.800, 37.20190
1117.282, 28.78802
1117.764, 20.83850
1118.246, 14.24548
1118.728, 12.18170
1119.210, 24.24957
1119.692, 36.17651
1120.175, 33.15405
1120.657, 17.03180
1121.139, 11.97510
1121.621, 19.70221
1122.103, 24.35724
1122.585, 20.69409
1123.067, 13.63354
1123.549, 3.552185
1124.031, 4.227600
1124.514, 0.1804200
1124.996, 27.20245
1125.478, 39.78979
1125.960, 33.58063
1126.442, 24.16620
1126.924, 21.09546
1127.406, 21.38635
1127.888, 17.66083
1128.370, 11.97858
1128.853, 9.966614
1129.335, 19.09869
1129.817, 24.15521
1130.299, 21.25922
1130.781, 16.73187
1131.263, 17.60999
1131.745, 22.44525
1132.227, 26.09839
1132.710, 28.18054
1133.192, 27.61371
1133.674, 18.23383
1134.156, 12.67529
1134.638, 19.32434
1135.120, 31.20721
1135.602, 33.25500
1136.084, 26.34180
1136.567, 20.56891
1137.049, 17.45129
1137.531, 17.70416
1138.013, 24.87317
1138.495, 33.21692
1138.977, 38.11493
1139.459, 40.35132
1139.941, 42.72290
1140.423, 45.74207
1140.906, 47.03088
1141.388, 46.93494
1141.870, 42.53271
1142.352, 23.48364
1142.834, 2.183594
1143.316, 5.394104
1143.798, 6.561218
1144.280, 13.35510
1144.762, 13.88586
1145.245, 13.96082
1145.727, 18.15594
1146.209, 22.41956
1146.691, 17.98566
1147.173, 9.188782
1147.655, 5.472351
1148.137, 14.24500
1148.619, 20.36835
1149.102, 23.20886
1149.584, 23.94781
1150.066, 22.42426
1150.548, 19.96124
1151.030, 21.17023
1151.512, 24.79675
1151.994, 24.07178
1152.476, 8.569580
1152.958, 0.6392210
1153.441, 1.910522
1153.923, 10.07593
1154.405, 17.70422
1154.887, 23.68396
1155.369, 22.60455
1155.851, 13.92987
1156.333, 6.216309
1156.815, 3.053162
1157.297, 2.812988
1157.780, 5.272644
1158.262, 9.478882
1158.744, 12.68585
1159.226, 15.25519
1159.708, 20.77582
1160.190, 31.54584
1160.672, 36.74310
1161.154, 22.37427
1161.637, 6.017639
1162.119, 0.1350710
1162.601, 3.086426
1163.083, 2.883972
1163.565, 0.4729000
1164.047, 0.7839360
1164.529, 13.04663
1165.011, 23.15881
1165.494, 16.55090
1165.976, 4.815796
1166.458, 0.5357670
1166.940, 4.950439
1167.422, 10.00726
1167.904, 16.02802
1168.386, 17.44220
1168.868, 5.001770
1169.350, 6.986755
1169.833, 2.630737
1170.315, 10.69446
1170.797, 20.38739
1171.279, 25.32428
1171.761, 24.97754
1172.243, 18.66351
1172.725, 13.77795
1173.207, 19.29242
1173.689, 26.85345
1174.172, 25.36774
1174.654, 17.33557
1175.136, 13.27600
1175.618, 16.09216
1176.100, 18.54388
1176.582, 20.19885
1177.064, 20.29291
1177.546, 16.12305
1178.029, 11.04816
1178.511, 9.788513
1178.993, 12.34467
1179.475, 16.06256
1179.957, 22.84265
1180.439, 25.23090
1180.921, 20.34589
1181.403, 13.84351
1181.885, 14.73956
1182.368, 19.46112
1182.850, 19.91852
1183.332, 14.69916
1183.814, 11.34106
1184.296, 12.86871
1184.778, 13.03186
1185.260, 8.710938
1185.742, 3.717285
1186.224, 8.704407
1186.707, 17.81702
1187.189, 19.44452
1187.671, 8.784119
1188.153, 2.637939
1188.635, 7.784729
1189.117, 12.76422
1189.599, 11.95819
1190.081, 7.639282
1190.564, 5.325134
1191.046, 4.850647
1191.528, 6.039673
1192.010, 10.01434
1192.492, 13.00427
1192.974, 13.30798
1193.456, 13.12933
1193.938, 13.72223
1194.421, 14.93335
1194.903, 17.79382
1195.385, 20.96649
1195.867, 19.60895
1196.349, 3.688110
1196.831, 5.376404
1197.313, 2.100464
1197.795, 11.79120
1198.277, 9.328674
1198.760, 1.778687
1199.242, 2.397400
1199.724, 5.983215
1200.206, 13.27960
1200.688, 1.6663000E-02
1201.170, 13.79224
1201.652, 21.86096
1202.134, 24.04138
1202.616, 2.699890
1203.099, 11.73083
1203.581, 8.585449
1204.063, 4.939514
1204.545, 18.24164
1205.027, 0.3098750
1205.509, 13.32825
1205.991, 13.99640
1206.473, 20.31952
1206.956, 14.39215
1207.438, 12.24658
1207.920, 22.35352
1208.402, 25.67438
1208.884, 18.33142
1209.366, 25.00659
1209.848, 6.630310
1210.330, 10.23096
1210.813, 23.11926
1211.295, 16.30298
1211.777, 23.19238
1212.259, 24.88965
1212.741, 2.998901
1213.223, 22.12646
1213.705, 23.51318
1214.187, 6.669373
1214.669, 24.33063
1215.151, 9.947571
1215.634, 7.072083
1216.116, 12.79352
1216.598, 9.531555
1217.080, 20.41400
1217.562, 17.67114
1218.044, 13.70557
1218.526, 15.05188
1219.008, 1.339600
1219.491, 15.53876
1219.973, 10.52209
1220.455, 15.08966
1220.937, 21.80200
1221.419, 11.93439
1221.901, 19.55676
1222.383, 0.2646480
1222.865, 3.582214
1223.348, 4.463623
1223.830, 19.76343
1224.312, 0.4775390
1224.794, 3.129089
1225.276, 15.11206
1225.758, 14.07806
1226.240, 18.48560
1226.722, 6.745911
1227.204, 9.588806
1227.687, 8.531799
1228.169, 22.20233
1228.651, 24.49030
1229.133, 13.05164
1229.615, 1.671753
1230.097, 16.38086
1230.579, 6.360046
1231.061, 2.029480
1231.543, 3.241333
1232.026, 1.719604
1232.508, 5.634705
1232.990, 16.68024
1233.472, 29.51953
1233.954, 35.19012
1234.436, 23.93164
1234.918, 13.03534
1235.400, 4.408997
1235.883, 0.2239990
1236.365, 2.408386
1236.847, 10.27130
1237.329, 14.30096
1237.811, 15.47961
1238.293, 18.94971
1238.775, 34.40918
1239.257, 40.86194
1239.740, 31.16315
1240.222, 18.29034
1240.704, 17.01941
1241.186, 23.14117
1241.668, 25.75635
1242.150, 24.36340
1242.632, 18.89575
1243.114, 1.179565
1243.596, 8.040100
1244.079, 3.313049
1244.561, 5.693115
1245.043, 7.514832
1245.525, 5.766479
1246.007, 8.565735
1246.489, 15.42725
1246.971, 20.85315
1247.453, 23.78137
1247.936, 24.29089
1248.418, 22.10663
1248.900, 17.94440
1249.382, 8.093750
1249.864, 1.480103
1250.346, 5.734924
1250.828, 26.99866
1251.310, 38.75745
1251.792, 33.02612
1252.275, 27.94543
1252.757, 26.56616
1253.239, 25.09692
1253.721, 16.57440
1254.203, 6.348877
1254.685, 1.895569
1255.167, 3.389038
1255.649, 6.822327
1256.131, 12.12976
1256.614, 18.22919
1257.096, 25.48163
1257.578, 31.56519
1258.060, 35.18823
1258.542, 35.31018
1259.024, 27.96997
1259.506, 14.29132
1259.988, 8.242554
1260.471, 11.20300
1260.953, 14.48767
1261.435, 16.51709
1261.917, 18.48230
1262.399, 23.63165
1262.881, 27.53680
1263.363, 24.77979
1263.845, 16.60950
1264.328, 14.56647
1264.810, 18.82312
1265.292, 20.48035
1265.774, 16.93317
1266.256, 13.64697
1266.738, 17.49603
1267.220, 21.16333
1267.702, 17.97406
1268.184, 11.14075
1268.667, 14.88519
1269.149, 28.12500
1269.631, 34.13873
1270.113, 28.05176
1270.595, 22.82660
1271.077, 33.66833
1271.559, 40.70825
1272.041, 29.98401
1272.523, 8.730652
1273.006, 1.473633
1273.488, 4.191895
1273.970, 7.415955
1274.452, 6.478943
1274.934, 5.861023
1275.416, 8.542969
1275.898, 10.52130
1276.380, 8.282593
1276.863, 5.973145
1277.345, 16.90308
1277.827, 34.52930
1278.309, 39.61847
1278.791, 13.63641
1279.273, 26.89417
1279.755, 34.04523
1280.237, 35.32880
1280.719, 13.10901
1281.202, 21.28809
1281.684, 17.30103
1282.166, 12.85114
1282.648, 25.37048
1283.130, 6.682068
1283.612, 18.98309
1284.094, 18.94427
1284.576, 24.58240
1285.058, 17.99841
1285.541, 15.23279
1286.023, 24.74158
1286.505, 27.49219
1286.987, 19.59979
1287.469, 25.74573
1287.951, 6.723999
1288.433, 9.850708
1288.915, 22.50970
1289.398, 15.39557
1289.880, 21.93933
1290.362, 23.32690
1290.844, 1.155334
1291.326, 20.03650
1291.808, 21.20526
1292.290, 4.188049
1292.772, 21.74963
1293.255, 7.304260
1293.737, 4.326477
1294.219, 9.987793
1294.701, 6.711853
1295.183, 17.61652
1295.665, 14.94434
1296.147, 11.09521
1296.629, 12.59888
1297.111, 1.114685
1297.594, 13.26721
1298.076, 8.668762
1298.558, 13.52014
1299.040, 20.63525
1299.522, 11.33197
1300.004, 4.760254
1300.486, 1.1292000E-02
1300.968, 2.731323
1301.450, 9.586060
1301.933, 7.726196
1302.415, 0.0000000E+00
##END=



