##NAMES=Fluorapatite
##RRUFFID=R050369
##IDEAL CHEMISTRY=Ca_5_(PO_4_)_3_F
##LOCALITY=Russia
##OWNER=RRUFF
##SOURCE=Eugene Schlepp
##DESCRIPTION=Blueish-green hexagonal prismatic crystal
##STATUS=The identification of this mineral has been confirmed by X-ray diffraction and chemical analysis
##URL=rruff.info/R050369
##MEASURED CHEMISTRY=(Ca_0.99_Na_0.01_)_5_((P_0.98_S_0.02_)O_4_)_3_F_1.00_
129.1643, 0.0000000E+00
129.6464, 0.5056460
130.1285, 1.700165
130.6107, 1.786194
131.0928, 2.544281
131.5749, 4.376038
132.0570, 7.118683
132.5391, 10.31921
133.0212, 13.61588
133.5034, 17.03641
133.9855, 20.47760
134.4676, 23.32730
134.9497, 26.36307
135.4318, 30.09656
135.9139, 34.55466
136.3960, 39.41519
136.8782, 44.46176
137.3603, 49.86160
137.8424, 54.39169
138.3245, 59.43765
138.8066, 62.97144
139.2887, 64.21201
139.7709, 63.53275
140.2530, 61.11438
140.7351, 56.64349
141.2172, 50.48541
141.6993, 43.39731
142.1814, 34.57629
142.6636, 24.81406
143.1457, 16.99130
143.6278, 12.18848
144.1099, 9.277710
144.5920, 7.382568
145.0741, 6.449402
145.5563, 5.522308
146.0384, 3.428131
146.5205, 8.2184002E-02
147.0026, 2.571594
147.4847, 2.976898
147.9668, 2.560150
148.4490, 1.887360
148.9311, 1.055817
149.4132, 0.2142330
149.8953, 0.3632510
150.3774, 0.3319700
150.8595, 1.094421
151.3417, 2.953003
151.8238, 5.295410
152.3059, 7.340393
152.7880, 9.011963
153.2701, 10.74786
153.7522, 13.28372
154.2344, 18.28299
154.7165, 22.47314
155.1986, 25.49167
155.6807, 27.95987
156.1628, 30.19189
156.6449, 32.44891
157.1271, 34.64691
157.6092, 36.01776
158.0913, 36.48486
158.5734, 36.65573
159.0555, 37.04343
159.5376, 37.36691
160.0198, 36.44727
160.5019, 33.15320
160.9840, 28.34421
161.4661, 25.30954
161.9482, 24.68295
162.4303, 24.85712
162.9125, 25.17615
163.3946, 25.63550
163.8767, 25.74292
164.3588, 25.03995
164.8409, 23.86264
165.3230, 22.61389
165.8052, 20.91895
166.2873, 19.60687
166.7694, 20.14600
167.2515, 23.29770
167.7336, 26.04294
168.2157, 26.90134
168.6979, 26.64725
169.1800, 25.94342
169.6621, 25.11877
170.1442, 24.10101
170.6263, 22.41873
171.1084, 18.95270
171.5906, 16.41525
172.0727, 16.01584
172.5548, 16.86783
173.0369, 17.61664
173.5190, 17.69107
174.0011, 17.31036
174.4833, 17.52805
174.9654, 20.04434
175.4475, 21.62228
175.9296, 20.62735
176.4117, 18.41281
176.8938, 16.93784
177.3760, 17.89017
177.8581, 21.30511
178.3402, 23.56006
178.8223, 23.88565
179.3044, 24.18076
179.7865, 25.51361
180.2687, 27.27045
180.7508, 28.07422
181.2329, 26.46030
181.7150, 21.97885
182.1971, 19.55234
182.6792, 20.71823
183.1614, 22.58316
183.6435, 23.48431
184.1256, 23.48248
184.6077, 23.76440
185.0898, 25.35513
185.5719, 28.23569
186.0541, 30.01251
186.5362, 29.64197
187.0183, 28.96533
187.5004, 30.57199
187.9825, 34.73389
188.4646, 38.97086
188.9468, 40.88922
189.4289, 40.92053
189.9110, 40.66251
190.3931, 40.43600
190.8752, 40.46973
191.3573, 41.00998
191.8395, 42.18741
192.3216, 43.22720
192.8037, 42.97513
193.2858, 42.10257
193.7679, 42.29440
194.2500, 45.13593
194.7322, 49.45248
195.2143, 51.88544
195.6964, 51.79111
196.1785, 50.90732
196.6606, 49.74884
197.1427, 48.59921
197.6249, 48.14072
198.1070, 49.21014
198.5891, 51.62289
199.0712, 53.25449
199.5533, 53.30432
200.0354, 53.32541
200.5176, 54.04279
200.9997, 55.10486
201.4818, 55.67719
201.9639, 55.04031
202.4460, 53.18585
202.9281, 52.80371
203.4103, 56.28500
203.8924, 59.14447
204.3745, 59.40753
204.8566, 57.70917
205.3387, 56.16180
205.8208, 56.81281
206.3030, 60.13815
206.7851, 61.31897
207.2672, 58.27441
207.7493, 55.25995
208.2314, 54.15894
208.7135, 54.70099
209.1957, 55.48102
209.6778, 55.28745
210.1599, 54.07208
210.6420, 51.94275
211.1241, 47.82816
211.6062, 43.89847
212.0884, 41.39563
212.5705, 40.23972
213.0526, 39.48413
213.5347, 38.30432
214.0168, 36.63116
214.4989, 35.18411
214.9811, 33.51968
215.4632, 32.38461
215.9453, 32.94315
216.4274, 35.02927
216.9095, 36.43988
217.3916, 34.91687
217.8737, 30.39844
218.3559, 27.29745
218.8380, 27.12189
219.3201, 27.45914
219.8022, 25.59143
220.2843, 21.32343
220.7664, 17.96396
221.2486, 19.06757
221.7307, 23.55670
222.2128, 26.56107
222.6949, 26.57770
223.1770, 25.22516
223.6591, 24.27554
224.1413, 23.85077
224.6234, 23.28458
225.1055, 21.49719
225.5876, 19.25174
226.0697, 18.07706
226.5518, 18.94498
227.0340, 20.79532
227.5161, 22.17789
227.9982, 23.08365
228.4803, 23.50748
228.9624, 22.65161
229.4445, 21.45963
229.9267, 21.41589
230.4088, 23.70840
230.8909, 26.90100
231.3730, 28.15637
231.8551, 26.98206
232.3372, 25.02161
232.8194, 21.96152
233.3015, 18.90118
233.7836, 17.31198
234.2657, 18.07755
234.7478, 20.20172
235.2299, 21.51337
235.7121, 21.96463
236.1942, 21.68915
236.6763, 20.70621
237.1584, 19.15927
237.6405, 17.09576
238.1227, 14.47821
238.6048, 11.57697
239.0869, 9.008362
239.5690, 6.513062
240.0511, 4.862183
240.5332, 4.636353
241.0154, 5.017456
241.4975, 5.317505
241.9796, 5.247009
242.4617, 4.687317
242.9438, 3.250427
243.4259, 0.2005620
243.9081, 2.592651
244.3902, 5.549072
244.8723, 7.925293
245.3544, 8.878418
245.8365, 8.087952
246.3186, 6.104736
246.8008, 4.042542
247.2829, 0.8381960
247.7650, 0.6909180
248.2471, 0.7791140
248.7292, 3.235962
249.2113, 4.814758
249.6935, 4.885864
250.1756, 4.164612
250.6577, 4.081360
251.1398, 5.884949
251.6219, 6.480347
252.1040, 4.604736
252.5862, 2.248108
253.0683, 1.322449
253.5504, 2.365784
254.0325, 4.356506
254.5146, 5.643982
254.9967, 5.792786
255.4789, 5.952148
255.9610, 6.398987
256.4431, 6.697083
256.9252, 6.601074
257.4073, 6.017578
257.8894, 4.723755
258.3716, 2.273865
258.8537, 2.149109
259.3358, 5.559448
259.8179, 7.262390
260.3000, 8.389221
260.7821, 10.02368
261.2643, 12.35565
261.7464, 14.61591
262.2285, 15.77875
262.7106, 15.41748
263.1927, 16.43103
263.6748, 20.20398
264.1570, 24.52557
264.6391, 27.39966
265.1212, 28.63831
265.6033, 29.48370
266.0854, 31.26843
266.5675, 33.98767
267.0497, 35.13837
267.5318, 33.48517
268.0139, 31.03088
268.4960, 29.28558
268.9781, 28.31311
269.4602, 27.51538
269.9424, 26.55231
270.4245, 25.40430
270.9066, 24.05432
271.3887, 22.54572
271.8708, 20.80133
272.3529, 18.34271
272.8351, 15.29016
273.3172, 13.08704
273.7993, 13.13574
274.2814, 14.65369
274.7635, 14.85468
275.2456, 12.23529
275.7278, 9.782715
276.2099, 10.08191
276.6920, 12.83942
277.1741, 15.31573
277.6562, 15.97931
278.1383, 15.58392
278.6205, 15.80817
279.1026, 16.96082
279.5847, 18.49304
280.0668, 19.83875
280.5489, 21.07562
281.0310, 22.88354
281.5132, 25.73621
281.9953, 29.09814
282.4774, 32.15265
282.9595, 34.86292
283.4416, 37.32416
283.9237, 39.71338
284.4059, 41.98627
284.8880, 43.73114
285.3701, 44.34784
285.8522, 45.02258
286.3343, 47.01990
286.8164, 50.25214
287.2986, 53.78589
287.7807, 57.46478
288.2628, 61.17102
288.7449, 64.14056
289.2270, 65.70752
289.7091, 67.47797
290.1913, 71.22101
290.6734, 76.36804
291.1555, 81.17261
291.6376, 84.83325
292.1197, 87.60052
292.6018, 89.85114
293.0840, 91.11304
293.5661, 92.86609
294.0482, 96.00323
294.5303, 100.2303
295.0124, 105.3403
295.4945, 111.5159
295.9767, 118.2919
296.4588, 124.7822
296.9409, 130.8576
297.4230, 137.1310
297.9051, 144.7661
298.3872, 152.7013
298.8694, 159.6580
299.3515, 165.2402
299.8336, 169.7424
300.3157, 172.9108
300.7978, 174.2534
301.2799, 177.1578
301.7621, 184.1312
302.2442, 192.7527
302.7263, 201.5535
303.2084, 210.5941
303.6905, 218.6544
304.1726, 224.0345
304.6548, 226.5881
305.1369, 229.6351
305.6190, 233.7678
306.1011, 238.5363
306.5832, 243.7776
307.0653, 249.5195
307.5475, 255.3909
308.0296, 260.8160
308.5117, 265.8444
308.9938, 271.7277
309.4759, 278.9891
309.9580, 287.1263
310.4402, 296.3160
310.9223, 306.0162
311.4044, 314.5010
311.8865, 320.2211
312.3686, 323.6971
312.8507, 327.0909
313.3329, 329.8884
313.8150, 333.5674
314.2971, 338.2042
314.7792, 344.2708
315.2613, 353.0264
315.7434, 366.5189
316.2256, 382.2665
316.7077, 394.8901
317.1898, 403.8175
317.6719, 410.9148
318.1540, 414.8339
318.6361, 418.2664
319.1183, 424.5822
319.6004, 435.5071
320.0825, 447.7020
320.5646, 456.4474
321.0467, 461.1951
321.5288, 465.9973
322.0110, 472.0380
322.4931, 478.7191
322.9752, 485.9045
323.4573, 493.6014
323.9394, 501.0088
324.4215, 507.1715
324.9037, 511.9856
325.3858, 517.1090
325.8679, 523.5779
326.3500, 529.7991
326.8321, 534.5748
327.3142, 537.9701
327.7964, 540.7928
328.2785, 543.5974
328.7606, 546.3921
329.2427, 549.1155
329.7248, 552.4271
330.2069, 554.2220
330.6891, 552.0870
331.1712, 547.7305
331.6533, 544.7943
332.1354, 545.7852
332.6175, 548.8113
333.0996, 549.9764
333.5818, 548.9532
334.0639, 547.0403
334.5460, 544.5886
335.0281, 541.6969
335.5102, 538.2048
335.9923, 533.6819
336.4745, 529.4283
336.9566, 527.4514
337.4387, 527.9249
337.9208, 527.5355
338.4029, 524.3420
338.8850, 520.4069
339.3671, 517.9464
339.8492, 517.2384
340.3314, 516.4520
340.8135, 513.6415
341.2956, 509.2802
341.7777, 506.5881
342.2598, 507.1884
342.7419, 508.0646
343.2241, 506.8531
343.7062, 503.7616
344.1883, 499.5745
344.6704, 493.6185
345.1525, 486.9878
345.6346, 482.4968
346.1168, 481.0172
346.5989, 479.3146
347.0810, 474.5393
347.5631, 467.9653
348.0452, 461.6229
348.5273, 455.9492
349.0095, 450.7994
349.4916, 446.1680
349.9737, 442.0787
350.4558, 438.0305
350.9379, 434.3733
351.4200, 430.2242
351.9022, 424.2092
352.3843, 415.8085
352.8664, 406.8619
353.3485, 397.9683
353.8306, 389.4001
354.3127, 382.4135
354.7949, 377.7362
355.2770, 374.1189
355.7591, 370.5287
356.2412, 367.0479
356.7233, 361.8492
357.2054, 353.5947
357.6876, 343.4315
358.1697, 332.7406
358.6518, 321.5223
359.1339, 311.0516
359.6160, 303.3976
360.0981, 297.7625
360.5803, 290.0081
361.0624, 277.5243
361.5445, 264.3551
362.0266, 253.6090
362.5087, 245.2135
362.9908, 238.4637
363.4730, 233.8662
363.9551, 230.1042
364.4372, 223.1377
364.9193, 211.4131
365.4014, 199.4432
365.8835, 188.6648
366.3657, 179.0210
366.8478, 170.6843
367.3299, 163.9718
367.8120, 157.6058
368.2941, 149.1412
368.7762, 137.7334
369.2584, 128.0897
369.7405, 122.2427
370.2226, 117.6654
370.7047, 112.1113
371.1868, 105.2262
371.6689, 97.56616
372.1511, 89.38635
372.6332, 80.65662
373.1153, 72.86401
373.5974, 66.03015
374.0795, 59.95337
374.5616, 54.31848
375.0438, 49.33643
375.5259, 45.95386
376.0080, 45.04053
376.4901, 45.29749
376.9722, 42.00989
377.4543, 30.95142
377.9365, 21.85620
378.4186, 17.14661
378.9007, 14.22107
379.3828, 10.01550
379.8649, 3.749390
380.3470, 2.824219
380.8292, 7.288086
381.3113, 9.222046
381.7934, 10.02332
382.2755, 8.216431
382.7576, 6.697754
383.2397, 7.623291
383.7219, 10.47498
384.2040, 13.09863
384.6861, 13.73083
385.1682, 12.52002
385.6503, 11.97229
386.1324, 13.39856
386.6146, 14.02063
387.0967, 12.86963
387.5788, 10.80420
388.0609, 8.858276
388.5430, 7.487793
389.0251, 6.500122
389.5073, 5.649658
389.9894, 5.634155
390.4715, 4.208984
390.9536, 0.4537350
391.4357, 3.885132
391.9178, 8.107056
392.4000, 11.90601
392.8821, 14.89893
393.3642, 16.25903
393.8463, 15.88501
394.3284, 17.38306
394.8105, 22.13232
395.2927, 27.31750
395.7748, 31.92383
396.2569, 36.29419
396.7390, 41.19067
397.2211, 47.11108
397.7032, 53.52258
398.1854, 58.93323
398.6675, 62.71875
399.1496, 67.50952
399.6317, 75.64233
400.1138, 84.13928
400.5959, 90.08325
401.0781, 93.04712
401.5602, 96.45605
402.0423, 104.4711
402.5244, 116.4941
403.0065, 125.7330
403.4886, 129.5042
403.9708, 133.0892
404.4529, 140.9323
404.9350, 151.6112
405.4171, 161.2042
405.8992, 167.4972
406.3813, 171.9591
406.8635, 176.9209
407.3456, 182.4647
407.8277, 187.7476
408.3098, 191.9742
408.7919, 195.9417
409.2740, 200.8600
409.7562, 206.8184
410.2383, 213.7205
410.7204, 222.2473
411.2025, 231.7692
411.6846, 240.3917
412.1667, 247.4851
412.6489, 254.1362
413.1310, 261.3380
413.6131, 269.0675
414.0952, 278.2667
414.5773, 291.5497
415.0594, 304.7371
415.5416, 313.0321
416.0237, 316.7528
416.5058, 320.6239
416.9879, 327.7948
417.4700, 337.6498
417.9521, 346.7865
418.4343, 354.5725
418.9164, 362.5149
419.3985, 372.0607
419.8806, 381.7136
420.3627, 388.3658
420.8448, 391.0911
421.3270, 393.2969
421.8091, 400.1990
422.2912, 413.8008
422.7733, 426.6127
423.2554, 439.3098
423.7375, 450.6813
424.2197, 459.4053
424.7018, 465.9637
425.1839, 471.8864
425.6660, 478.2203
426.1481, 484.8953
426.6302, 491.6674
427.1124, 499.7788
427.5945, 506.2922
428.0766, 509.8881
428.5587, 512.2349
429.0408, 515.5577
429.5229, 520.3464
430.0051, 524.5292
430.4872, 525.0956
430.9693, 521.5082
431.4514, 516.6176
431.9335, 509.7721
432.4156, 502.1357
432.8978, 493.6407
433.3799, 484.6766
433.8620, 476.0065
434.3441, 468.3615
434.8262, 461.1536
435.3083, 452.5339
435.7905, 442.0293
436.2726, 431.4901
436.7547, 421.9490
437.2368, 412.3628
437.7189, 401.3809
438.2010, 388.4846
438.6832, 376.7651
439.1653, 370.2377
439.6474, 367.6880
440.1295, 362.8075
440.6116, 353.8831
441.0938, 343.9385
441.5759, 334.9663
442.0580, 327.0316
442.5401, 320.6243
443.0222, 317.8154
443.5043, 315.0555
443.9865, 308.0996
444.4686, 297.5100
444.9507, 288.0493
445.4328, 282.2559
445.9149, 278.6779
446.3970, 274.1930
446.8792, 269.0494
447.3613, 262.6902
447.8434, 254.1437
448.3255, 244.5754
448.8076, 235.3070
449.2897, 226.4838
449.7719, 218.1748
450.2540, 210.4064
450.7361, 203.1504
451.2182, 196.9777
451.7003, 192.8322
452.1824, 188.5770
452.6646, 183.6371
453.1467, 177.9933
453.6288, 171.6345
454.1109, 164.5337
454.5930, 157.0088
455.0751, 149.5878
455.5573, 142.1816
456.0394, 135.0669
456.5215, 127.8167
457.0036, 121.1545
457.4857, 115.3038
457.9678, 110.3969
458.4500, 106.7382
458.9321, 105.0149
459.4142, 104.5779
459.8963, 101.1942
460.3784, 92.00769
460.8605, 85.03528
461.3427, 84.11377
461.8248, 85.14929
462.3069, 83.85596
462.7890, 79.17029
463.2711, 74.03943
463.7532, 71.94031
464.2354, 72.58691
464.7175, 72.24390
465.1996, 70.56458
465.6817, 67.67151
466.1638, 62.98303
466.6459, 57.20483
467.1281, 52.09888
467.6102, 48.26599
468.0923, 45.35229
468.5744, 42.87463
469.0565, 40.87000
469.5386, 40.40308
470.0208, 42.83313
470.5029, 45.80005
470.9850, 44.24451
471.4671, 37.01465
471.9492, 32.45032
472.4313, 34.95044
472.9135, 39.78894
473.3956, 42.54797
473.8777, 42.62512
474.3598, 40.07056
474.8419, 34.22290
475.3240, 25.72742
475.8062, 21.17505
476.2883, 23.50342
476.7704, 25.57007
477.2525, 26.47693
477.7346, 26.14673
478.2167, 24.13367
478.6989, 20.50269
479.1810, 16.49854
479.6631, 13.57861
480.1452, 11.88940
480.6273, 10.63110
481.1094, 9.955200
481.5916, 9.646240
482.0737, 9.911865
482.5558, 10.59680
483.0379, 11.34753
483.5200, 12.00208
484.0021, 12.27478
484.4843, 11.24536
484.9664, 8.337769
485.4485, 7.072388
485.9306, 10.54480
486.4127, 13.93787
486.8948, 13.31982
487.3770, 9.243652
487.8591, 5.712769
488.3412, 5.941772
488.8233, 7.977539
489.3054, 7.819580
489.7875, 5.262329
490.2697, 2.557007
490.7518, 0.1918950
491.2339, 1.065186
491.7160, 0.4573970
492.1981, 6.405273
492.6802, 10.29089
493.1624, 6.832520
493.6445, 0.3292240
494.1266, 2.310913
494.6087, 0.2022710
495.0908, 3.376465
495.5729, 3.026978
496.0551, 0.8688960
496.5372, 2.726196
497.0193, 1.278076
497.5014, 0.2398680
497.9835, 1.328613
498.4656, 1.769653
498.9478, 0.8585210
499.4299, 1.502319
499.9120, 3.812500
500.3941, 3.638428
500.8762, 4.8799999E-04
501.3583, 2.119263
501.8405, 1.468384
502.3226, 0.4774170
502.8047, 0.1146240
503.2868, 0.4063720
503.7689, 0.7416990
504.2510, 1.377808
504.7331, 1.878540
505.2152, 1.283569
505.6974, 0.6308590
506.1795, 2.346069
506.6616, 3.114136
507.1437, 4.039551
507.6258, 6.501221
508.1079, 10.09216
508.5901, 12.53235
509.0722, 12.31543
509.5543, 10.52234
510.0364, 8.140137
510.5185, 5.222534
511.0006, 3.625732
511.4828, 4.902588
511.9649, 7.427002
512.4470, 7.491089
512.9291, 4.216919
513.4113, 1.905151
513.8934, 1.809937
514.3755, 3.124878
514.8576, 5.604980
515.3397, 8.920288
515.8218, 11.82751
516.3040, 13.44568
516.7861, 13.82788
517.2682, 13.37988
517.7503, 10.12952
518.2324, 8.543823
518.7145, 10.19373
519.1967, 12.95911
519.6788, 14.98413
520.1609, 15.88379
520.6430, 16.23193
521.1251, 16.55933
521.6072, 16.85498
522.0894, 17.03271
522.5715, 17.11548
523.0536, 17.02710
523.5357, 16.41028
524.0178, 15.77625
524.4999, 15.74597
524.9821, 16.49622
525.4642, 17.62305
525.9463, 19.28320
526.4284, 21.13586
526.9105, 21.24878
527.3926, 18.77502
527.8748, 16.36169
528.3569, 16.63025
528.8390, 18.69507
529.3211, 19.42590
529.8032, 17.43457
530.2853, 15.29529
530.7675, 14.65796
531.2496, 14.82935
531.7317, 14.30164
532.2138, 12.61243
532.6959, 10.78699
533.1780, 10.10913
533.6602, 10.75269
534.1423, 11.47461
534.6244, 13.20886
535.1065, 13.99170
535.5886, 12.15771
536.0707, 9.166870
536.5529, 7.458862
537.0350, 7.989502
537.5171, 9.271362
537.9992, 8.995972
538.4813, 6.951782
538.9634, 4.418701
539.4456, 0.2729490
539.9277, 3.000977
540.4098, 3.987549
540.8919, 3.313843
541.3740, 2.112305
541.8561, 0.4473880
542.3383, 0.7763670
542.8204, 8.6548001E-02
543.3025, 2.300415
543.7846, 4.435547
544.2667, 6.100098
544.7488, 6.866150
545.2310, 5.528015
545.7131, 2.395142
546.1952, 0.5451660
546.6773, 1.472290
547.1594, 2.853882
547.6415, 2.829956
548.1237, 2.060425
548.6058, 2.698120
549.0879, 5.683594
549.5700, 9.128906
550.0521, 9.946960
550.5342, 7.374512
551.0164, 4.332214
551.4985, 1.558960
551.9806, 5.387451
552.4627, 3.150879
552.9448, 2.291565
553.4269, 5.297485
553.9091, 3.130066
554.3912, 1.641296
554.8733, 4.940063
555.3554, 6.614136
555.8375, 7.727783
556.3196, 8.254700
556.8018, 8.384277
557.2839, 7.978577
557.7660, 7.198608
558.2481, 6.658752
558.7302, 6.262390
559.2123, 6.680969
559.6945, 9.174561
560.1766, 13.33032
560.6587, 17.24994
561.1408, 20.31561
561.6229, 23.18787
562.1050, 26.96265
562.5872, 31.97272
563.0693, 35.13495
563.5514, 33.57275
564.0335, 33.00403
564.5156, 37.80579
564.9977, 45.40979
565.4799, 50.93384
565.9620, 52.42206
566.4441, 51.78070
566.9262, 51.68768
567.4083, 51.75519
567.8904, 53.99805
568.3726, 61.13446
568.8547, 67.68878
569.3368, 71.50623
569.8189, 73.58704
570.3010, 75.69452
570.7831, 78.52448
571.2653, 81.22485
571.7474, 82.17596
572.2295, 81.77338
572.7116, 83.38428
573.1937, 88.03845
573.6758, 93.55377
574.1580, 98.15912
574.6401, 102.1339
575.1222, 106.5549
575.6043, 110.1946
576.0864, 115.7961
576.5685, 126.4657
577.0507, 139.5055
577.5328, 150.2177
578.0149, 157.4684
578.4970, 163.6231
578.9791, 171.4147
579.4612, 181.0126
579.9434, 188.0436
580.4255, 192.5878
580.9076, 194.3122
581.3897, 192.5762
581.8718, 188.2710
582.3539, 182.4629
582.8361, 175.3213
583.3182, 166.1075
583.8003, 151.6683
584.2824, 133.4105
584.7645, 122.4362
585.2466, 120.2445
585.7288, 121.1223
586.2108, 123.9979
586.6929, 127.5360
587.1750, 129.5585
587.6572, 129.4285
588.1393, 129.9040
588.6214, 132.5229
589.1035, 136.3140
589.5856, 140.8645
590.0677, 145.7524
590.5499, 148.6031
591.0320, 147.7961
591.5141, 143.9365
591.9962, 139.2598
592.4783, 133.5984
592.9604, 127.3236
593.4426, 120.3014
593.9247, 112.7816
594.4068, 104.7153
594.8889, 96.36896
595.3710, 87.86084
595.8531, 78.81500
596.3353, 70.61102
596.8174, 67.01715
597.2995, 68.76843
597.7816, 70.42407
598.2637, 71.10034
598.7458, 71.35242
599.2280, 71.45459
599.7101, 71.51178
600.1922, 71.91895
600.6743, 72.50867
601.1564, 73.45050
601.6385, 74.69330
602.1207, 76.49719
602.6028, 79.92554
603.0849, 85.51917
603.5670, 91.87421
604.0491, 96.90479
604.5313, 100.1146
605.0134, 103.8593
605.4955, 109.7271
605.9776, 114.4555
606.4597, 118.3401
606.9418, 119.6695
607.4240, 115.5678
607.9061, 105.7439
608.3882, 94.25208
608.8703, 85.63226
609.3524, 79.78809
609.8345, 72.61920
610.3167, 63.08392
610.7988, 53.87231
611.2809, 45.90436
611.7630, 39.84930
612.2451, 36.65784
612.7272, 36.71039
613.2094, 37.35291
613.6915, 37.89197
614.1736, 38.09424
614.6557, 37.60315
615.1378, 36.42694
615.6199, 34.83002
616.1021, 32.91675
616.5842, 30.88672
617.0663, 29.45978
617.5484, 29.90131
618.0305, 28.77576
618.5126, 25.06390
618.9948, 20.86023
619.4769, 16.85223
619.9590, 13.37024
620.4411, 10.93878
620.9232, 9.878418
621.4053, 9.587646
621.8875, 8.964661
622.3696, 8.032043
622.8517, 8.197266
623.3338, 10.21344
623.8159, 12.35126
624.2980, 13.18793
624.7802, 13.03473
625.2623, 12.79633
625.7444, 12.88110
626.2265, 12.43738
626.7086, 10.40192
627.1907, 7.919983
627.6729, 6.639038
628.1550, 6.816895
628.6371, 7.757751
629.1192, 8.987610
629.6013, 10.43457
630.0834, 11.43951
630.5656, 12.00177
631.0477, 12.08521
631.5298, 10.88483
632.0119, 9.874451
632.4940, 10.78748
632.9761, 13.18475
633.4583, 14.44385
633.9404, 12.11493
634.4225, 8.510559
634.9046, 7.374512
635.3867, 8.552490
635.8688, 10.19495
636.3510, 11.73663
636.8331, 13.50922
637.3152, 16.36572
637.7973, 20.55743
638.2794, 22.67859
638.7615, 20.42334
639.2437, 18.56079
639.7258, 19.74982
640.2079, 22.30078
640.6900, 23.79950
641.1721, 23.55243
641.6542, 22.35864
642.1364, 20.76953
642.6185, 18.93707
643.1006, 19.02155
643.5827, 22.29187
644.0648, 24.63934
644.5469, 23.57550
645.0291, 21.61688
645.5112, 20.91046
645.9933, 21.55969
646.4754, 22.54749
646.9575, 24.10822
647.4396, 25.39886
647.9218, 24.93805
648.4039, 23.07336
648.8860, 22.03790
649.3681, 22.81238
649.8502, 24.37476
650.3323, 25.23529
650.8145, 25.42108
651.2966, 24.67157
651.7787, 21.28949
652.2608, 18.97333
652.7429, 19.95251
653.2250, 22.12158
653.7072, 22.79907
654.1893, 21.34064
654.6714, 19.20575
655.1535, 17.07117
655.6356, 15.30682
656.1177, 15.87482
656.5999, 19.23291
657.0820, 21.32690
657.5641, 19.49597
658.0462, 16.06335
658.5283, 15.62152
659.0104, 18.75287
659.4926, 21.28485
659.9747, 22.73962
660.4568, 23.27551
660.9389, 22.22510
661.4210, 20.47675
661.9031, 20.20905
662.3853, 22.18561
662.8674, 24.11353
663.3495, 21.84930
663.8316, 14.87237
664.3137, 12.37164
664.7958, 17.30878
665.2780, 21.59625
665.7601, 19.99072
666.2422, 16.28497
666.7243, 15.02740
667.2064, 17.02112
667.6885, 19.00616
668.1707, 20.02637
668.6528, 19.90546
669.1349, 17.37329
669.6170, 13.10382
670.0991, 10.72321
670.5812, 12.05908
671.0634, 15.12427
671.5455, 16.40503
672.0276, 15.19501
672.5097, 14.72247
672.9918, 16.14441
673.4739, 16.66754
673.9561, 14.41357
674.4382, 11.51935
674.9203, 11.07288
675.4024, 13.85907
675.8845, 17.05042
676.3666, 18.36371
676.8488, 18.31494
677.3309, 17.91461
677.8130, 17.24646
678.2951, 17.18054
678.7772, 18.56573
679.2593, 20.06390
679.7415, 18.88293
680.2236, 13.32336
680.7057, 10.41846
681.1878, 12.63818
681.6699, 14.90070
682.1520, 14.09430
682.6342, 12.05310
683.1163, 12.21680
683.5984, 15.44653
684.0805, 18.63428
684.5626, 17.55444
685.0447, 13.26923
685.5269, 12.08118
686.0090, 14.75238
686.4911, 16.94025
686.9732, 16.73828
687.4553, 15.18768
687.9374, 13.59497
688.4196, 11.97247
688.9017, 10.76410
689.3838, 10.27484
689.8659, 9.971558
690.3480, 9.645752
690.8301, 9.292786
691.3123, 8.785339
691.7944, 8.110840
692.2765, 7.567810
692.7586, 7.312866
693.2407, 7.434448
693.7228, 8.790771
694.2050, 12.41846
694.6871, 14.42926
695.1692, 12.06177
695.6513, 8.453735
696.1334, 7.224304
696.6155, 8.383179
697.0977, 8.737183
697.5798, 5.783081
698.0619, 3.178406
698.5440, 4.471802
699.0261, 7.957642
699.5082, 10.04694
699.9904, 9.733398
700.4725, 8.502563
700.9546, 7.980469
701.4367, 8.085510
701.9188, 7.307068
702.4009, 4.535522
702.8831, 3.112061
703.3652, 6.005737
703.8473, 8.939209
704.3294, 7.601379
704.8115, 2.777710
705.2936, 0.2515260
705.7758, 4.694641
706.2579, 9.981873
706.7400, 10.70752
707.2221, 8.501709
707.7042, 6.866333
708.1863, 6.642822
708.6685, 6.968018
709.1506, 7.078186
709.6327, 7.023010
710.1148, 7.281433
710.5969, 8.719177
711.0790, 8.855286
711.5612, 5.724609
712.0433, 2.701721
712.5254, 2.098755
713.0075, 3.467712
713.4896, 5.092163
713.9717, 6.514404
714.4539, 7.610352
714.9360, 8.618225
715.4181, 9.151428
715.9002, 7.808594
716.3823, 4.504211
716.8644, 1.599121
717.3466, 0.8043820
717.8287, 1.743652
718.3108, 3.106323
718.7929, 5.683105
719.2750, 7.152649
719.7571, 6.973877
720.2393, 6.219116
720.7214, 5.431946
721.2035, 4.452393
721.6856, 2.663696
722.1677, 0.3653560
722.6498, 2.945862
723.1320, 3.688477
723.6141, 2.981934
724.0962, 0.9505000
724.5783, 2.172485
725.0604, 3.923889
725.5425, 2.749878
726.0247, 0.1011350
726.5068, 1.008789
726.9889, 0.1773680
727.4710, 0.5974730
727.9531, 2.6977999E-02
728.4352, 1.038086
728.9174, 3.521606
729.3995, 5.917480
729.8816, 5.838135
730.3637, 2.870056
730.8458, 2.7404999E-02
731.3279, 0.6189580
731.8101, 0.2115480
732.2922, 1.918335
732.7743, 4.212097
733.2564, 5.496887
733.7385, 5.142456
734.2206, 4.076965
734.7028, 3.401978
735.1849, 3.121338
735.6670, 3.176941
736.1491, 4.193359
736.6312, 4.736511
737.1133, 4.085327
737.5955, 3.238770
738.0776, 3.180298
738.5597, 3.858398
739.0418, 4.412048
739.5239, 4.470215
740.0060, 4.182434
740.4882, 3.492737
740.9703, 2.574646
741.4524, 2.155884
741.9345, 2.400452
742.4166, 2.358765
742.8987, 1.057251
743.3809, 1.033569
743.8630, 1.385620
744.3451, 1.995850
744.8272, 3.510010
745.3093, 1.190491
745.7914, 1.309692
746.2736, 1.449951
746.7557, 0.4268190
747.2378, 1.340454
747.7199, 5.873474
748.2020, 9.333069
748.6841, 6.473022
749.1663, 0.8829350
749.6484, 1.212769
750.1305, 0.3533940
750.6126, 3.074341
751.0947, 5.862427
751.5768, 7.981506
752.0590, 7.724915
752.5411, 3.991150
753.0232, 3.040039
753.5053, 7.130554
753.9874, 11.00439
754.4695, 13.09686
754.9517, 14.19238
755.4338, 14.80951
755.9159, 15.06860
756.3980, 15.79907
756.8801, 17.95715
757.3622, 20.25934
757.8444, 21.23187
758.3265, 21.38043
758.8086, 21.85645
759.2907, 22.99274
759.7728, 24.85736
760.2549, 27.75360
760.7371, 31.26001
761.2192, 32.33514
761.7013, 29.38318
762.1834, 28.25830
762.6655, 31.02191
763.1476, 34.74683
763.6298, 37.68304
764.1119, 40.08600
764.5940, 42.93896
765.0761, 47.20422
765.5582, 50.33411
766.0403, 50.11438
766.5225, 48.79218
767.0046, 48.54700
767.4867, 49.60297
767.9688, 51.89734
768.4509, 55.45325
768.9330, 59.06378
769.4152, 60.41394
769.8973, 59.38531
770.3794, 59.08466
770.8615, 59.57629
771.3436, 60.89691
771.8257, 63.49786
772.3079, 66.61615
772.7900, 69.15790
773.2721, 71.09235
773.7542, 72.84167
774.2363, 74.02448
774.7184, 75.50232
775.2006, 78.31134
775.6827, 81.43561
776.1648, 83.35022
776.6469, 83.92920
777.1290, 84.22101
777.6111, 84.87219
778.0933, 86.02197
778.5754, 88.47412
779.0575, 92.13684
779.5396, 94.19440
780.0217, 93.66943
780.5038, 92.72528
780.9860, 93.34052
781.4681, 95.13831
781.9502, 96.13849
782.4323, 95.14685
782.9144, 95.20874
783.3965, 97.89502
783.8787, 100.1588
784.3608, 99.55334
784.8429, 97.63745
785.3250, 96.99414
785.8071, 98.42242
786.2892, 100.5616
786.7714, 102.8183
787.2535, 104.6790
787.7356, 104.9686
788.2177, 104.0934
788.6998, 103.8083
789.1819, 104.6056
789.6641, 105.9758
790.1462, 107.4235
790.6283, 108.9058
791.1104, 109.3129
791.5925, 108.0998
792.0746, 107.0482
792.5568, 106.1420
793.0389, 105.6911
793.5210, 106.1137
794.0031, 107.1338
794.4852, 108.1053
794.9673, 109.1477
795.4495, 109.7051
795.9316, 108.7918
796.4137, 107.4280
796.8958, 107.2566
797.3779, 108.1136
797.8600, 108.5197
798.3422, 107.7087
798.8243, 106.4138
799.3064, 105.6813
799.7885, 105.4694
800.2706, 105.9467
800.7527, 107.6398
801.2349, 108.5199
801.7170, 106.9724
802.1991, 104.7823
802.6812, 105.1122
803.1633, 108.1832
803.6454, 109.3393
804.1276, 105.3106
804.6097, 102.6854
805.0918, 105.4559
805.5739, 109.8109
806.0560, 111.8231
806.5381, 111.3182
807.0203, 110.1922
807.5024, 109.4704
807.9845, 108.8854
808.4666, 107.7600
808.9487, 106.3120
809.4308, 105.3561
809.9130, 104.9823
810.3951, 105.3216
810.8772, 106.5720
811.3593, 108.2902
811.8414, 109.6196
812.3235, 110.5919
812.8057, 111.0390
813.2878, 110.2329
813.7699, 109.8047
814.2520, 110.3668
814.7341, 111.3836
815.2162, 112.3284
815.6984, 113.1640
816.1805, 114.1306
816.6626, 115.9692
817.1447, 117.3123
817.6268, 116.5370
818.1089, 114.8714
818.5911, 114.1466
819.0732, 114.6354
819.5553, 115.9190
820.0374, 117.8112
820.5195, 119.8785
821.0016, 121.0381
821.4838, 121.2452
821.9659, 122.4594
822.4480, 125.4809
822.9301, 127.1998
823.4122, 125.3329
823.8943, 121.8488
824.3765, 120.0956
824.8586, 120.2607
825.3407, 121.1902
825.8228, 124.0335
826.3049, 126.2024
826.7870, 125.9644
827.2692, 125.1827
827.7513, 126.0927
828.2334, 128.5765
828.7155, 130.5850
829.1976, 130.6607
829.6797, 130.4753
830.1619, 132.5414
830.6440, 135.6562
831.1261, 136.6674
831.6082, 135.3864
832.0903, 133.8778
832.5724, 133.2596
833.0546, 133.4644
833.5367, 134.5186
834.0188, 136.6237
834.5009, 138.1955
834.9830, 139.3415
835.4651, 139.7205
835.9473, 138.7892
836.4294, 137.3397
836.9115, 136.2558
837.3936, 135.5273
837.8757, 134.6507
838.3578, 133.2444
838.8400, 132.0269
839.3221, 131.2263
839.8042, 130.7982
840.2863, 131.0545
840.7684, 131.6174
841.2505, 131.3572
841.7327, 129.6272
842.2148, 127.6412
842.6969, 127.4151
843.1790, 127.9940
843.6611, 126.3231
844.1432, 122.3739
844.6254, 118.4295
845.1075, 115.4321
845.5896, 112.8655
846.0717, 109.9544
846.5538, 106.7119
847.0359, 104.3351
847.5181, 103.8647
848.0002, 102.2332
848.4823, 97.65848
848.9644, 92.84189
849.4465, 89.39941
849.9286, 87.22952
850.4108, 85.81274
850.8929, 85.11108
851.3750, 84.76685
851.8571, 85.79663
852.3392, 86.13583
852.8214, 83.57733
853.3035, 79.19223
853.7856, 75.06573
854.2677, 71.94244
854.7498, 69.57639
855.2319, 67.42691
855.7141, 65.80569
856.1962, 66.46945
856.6783, 69.02060
857.1604, 69.54483
857.6425, 66.90582
858.1246, 62.54193
858.6068, 57.34839
859.0889, 52.20282
859.5710, 50.25064
860.0531, 53.35809
860.5352, 54.35489
861.0173, 51.34509
861.4995, 48.66968
861.9816, 48.64227
862.4637, 49.64285
862.9458, 49.79758
863.4279, 48.99103
863.9100, 47.41714
864.3922, 44.12836
864.8743, 41.17764
865.3564, 40.10135
865.8385, 39.83423
866.3206, 38.55145
866.8027, 36.38727
867.2849, 35.47528
867.7670, 37.39313
868.2491, 39.88641
868.7312, 39.88470
869.2133, 38.14691
869.6954, 36.68579
870.1776, 35.67145
870.6597, 34.92776
871.1418, 34.39890
871.6239, 34.00955
872.1060, 33.68134
872.5881, 33.45218
873.0703, 32.77737
873.5524, 31.67941
874.0345, 30.04938
874.5166, 27.31131
874.9987, 24.64014
875.4808, 22.87024
875.9630, 21.90027
876.4451, 21.57147
876.9272, 22.35175
877.4093, 22.74445
877.8914, 22.55887
878.3735, 21.78220
878.8557, 19.78394
879.3378, 17.44839
879.8199, 16.35782
880.3020, 16.68933
880.7841, 16.65219
881.2662, 14.39874
881.7484, 11.72180
882.2305, 11.03372
882.7126, 11.61349
883.1947, 11.83591
883.6768, 11.43158
884.1589, 10.79041
884.6411, 10.16486
885.1232, 9.439880
885.6053, 8.112213
886.0874, 6.128571
886.5695, 5.833221
887.0516, 7.864349
887.5338, 9.045166
888.0159, 7.691986
888.4980, 5.753326
888.9801, 5.696289
889.4622, 7.513214
889.9443, 8.525452
890.4265, 8.516693
890.9086, 8.026306
891.3907, 6.599426
891.8728, 5.188538
892.3549, 4.312592
892.8370, 3.900208
893.3192, 3.858337
893.8013, 4.236115
894.2834, 4.339844
894.7655, 3.076355
895.2476, 2.115753
895.7297, 3.854034
896.2119, 6.483429
896.6940, 6.348816
897.1761, 3.274689
897.6582, 0.6886900
898.1403, 1.071869
898.6224, 2.874847
899.1046, 3.797638
899.5867, 3.925598
900.0688, 3.419098
900.5509, 2.323975
901.0330, 1.691162
901.5151, 2.052368
901.9973, 2.905029
902.4794, 3.584290
902.9615, 4.090729
903.4436, 4.103363
903.9257, 3.479309
904.4078, 2.716522
904.8900, 1.816040
905.3721, 0.9312130
905.8542, 0.1957400
906.3363, 0.4283750
906.8184, 1.115997
907.3005, 2.288086
907.7827, 2.470886
908.2648, 0.2378850
908.7469, 1.629089
909.2290, 1.665588
909.7111, 0.6332700
910.1932, 0.6494450
910.6754, 1.968414
911.1575, 3.203308
911.6396, 4.770020
912.1217, 5.520966
912.6038, 3.402527
913.0859, 0.5473330
913.5681, 0.5634460
914.0502, 2.858215
914.5323, 3.937653
915.0144, 2.298767
915.4965, 0.1920170
915.9786, 0.6942750
916.4607, 2.868500
916.9428, 2.949554
917.4249, 1.158875
917.9070, 0.7815250
918.3892, 2.733551
918.8713, 4.848572
919.3534, 5.391602
919.8355, 4.826385
920.3176, 4.524323
920.7997, 4.563263
921.2819, 4.505981
921.7640, 4.082245
922.2461, 4.134430
922.7282, 5.777740
923.2103, 7.432343
923.6924, 6.763245
924.1746, 3.915009
924.6567, 1.800232
925.1388, 0.8334660
925.6209, 0.2288510
926.1030, 5.1605001E-02
926.5851, 7.0799999E-03
927.0673, 0.1032100
927.5494, 0.2275390
928.0315, 0.1191710
928.5136, 0.2994690
928.9957, 0.2966000
929.4778, 0.9454650
929.9600, 2.335022
930.4421, 2.895660
930.9242, 3.064911
931.4063, 3.444092
931.8884, 4.167664
932.3705, 5.350128
932.8527, 7.154083
933.3348, 8.763611
933.8169, 8.575623
934.2990, 7.472137
934.7811, 8.071594
935.2632, 10.26538
935.7454, 12.38977
936.2275, 13.90033
936.7096, 15.57358
937.1917, 18.37567
937.6738, 21.63599
938.1559, 22.27405
938.6381, 19.72586
939.1202, 19.46384
939.6023, 22.62167
940.0844, 26.10300
940.5665, 28.36987
941.0486, 30.03000
941.5308, 31.84546
942.0129, 33.71964
942.4950, 36.92792
942.9771, 42.18976
943.4592, 47.71802
943.9413, 53.81873
944.4235, 59.55905
944.9056, 63.26706
945.3877, 66.45816
945.8698, 72.57346
946.3519, 82.55841
946.8340, 93.00027
947.3162, 101.8854
947.7983, 112.3122
948.2804, 126.0028
948.7625, 141.9891
949.2446, 159.0602
949.7267, 177.2969
950.2089, 197.7549
950.6910, 221.1733
951.1731, 246.1529
951.6552, 273.4739
952.1373, 300.3747
952.6194, 321.8256
953.1016, 340.1132
953.5837, 360.9662
954.0658, 386.1265
954.5479, 414.7686
955.0300, 446.4765
955.5121, 481.1041
955.9943, 517.3574
956.4764, 556.3217
956.9585, 602.4783
957.4406, 656.4124
957.9227, 714.8954
958.4048, 776.5225
958.8870, 843.6165
959.3691, 918.8002
959.8512, 1002.318
960.3333, 1097.183
960.8154, 1203.947
961.2975, 1316.236
961.7797, 1433.661
962.2618, 1554.167
962.7439, 1682.993
963.2260, 1804.782
963.7081, 1889.768
964.1902, 1942.460
964.6724, 1934.948
965.1545, 1854.920
965.6366, 1734.450
966.1187, 1556.368
966.6008, 1363.684
967.0829, 1180.669
967.5651, 1009.290
968.0472, 855.6660
968.5293, 719.0512
969.0114, 601.9449
969.4935, 507.8437
969.9756, 428.8377
970.4578, 363.9525
970.9399, 310.3197
971.4220, 266.1336
971.9041, 230.0462
972.3862, 198.7537
972.8683, 172.1555
973.3505, 148.6400
973.8326, 126.8422
974.3147, 107.7298
974.7968, 93.10526
975.2789, 81.88406
975.7610, 72.21375
976.2432, 63.40259
976.7253, 55.04691
977.2074, 46.76355
977.6895, 39.44791
978.1716, 34.14484
978.6537, 30.33124
979.1359, 27.03177
979.6180, 24.34680
980.1001, 23.41180
980.5822, 24.38647
981.0643, 24.70050
981.5464, 21.46014
982.0286, 16.47083
982.5107, 13.59546
982.9928, 12.44083
983.4749, 11.52756
983.9570, 10.60574
984.4391, 9.412659
984.9213, 7.784668
985.4034, 6.324738
985.8855, 5.975006
986.3676, 6.583679
986.8497, 7.111938
987.3318, 7.645691
987.8140, 7.583710
988.2961, 6.712250
988.7782, 5.644745
989.2603, 4.765778
989.7424, 3.974762
990.2245, 2.957245
990.7067, 1.567963
991.1888, 1.134308
991.6709, 2.032776
992.1530, 2.936035
992.6351, 3.722382
993.1172, 4.201691
993.5994, 3.974548
994.0815, 3.386017
994.5636, 3.591003
995.0457, 5.179993
995.5278, 5.935730
996.0099, 4.788605
996.4921, 4.189514
996.9742, 5.134125
997.4563, 6.584595
997.9384, 7.880402
998.4205, 8.927368
998.9026, 9.443604
999.3848, 8.967377
999.8669, 9.023163
1000.349, 10.20184
1000.831, 11.63583
1001.313, 12.96536
1001.795, 14.30737
1002.277, 15.98120
1002.760, 17.83670
1003.242, 19.17737
1003.724, 19.40915
1004.206, 20.06836
1004.688, 21.91025
1005.170, 24.38852
1005.652, 27.60626
1006.134, 30.91837
1006.617, 33.40186
1007.099, 35.00790
1007.581, 36.35834
1008.063, 37.61761
1008.545, 39.07349
1009.027, 41.82449
1009.509, 44.23740
1009.991, 44.04092
1010.473, 42.02332
1010.956, 40.18475
1011.438, 38.94922
1011.920, 37.26755
1012.402, 34.25424
1012.884, 30.82419
1013.366, 27.69507
1013.848, 25.18167
1014.330, 24.16772
1014.813, 24.26035
1015.295, 24.17535
1015.777, 23.53619
1016.259, 22.78302
1016.741, 22.20837
1017.223, 21.85202
1017.705, 21.80865
1018.187, 22.08167
1018.669, 23.03598
1019.152, 24.45435
1019.634, 24.40729
1020.116, 22.22812
1020.598, 20.08829
1021.080, 20.25928
1021.562, 22.05722
1022.044, 23.80478
1022.526, 25.43420
1023.008, 25.83810
1023.491, 24.91907
1023.973, 25.27365
1024.455, 28.11359
1024.937, 31.49576
1025.419, 33.10681
1025.901, 33.44937
1026.383, 34.91394
1026.865, 37.59216
1027.348, 40.21664
1027.830, 42.56674
1028.312, 45.31760
1028.794, 48.98672
1029.276, 52.68234
1029.758, 55.21695
1030.240, 56.74890
1030.722, 58.69266
1031.204, 60.84497
1031.687, 64.47205
1032.169, 70.96481
1032.651, 75.69281
1033.133, 75.65118
1033.615, 73.29071
1034.097, 71.94308
1034.579, 71.76630
1035.061, 72.09167
1035.544, 73.22498
1036.026, 73.50266
1036.508, 72.24377
1036.990, 71.53259
1037.472, 72.75113
1037.954, 74.59399
1038.436, 75.09543
1038.918, 74.34302
1039.401, 75.09790
1039.883, 78.50671
1040.365, 81.30374
1040.847, 83.94040
1041.329, 85.02228
1041.811, 83.31070
1042.293, 80.20532
1042.775, 77.41208
1043.257, 74.93573
1043.740, 72.29123
1044.222, 68.12329
1044.704, 65.87201
1045.186, 67.23969
1045.668, 68.74295
1046.150, 69.14822
1046.632, 68.68420
1047.114, 66.89893
1047.596, 64.06534
1048.079, 63.56348
1048.561, 66.39706
1049.043, 70.55911
1049.525, 77.73877
1050.007, 83.72900
1050.489, 85.90939
1050.971, 86.32434
1051.453, 87.56674
1051.936, 89.55099
1052.418, 90.25784
1052.900, 89.21906
1053.382, 87.30026
1053.864, 83.85541
1054.346, 80.18134
1054.828, 76.80765
1055.310, 73.91873
1055.792, 71.31973
1056.275, 69.06531
1056.757, 67.69940
1057.239, 67.89865
1057.721, 67.91910
1058.203, 67.76437
1058.685, 66.89056
1059.167, 64.16391
1059.649, 60.92068
1060.131, 59.05957
1060.614, 58.21066
1061.096, 55.89349
1061.578, 50.67191
1062.060, 45.93234
1062.542, 42.82343
1063.024, 40.54688
1063.506, 39.27576
1063.988, 38.18039
1064.471, 35.96185
1064.953, 33.04507
1065.435, 31.35739
1065.917, 31.68552
1066.399, 32.32684
1066.881, 32.53210
1067.363, 32.94711
1067.845, 34.87695
1068.328, 36.51419
1068.810, 35.21039
1069.292, 31.83264
1069.774, 29.79916
1070.256, 30.35339
1070.738, 30.38486
1071.220, 26.59644
1071.702, 24.21405
1072.184, 28.70529
1072.667, 34.25302
1073.149, 33.66162
1073.631, 28.88254
1074.113, 26.51678
1074.595, 28.44659
1075.077, 30.91559
1075.559, 31.85760
1076.041, 33.29919
1076.523, 37.21240
1077.006, 41.43695
1077.488, 44.38354
1077.970, 45.79944
1078.452, 45.36755
1078.934, 43.02826
1079.416, 40.63580
1079.898, 39.91467
1080.380, 38.20721
1080.862, 33.22760
1081.345, 27.46399
1081.827, 23.01227
1082.309, 19.57178
1082.791, 16.23584
1083.273, 12.82123
1083.755, 9.590515
1084.237, 5.954529
1084.719, 3.548401
1085.202, 4.615356
1085.684, 5.785645
1086.166, 3.938965
1086.648, 0.5519410
1087.130, 1.999329
1087.612, 3.372620
1088.094, 4.317810
1088.576, 4.658813
1089.058, 5.547852
1089.541, 9.097168
1090.023, 11.61670
1090.505, 8.998535
1090.987, 4.755005
1091.469, 3.782776
1091.951, 5.961731
1092.433, 5.013733
1092.915, 2.216675
1093.397, 0.6423950
1093.880, 3.049255
1094.362, 5.138489
1094.844, 6.481812
1095.326, 7.919922
1095.808, 10.61853
1096.290, 14.06384
1096.772, 16.49884
1097.254, 17.06836
1097.737, 18.67804
1098.219, 23.94360
1098.701, 28.26416
1099.183, 29.90356
1099.665, 29.56683
1100.147, 27.01471
1100.629, 23.17889
1101.111, 19.86493
1101.594, 17.29108
1102.076, 15.64069
1102.558, 15.54462
1103.040, 15.59735
1103.522, 15.74152
1104.004, 15.58521
1104.486, 15.17139
1104.968, 14.02606
1105.450, 10.50031
1105.932, 4.588806
1106.415, 1.896179
1106.897, 7.105530
1107.379, 10.25848
1107.861, 7.880188
1108.343, 4.855591
1108.825, 3.691406
1109.307, 3.287537
1109.789, 1.790894
1110.272, 0.5115970
1110.754, 1.299622
1111.236, 1.490967
1111.718, 2.545532
1112.200, 0.9411620
1112.682, 3.210327
1113.164, 0.9710690
1113.646, 2.295410
1114.129, 3.518127
1114.611, 3.007324
1115.093, 1.909058
1115.575, 0.6719360
1116.057, 1.293335
1116.539, 1.737366
1117.021, 4.175293
1117.503, 5.236755
1117.985, 5.711670
1118.468, 4.192627
1118.950, 2.258545
1119.432, 4.178406
1119.914, 9.463684
1120.396, 13.55255
1120.878, 15.58307
1121.360, 16.91968
1121.842, 18.29095
1122.324, 19.30115
1122.807, 19.84033
##END=



