##NAMES=Ganomalite
##RRUFFID=R050387
##IDEAL CHEMISTRY=Pb^2+^_3_Ca_2_(SiO_4_)(Si_2_O_7_)
##LOCALITY=Sells, Pima County, Arizona, USA
##OWNER=RRUFF
##SOURCE=University of Arizona Mineral Museum
##DESCRIPTION=Yellowish-red massive
##STATUS=The identification of this mineral has been confirmed by single-crystal X-ray diffraction.
##URL=rruff.info/R050387
226.5518, 0.0000000E+00
227.0340, 0.1791990
227.5161, 1.3916000E-02
227.9982, 3.411499
228.4803, 7.055786
228.9624, 7.232300
229.4445, 5.672852
229.9267, 4.787720
230.4088, 5.599976
230.8909, 7.880737
231.3730, 10.52502
231.8551, 13.49512
232.3372, 15.93958
232.8194, 18.23608
233.3015, 18.74658
233.7836, 18.26587
234.2657, 17.14734
234.7478, 15.14600
235.2299, 13.01379
235.7121, 11.63940
236.1942, 13.33618
236.6763, 19.18579
237.1584, 25.42297
237.6405, 27.14685
238.1227, 22.89783
238.6048, 16.21375
239.0869, 13.36096
239.5690, 17.80835
240.0511, 20.06177
240.5332, 17.13379
241.0154, 12.20654
241.4975, 8.069214
241.9796, 6.069702
242.4617, 6.433594
242.9438, 6.485962
243.4259, 8.789795
243.9081, 9.999390
244.3902, 7.712036
244.8723, 4.209839
245.3544, 1.026489
245.8365, 1.098877
246.3186, 2.223145
246.8008, 2.891479
247.2829, 3.399292
247.7650, 3.301392
248.2471, 2.114868
248.7292, 0.6027830
249.2113, 0.5622560
249.6935, 1.142578
250.1756, 1.333618
250.6577, 1.506226
251.1398, 1.562500
251.6219, 1.741577
252.1040, 1.925659
252.5862, 2.284668
253.0683, 3.151123
253.5504, 4.575684
254.0325, 6.064575
254.5146, 6.801147
254.9967, 6.309204
255.4789, 5.864502
255.9610, 6.067505
256.4431, 6.016235
256.9252, 4.262695
257.4073, 0.6297610
257.8894, 2.722961
258.3716, 2.580811
258.8537, 3.550903
259.3358, 6.466370
259.8179, 3.113831
260.3000, 1.619568
260.7821, 3.497986
261.2643, 1.807190
261.7464, 1.493958
262.2285, 4.432434
262.7106, 6.950562
263.1927, 9.199768
263.6748, 11.94531
264.1570, 13.92023
264.6391, 13.53528
265.1212, 10.74835
265.6033, 7.478882
266.0854, 5.035156
266.5675, 3.629028
267.0497, 4.892029
267.5318, 12.59271
268.0139, 20.39075
268.4960, 22.47443
268.9781, 18.75269
269.4602, 14.23700
269.9424, 12.29474
270.4245, 12.95593
270.9066, 14.50861
271.3887, 18.15027
271.8708, 21.75403
272.3529, 23.48926
272.8351, 23.47003
273.3172, 23.27539
273.7993, 23.91229
274.2814, 25.06207
274.7635, 25.58899
275.2456, 24.39844
275.7278, 23.78937
276.2099, 26.09839
276.6920, 30.92773
277.1741, 34.91742
277.6562, 36.08337
278.1383, 35.62982
278.6205, 36.10852
279.1026, 37.47955
279.5847, 39.84595
280.0668, 44.29968
280.5489, 50.30164
281.0310, 54.25391
281.5132, 53.57947
281.9953, 51.59839
282.4774, 53.60669
282.9595, 60.44141
283.4416, 66.28430
283.9237, 66.15417
284.4059, 62.25885
284.8880, 61.16302
285.3701, 65.96014
285.8522, 72.30060
286.3343, 75.58386
286.8164, 75.96130
287.2986, 75.59253
287.7807, 75.19293
288.2628, 74.89459
288.7449, 75.08936
289.2270, 75.74280
289.7091, 77.10303
290.1913, 79.60516
290.6734, 82.97284
291.1555, 86.29114
291.6376, 89.54999
292.1197, 92.39996
292.6018, 93.67456
293.0840, 92.51489
293.5661, 91.72906
294.0482, 93.81073
294.5303, 97.50824
295.0124, 100.6228
295.4945, 102.5544
295.9767, 103.2477
296.4588, 102.1298
296.9409, 98.54510
297.4230, 95.53912
297.9051, 95.16431
298.3872, 96.03979
298.8694, 96.69293
299.3515, 96.77338
299.8336, 96.37463
300.3157, 95.40222
300.7978, 93.69073
301.2799, 92.43860
301.7621, 92.84436
302.2442, 93.45087
302.7263, 92.72900
303.2084, 90.17719
303.6905, 87.31934
304.1726, 85.92975
304.6548, 86.11316
305.1369, 86.06940
305.6190, 85.59833
306.1011, 84.64130
306.5832, 82.62799
307.0653, 79.58954
307.5475, 77.28784
308.0296, 77.86639
308.5117, 81.00366
308.9938, 82.72595
309.4759, 81.80157
309.9580, 80.14496
310.4402, 79.18152
310.9223, 78.71771
311.4044, 77.92175
311.8865, 75.64661
312.3686, 72.45490
312.8507, 71.13477
313.3329, 73.20490
313.8150, 74.54333
314.2971, 72.03931
314.7792, 67.39856
315.2613, 63.64178
315.7434, 61.76343
316.2256, 61.83936
316.7077, 64.60400
317.1898, 71.48840
317.6719, 76.62756
318.1540, 75.88184
318.6361, 72.59949
319.1183, 70.34827
319.6004, 70.10535
320.0825, 71.12042
320.5646, 72.79889
321.0467, 75.34729
321.5288, 77.21887
322.0110, 76.95966
322.4931, 76.39380
322.9752, 77.11127
323.4573, 79.38330
323.9394, 81.87360
324.4215, 83.35852
324.9037, 83.86591
325.3858, 84.28076
325.8679, 84.94720
326.3500, 85.24371
326.8321, 84.18506
327.3142, 82.09558
327.7964, 80.92078
328.2785, 82.89178
328.7606, 87.15582
329.2427, 89.38171
329.7248, 88.41602
330.2069, 86.97101
330.6891, 86.61841
331.1712, 87.04858
331.6533, 87.62152
332.1354, 87.97522
332.6175, 88.32867
333.0996, 89.07117
333.5818, 90.15735
334.0639, 91.78357
334.5460, 95.04071
335.0281, 98.55261
335.5102, 100.5832
335.9923, 100.3621
336.4745, 99.29749
336.9566, 99.03229
337.4387, 99.62860
337.9208, 100.0386
338.4029, 99.70160
338.8850, 99.18262
339.3671, 99.02008
339.8492, 99.25964
340.3314, 99.71973
340.8135, 100.5296
341.2956, 101.5547
341.7777, 101.8580
342.2598, 100.7651
342.7419, 99.64252
343.2241, 99.67682
343.7062, 100.7011
344.1883, 101.9813
344.6704, 103.5700
345.1525, 105.1085
345.6346, 105.8286
346.1168, 105.6635
346.5989, 104.7766
347.0810, 102.7034
347.5631, 100.0345
348.0452, 97.74139
348.5273, 95.89069
349.0095, 94.68347
349.4916, 94.72424
349.9737, 96.05542
350.4558, 97.03717
350.9379, 97.14734
351.4200, 96.24988
351.9022, 94.23737
352.3843, 90.88281
352.8664, 87.08588
353.3485, 82.85016
353.8306, 78.47681
354.3127, 75.49078
354.7949, 74.56500
355.2770, 74.79541
355.7591, 75.03229
356.2412, 75.28131
356.7233, 75.94061
357.2054, 78.19769
357.6876, 80.52399
358.1697, 80.09229
358.6518, 76.24396
359.1339, 71.76080
359.6160, 68.94800
360.0981, 67.68091
360.5803, 67.00623
361.0624, 67.64313
361.5445, 68.01416
362.0266, 66.22821
362.5087, 62.68274
362.9908, 60.10181
363.4730, 60.51373
363.9551, 62.71106
364.4372, 62.60193
364.9193, 58.54901
365.4014, 54.93030
365.8835, 53.93182
366.3657, 54.64038
366.8478, 54.94305
367.3299, 54.17938
367.8120, 52.69147
368.2941, 50.72748
368.7762, 47.84369
369.2584, 46.22522
369.7405, 47.05646
370.2226, 48.78308
370.7047, 49.96771
371.1868, 50.42682
371.6689, 50.57941
372.1511, 50.77826
372.6332, 51.01990
373.1153, 50.58057
373.5974, 49.89001
374.0795, 48.17700
374.5616, 44.05847
375.0438, 38.68262
375.5259, 34.36224
376.0080, 32.34241
376.4901, 32.33301
376.9722, 33.04242
377.4543, 35.85175
377.9365, 37.85822
378.4186, 38.15356
378.9007, 37.49371
379.3828, 36.44952
379.8649, 35.23242
380.3470, 34.33478
380.8292, 34.57990
381.3113, 36.77771
381.7934, 37.62396
382.2755, 37.20789
382.7576, 35.69312
383.2397, 32.08612
383.7219, 27.15936
384.2040, 23.15546
384.6861, 21.95667
385.1682, 23.58051
385.6503, 25.40637
386.1324, 28.93640
386.6146, 30.96893
387.0967, 29.94464
387.5788, 27.43121
388.0609, 25.66772
388.5430, 25.66864
389.0251, 25.96021
389.5073, 23.21686
389.9894, 14.20148
390.4715, 9.246521
390.9536, 10.98877
391.4357, 14.73364
391.9178, 18.80194
392.4000, 22.26691
392.8821, 23.63336
393.3642, 20.76056
393.8463, 13.62274
394.3284, 9.101318
394.8105, 8.783752
395.2927, 9.499695
395.7748, 10.98120
396.2569, 12.48602
396.7390, 12.83429
397.2211, 11.18817
397.7032, 8.544739
398.1854, 7.043640
398.6675, 6.715698
399.1496, 7.407776
399.6317, 10.67188
400.1138, 13.95673
400.5959, 15.14697
401.0781, 13.91260
401.5602, 11.80878
402.0423, 10.06500
402.5244, 8.666992
403.0065, 7.389282
403.4886, 6.144226
403.9708, 5.145203
404.4529, 4.390198
404.9350, 3.938721
405.4171, 4.014099
405.8992, 5.367065
406.3813, 6.971863
406.8635, 6.811768
407.3456, 4.629761
407.8277, 3.113220
408.3098, 4.534180
408.7919, 6.937134
409.2740, 6.838928
409.7562, 3.102600
410.2383, 0.6538090
410.7204, 2.136902
411.2025, 1.920410
411.6846, 1.648926
412.1667, 1.682312
412.6489, 1.930664
413.1310, 2.536621
413.6131, 3.513855
414.0952, 3.698181
414.5773, 2.037292
415.0594, 7.2327003E-02
415.5416, 0.8813480
416.0237, 0.7666020
416.5058, 0.1217650
416.9879, 1.881531
417.4700, 4.170898
417.9521, 5.124146
418.4343, 4.276672
418.9164, 2.919189
419.3985, 0.4973750
419.8806, 1.955200
420.3627, 2.636719
420.8448, 0.9878540
421.3270, 1.620789
421.8091, 3.265076
422.2912, 3.939026
422.7733, 3.362061
423.2554, 0.2250980
423.7375, 3.443665
424.2197, 3.975830
424.7018, 2.247437
425.1839, 0.1201170
425.6660, 1.107178
426.1481, 1.531860
426.6302, 1.891541
427.1124, 2.740295
427.5945, 2.754089
428.0766, 1.037170
428.5587, 1.209412
429.0408, 2.663208
429.5229, 2.970459
430.0051, 2.952148
430.4872, 4.198486
430.9693, 7.600769
431.4514, 8.558350
431.9335, 3.250549
432.4156, 1.271851
432.8978, 1.180115
433.3799, 2.080688
433.8620, 4.362244
434.3441, 2.606934
434.8262, 1.500854
435.3083, 2.851196
435.7905, 0.4087520
436.2726, 1.949463
436.7547, 2.612549
437.2368, 2.679749
437.7189, 3.288940
438.2010, 4.720276
438.6832, 5.656372
439.1653, 4.619751
439.6474, 1.983215
440.1295, 0.4602660
440.6116, 2.871521
441.0938, 4.173767
441.5759, 2.399902
442.0580, 1.401062
442.5401, 3.965515
443.0222, 3.307251
443.5043, 1.754333
443.9865, 1.892456
444.4686, 3.510193
444.9507, 4.375732
445.4328, 2.927246
445.9149, 0.6290890
446.3970, 1.252441
446.8792, 6.227905
447.3613, 9.517822
447.8434, 8.546204
448.3255, 5.436218
448.8076, 2.115479
449.2897, 0.9454960
449.7719, 2.485779
450.2540, 0.8480830
450.7361, 4.225464
451.2182, 6.547119
451.7003, 3.861267
452.1824, 1.348083
452.6646, 0.7763060
453.1467, 1.677856
453.6288, 3.471863
454.1109, 5.913757
454.5930, 8.184204
455.0751, 8.646606
455.5573, 5.640869
456.0394, 4.105408
456.5215, 4.254089
457.0036, 5.479858
457.4857, 8.089691
457.9678, 11.47433
458.4500, 14.07898
458.9321, 14.55032
459.4142, 13.44794
459.8963, 13.21713
460.3784, 13.86490
460.8605, 14.51996
461.3427, 14.67590
461.8248, 15.01355
462.3069, 16.38254
462.7890, 18.99524
463.2711, 21.84070
463.7532, 24.16415
464.2354, 25.93649
464.7175, 26.38885
465.1996, 24.63205
465.6817, 22.80078
466.1638, 22.06570
466.6459, 22.38873
467.1281, 23.88138
467.6102, 27.67871
468.0923, 31.63464
468.5744, 33.25433
469.0565, 32.77167
469.5386, 31.83514
470.0208, 30.80475
470.5029, 29.99631
470.9850, 30.18668
471.4671, 31.57016
471.9492, 32.50540
472.4313, 32.37329
472.9135, 31.83557
473.3956, 31.58740
473.8777, 31.66623
474.3598, 31.53427
474.8419, 30.58942
475.3240, 28.94656
475.8062, 28.41922
476.2883, 30.22910
476.7704, 31.75531
477.2525, 32.15439
477.7346, 32.10272
478.2167, 32.59875
478.6989, 33.86578
479.1810, 35.15262
479.6631, 35.50262
480.1452, 34.69977
480.6273, 34.46350
481.1094, 35.72690
481.5916, 36.73907
482.0737, 37.11304
482.5558, 36.81985
483.0379, 35.69507
483.5200, 33.48288
484.0021, 31.04147
484.4843, 30.21561
484.9664, 31.50269
485.4485, 31.91296
485.9306, 29.74112
486.4127, 27.65970
486.8948, 27.87289
487.3770, 29.97968
487.8591, 31.41626
488.3412, 30.12012
488.8233, 27.38519
489.3054, 25.48657
489.7875, 24.41409
490.2697, 24.30551
490.7518, 26.14410
491.2339, 28.91562
491.7160, 30.16110
492.1981, 29.34811
492.6802, 28.36169
493.1624, 29.03360
493.6445, 30.03320
494.1266, 28.10406
494.6087, 22.72156
495.0908, 17.89822
495.5729, 17.39349
496.0551, 21.17480
496.5372, 23.91464
497.0193, 25.16901
497.5014, 26.04880
497.9835, 27.02774
498.4656, 27.61682
498.9478, 27.08533
499.4299, 25.40903
499.9120, 23.41489
500.3941, 21.95148
500.8762, 21.08890
501.3583, 20.23248
501.8405, 19.60358
502.3226, 18.81937
502.8047, 17.19473
503.2868, 15.37076
503.7689, 14.72049
504.2510, 16.26862
504.7331, 18.50443
505.2152, 18.18494
505.6974, 14.73392
506.1795, 12.15820
506.6616, 11.62280
507.1437, 11.77020
507.6258, 12.08368
508.1079, 12.61240
508.5901, 12.82962
509.0722, 12.44492
509.5543, 11.28745
510.0364, 8.471039
510.5185, 4.084991
511.0006, 0.7489620
511.4828, 0.1857600
511.9649, 0.5079040
512.4470, 1.536987
512.9291, 3.282867
513.4113, 4.075317
513.8934, 2.191467
514.3755, 5.5420000E-02
514.8576, 0.5533450
515.3397, 3.800568
515.8218, 5.933563
516.3040, 3.805359
516.7861, 1.722107
517.2682, 4.329193
517.7503, 1.670013
518.2324, 1.036743
518.7145, 3.915833
519.1967, 6.330414
519.6788, 7.647095
520.1609, 7.810669
520.6430, 7.260620
521.1251, 6.237976
521.6072, 4.766815
522.0894, 4.092346
522.5715, 4.686249
523.0536, 5.406525
523.5357, 5.663879
524.0178, 5.724731
524.4999, 6.198669
524.9821, 7.243225
525.4642, 8.696625
525.9463, 10.38348
526.4284, 12.33148
526.9105, 14.90875
527.3926, 18.43945
527.8748, 21.76840
528.3569, 23.84406
528.8390, 24.98221
529.3211, 26.27222
529.8032, 28.40814
530.2853, 30.08209
530.7675, 29.63342
531.2496, 28.43338
531.7317, 29.38791
532.2138, 33.21338
532.6959, 37.55453
533.1780, 39.66940
533.6602, 38.94629
534.1423, 40.25470
534.6244, 45.24472
535.1065, 50.13440
535.5886, 53.61520
536.0707, 56.04816
536.5529, 58.01962
537.0350, 59.65594
537.5171, 61.12900
537.9992, 62.88531
538.4813, 64.93857
538.9634, 67.41306
539.4456, 69.65826
539.9277, 72.81219
540.4098, 78.19357
540.8919, 84.81128
541.3740, 90.78964
541.8561, 95.55029
542.3383, 99.05698
542.8204, 100.5608
543.3025, 100.3396
543.7846, 101.2213
544.2667, 104.2955
544.7488, 107.8786
545.2310, 110.0045
545.7131, 110.8484
546.1952, 111.9375
546.6773, 114.3715
547.1594, 116.3031
547.6415, 116.0671
548.1237, 114.3810
548.6058, 113.3163
549.0879, 113.7658
549.5700, 114.2883
550.0521, 112.3906
550.5342, 107.0935
551.0164, 102.3414
551.4985, 97.92886
551.9806, 94.19357
552.4627, 92.16400
552.9448, 90.75546
553.4269, 87.84894
553.9091, 82.36777
554.3912, 75.65518
554.8733, 69.89722
555.3554, 65.08865
555.8375, 61.08170
556.3196, 58.30063
556.8018, 55.87344
557.2839, 53.14368
557.7660, 50.24200
558.2481, 47.64850
558.7302, 45.76990
559.2123, 44.01608
559.6945, 41.65234
560.1766, 38.84271
560.6587, 36.43176
561.1408, 34.72086
561.6229, 33.33820
562.1050, 31.85370
562.5872, 30.26163
563.0693, 28.58340
563.5514, 26.21371
564.0335, 24.36429
564.5156, 24.45056
564.9977, 25.36670
565.4799, 24.86090
565.9620, 22.06516
566.4441, 18.45261
566.9262, 16.43777
567.4083, 16.51562
567.8904, 16.16159
568.3726, 14.25415
568.8547, 13.05869
569.3368, 14.47156
569.8189, 16.90665
570.3010, 17.30807
570.7831, 14.21350
571.2653, 10.51480
571.7474, 10.10532
572.2295, 12.44211
572.7116, 13.41971
573.1937, 12.21152
573.6758, 9.981415
574.1580, 6.605194
574.6401, 2.680176
575.1222, 1.205444
575.6043, 5.540070
576.0864, 9.565308
576.5685, 9.756134
577.0507, 7.636017
577.5328, 5.512604
578.0149, 4.013947
578.4970, 3.018066
578.9791, 2.489471
579.4612, 2.465454
579.9434, 1.941284
580.4255, 0.7277830
580.9076, 1.923828
581.3897, 0.6606450
581.8718, 4.182617
582.3539, 5.222778
582.8361, 3.175873
583.3182, 0.6136780
583.8003, 5.2800002E-03
584.2824, 1.151794
584.7645, 2.917755
585.2466, 5.946198
585.7288, 7.686279
586.2108, 5.952209
586.6929, 2.567963
587.1750, 0.1641540
587.6572, 0.9070740
588.1393, 1.755249
588.6214, 3.602081
589.1035, 5.153351
589.5856, 4.149567
590.0677, 0.6806640
590.5499, 2.778229
591.0320, 4.708710
591.5141, 5.319366
591.9962, 5.357910
592.4783, 4.748505
592.9604, 3.609772
593.4426, 0.8317870
593.9247, 1.552948
594.4068, 1.623138
594.8889, 7.1594000E-02
595.3710, 1.276276
595.8531, 0.3061830
596.3353, 1.582092
596.8174, 1.151855
597.2995, 2.099457
597.7816, 4.834961
598.2637, 6.290436
598.7458, 6.984558
599.2280, 7.309265
599.7101, 7.303101
600.1922, 7.161774
600.6743, 6.784271
601.1564, 6.429443
601.6385, 6.266541
602.1207, 6.298340
602.6028, 6.549713
603.0849, 7.034821
603.5670, 7.668671
604.0491, 8.401184
604.5313, 9.324860
605.0134, 9.779205
605.4955, 9.595764
605.9776, 9.210358
606.4597, 8.462646
606.9418, 7.702515
607.4240, 7.253235
607.9061, 7.250458
608.3882, 7.895966
608.8703, 10.02225
609.3524, 13.40677
609.8345, 14.82077
610.3167, 13.56976
610.7988, 11.96338
611.2809, 10.68903
611.7630, 9.943451
612.2451, 10.29953
612.7272, 12.19675
613.2094, 13.33932
613.6915, 11.42834
614.1736, 8.888916
614.6557, 9.405396
615.1378, 12.74301
615.6199, 15.36734
616.1021, 15.01636
616.5842, 12.81148
617.0663, 11.96677
617.5484, 13.61465
618.0305, 14.71718
618.5126, 14.82838
618.9948, 14.85394
619.4769, 15.57307
619.9590, 16.60159
620.4411, 16.94376
620.9232, 16.02840
621.4053, 14.50497
621.8875, 13.12480
622.3696, 11.90326
622.8517, 11.79231
623.3338, 13.56544
623.8159, 15.28470
624.2980, 14.95285
624.7802, 13.21022
625.2623, 12.19647
625.7444, 13.13318
626.2265, 13.59319
626.7086, 11.79408
627.1907, 9.127594
627.6729, 7.439301
628.1550, 7.100449
628.6371, 7.808350
629.1192, 9.541092
629.6013, 12.00378
630.0834, 12.46858
630.5656, 8.906509
631.0477, 6.701553
631.5298, 7.781693
632.0119, 9.424301
632.4940, 9.353119
632.9761, 7.762741
633.4583, 6.693069
633.9404, 7.669754
634.4225, 9.522583
634.9046, 10.54820
635.3867, 10.77274
635.8688, 10.32306
636.3510, 9.021133
636.8331, 7.554382
637.3152, 6.774475
637.7973, 6.761871
638.2794, 6.691223
638.7615, 6.501129
639.2437, 6.464447
639.7258, 6.339584
640.2079, 6.338013
640.6900, 7.001419
641.1721, 8.343719
641.6542, 9.492447
642.1364, 9.408173
642.6185, 8.199280
643.1006, 7.310699
643.5827, 6.614182
644.0648, 6.531723
644.5469, 8.103516
645.0291, 9.757401
645.5112, 9.710281
645.9933, 7.872879
646.4754, 6.629257
646.9575, 8.275742
647.4396, 10.40765
647.9218, 9.996979
648.4039, 7.411285
648.8860, 5.220474
649.3681, 4.473206
649.8502, 4.538681
650.3323, 4.429703
650.8145, 3.963226
651.2966, 4.160217
651.7787, 5.894150
652.2608, 7.186386
652.7429, 7.591751
653.2250, 7.213943
653.7072, 5.874710
654.1893, 3.478943
654.6714, 1.501938
655.1535, 1.751312
655.6356, 3.457901
656.1177, 4.106674
656.5999, 3.531799
657.0820, 2.893555
657.5641, 2.575592
658.0462, 2.487793
658.5283, 2.593216
659.0104, 2.941650
659.4926, 3.260300
659.9747, 3.353287
660.4568, 3.558762
660.9389, 4.488953
661.4210, 5.619598
661.9031, 5.736511
662.3853, 4.416122
662.8674, 2.745728
663.3495, 2.033005
663.8316, 2.264008
664.3137, 3.204941
664.7958, 5.505966
665.2780, 7.577774
665.7601, 8.565948
666.2422, 8.709793
666.7243, 8.199341
667.2064, 6.990173
667.6885, 6.038132
668.1707, 5.959045
668.6528, 6.263687
669.1349, 6.356125
669.6170, 6.360794
670.0991, 6.799438
670.5812, 7.914688
671.0634, 9.107132
671.5455, 9.270859
672.0276, 8.014343
672.5097, 7.186905
672.9918, 7.338745
673.4739, 7.385117
673.9561, 6.986725
674.4382, 6.493118
674.9203, 6.028687
675.4024, 5.559998
675.8845, 5.313232
676.3666, 5.437241
676.8488, 6.004974
677.3309, 7.399170
677.8130, 9.590851
678.2951, 11.21274
678.7772, 11.55673
679.2593, 11.03763
679.7415, 10.23279
680.2236, 8.835297
680.7057, 7.804810
681.1878, 6.877045
681.6699, 6.666306
682.1520, 8.365982
682.6342, 10.62471
683.1163, 11.11824
683.5984, 9.192368
684.0805, 6.775894
684.5626, 6.063858
685.0447, 6.797638
685.5269, 7.449890
686.0090, 8.039642
686.4911, 8.414139
686.9732, 8.438522
687.4553, 8.313431
687.9374, 8.327209
688.4196, 8.463837
688.9017, 8.696808
689.3838, 9.281906
689.8659, 9.700455
690.3480, 9.335510
690.8301, 8.603973
691.3123, 8.439880
691.7944, 9.104080
692.2765, 9.761429
692.7586, 9.211365
693.2407, 7.599060
693.7228, 7.402283
694.2050, 9.443085
694.6871, 10.64987
695.1692, 9.344772
695.6513, 7.156418
696.1334, 5.738785
696.6155, 5.115158
697.0977, 4.791275
697.5798, 4.773422
698.0619, 4.856110
698.5440, 4.726654
699.0261, 4.623154
699.5082, 5.284393
699.9904, 6.828506
700.4725, 8.098541
700.9546, 7.674408
701.4367, 5.729507
701.9188, 5.000809
702.4009, 6.308716
702.8831, 7.225739
703.3652, 6.909134
703.8473, 6.137238
704.3294, 5.189682
704.8115, 4.226563
705.2936, 3.880142
705.7758, 4.796799
706.2579, 6.003632
706.7400, 6.868195
707.2221, 7.403412
707.7042, 7.584274
708.1863, 7.416580
708.6685, 7.141022
709.1506, 7.047333
709.6327, 7.028305
710.1148, 6.091095
710.5969, 3.056229
711.0790, 1.278107
711.5612, 1.966614
712.0433, 3.277267
712.5254, 4.524918
713.0075, 5.442017
713.4896, 5.365112
713.9717, 3.429611
714.4539, 1.525513
714.9360, 1.612869
715.4181, 2.950302
715.9002, 3.911713
716.3823, 4.234604
716.8644, 4.270981
717.3466, 4.229019
717.8287, 4.160843
718.3108, 4.331192
718.7929, 5.412827
719.2750, 5.437317
719.7571, 3.019653
720.2393, 0.9120790
720.7214, 1.057632
721.2035, 2.386215
721.6856, 2.557220
722.1677, 0.5568700
722.6498, 1.306717
723.1320, 0.7084350
723.6141, 1.273422
724.0962, 2.559174
724.5783, 2.977295
725.0604, 2.883957
725.5425, 2.439865
726.0247, 1.699295
726.5068, 0.6985170
726.9889, 0.8662870
727.4710, 1.760208
727.9531, 1.594147
728.4352, 1.207565
728.9174, 0.8479770
729.3995, 0.4397740
729.8816, 0.3930970
730.3637, 1.684311
730.8458, 2.246368
731.3279, 0.3838350
731.8101, 2.299545
732.2922, 2.952225
732.7743, 1.825943
733.2564, 1.018387
733.7385, 1.363617
734.2206, 1.734726
734.7028, 0.4706880
735.1849, 2.659424
735.6670, 3.985535
736.1491, 1.792145
736.6312, 6.3979998E-02
737.1133, 1.320190
737.5955, 1.755814
738.0776, 0.5376740
738.5597, 1.889145
739.0418, 3.297821
739.5239, 1.966690
740.0060, 0.1798710
740.4882, 1.237228
740.9703, 1.287186
741.4524, 0.1177670
741.9345, 2.297958
742.4166, 4.145004
742.8987, 3.797424
743.3809, 1.712387
743.8630, 0.1642610
744.3451, 0.6830600
744.8272, 1.281601
745.3093, 1.426010
745.7914, 1.572372
746.2736, 2.241348
746.7557, 3.040222
747.2378, 3.031952
747.7199, 1.713516
748.2020, 0.4719090
748.6841, 0.5896610
749.1663, 1.380722
749.6484, 1.712021
750.1305, 1.523254
750.6126, 1.157242
751.0947, 0.7779690
751.5768, 0.3938750
752.0590, 7.3853001E-02
752.5411, 4.6905998E-02
753.0232, 0.7614440
753.5053, 2.830292
753.9874, 4.460312
754.4695, 5.102753
754.9517, 5.079971
755.4338, 4.470169
755.9159, 3.345581
756.3980, 2.633865
756.8801, 3.285675
757.3622, 4.119446
757.8444, 3.590286
758.3265, 2.379517
758.8086, 2.361267
759.2907, 3.936768
759.7728, 5.718506
760.2549, 6.388138
760.7371, 6.080551
761.2192, 5.563721
761.7013, 4.538391
762.1834, 4.125595
762.6655, 5.168198
763.1476, 6.202454
763.6298, 6.239670
764.1119, 5.517334
764.5940, 4.676788
765.0761, 3.658264
765.5582, 2.926056
766.0403, 2.218567
766.5225, 2.233124
767.0046, 4.631485
767.4867, 8.633331
767.9688, 11.17555
768.4509, 10.64639
768.9330, 8.675049
769.4152, 8.198761
769.8973, 9.313736
770.3794, 9.229446
770.8615, 7.095505
771.3436, 5.930542
771.8257, 7.715927
772.3079, 10.65335
772.7900, 11.99602
773.2721, 11.60025
773.7542, 11.97760
774.2363, 15.22842
774.7184, 17.43668
775.2006, 15.43314
775.6827, 11.80193
776.1648, 9.969742
776.6469, 10.48926
777.1290, 11.89937
777.6111, 13.33801
778.0933, 14.43486
778.5754, 13.99445
779.0575, 12.15355
779.5396, 12.01062
780.0217, 14.52808
780.5038, 17.11807
780.9860, 17.86687
781.4681, 17.32416
781.9502, 17.53619
782.4323, 18.66771
782.9144, 20.18698
783.3965, 22.69276
783.8787, 24.93588
784.3608, 26.16916
784.8429, 26.58090
785.3250, 26.47064
785.8071, 25.98148
786.2892, 26.05367
786.7714, 28.02711
787.2535, 30.85492
787.7356, 32.53374
788.2177, 33.14865
788.6998, 33.56657
789.1819, 33.95773
789.6641, 34.95235
790.1462, 37.79378
790.6283, 42.58107
791.1104, 46.28717
791.5925, 48.63634
792.0746, 50.11755
792.5568, 49.84639
793.0389, 49.80966
793.5210, 51.41434
794.0031, 54.35443
794.4852, 57.35277
794.9673, 60.27255
795.4495, 62.75554
795.9316, 64.02069
796.4137, 65.15178
796.8958, 67.94495
797.3779, 72.04208
797.8600, 75.13370
798.3422, 75.99646
798.8243, 76.25476
799.3064, 78.86206
799.7885, 83.91595
800.2706, 87.63492
800.7527, 89.76669
801.2349, 91.15628
801.7170, 91.45612
802.1991, 91.72513
802.6812, 93.78003
803.1633, 97.63705
803.6454, 100.9119
804.1276, 103.1356
804.6097, 104.9700
805.0918, 106.5597
805.5739, 108.0736
806.0560, 109.6316
806.5381, 111.1377
807.0203, 112.4858
807.5024, 113.7341
807.9845, 114.5969
808.4666, 114.4429
808.9487, 113.5202
809.4308, 112.8231
809.9130, 112.4659
810.3951, 112.0154
810.8772, 111.1978
811.3593, 110.2077
811.8414, 109.5212
812.3235, 109.4703
812.8057, 108.4395
813.2878, 105.6087
813.7699, 102.7933
814.2520, 100.3287
814.7341, 98.19836
815.2162, 96.45114
815.6984, 95.05667
816.1805, 93.72733
816.6626, 92.44684
817.1447, 91.07849
817.6268, 89.33762
818.1089, 87.52951
818.5911, 86.62708
819.0732, 86.38098
819.5553, 84.75549
820.0374, 80.23062
820.5195, 74.49472
821.0016, 71.32617
821.4838, 70.82285
821.9659, 69.14767
822.4480, 65.63797
822.9301, 62.29306
823.4122, 60.29477
823.8943, 58.90039
824.3765, 56.74274
824.8586, 53.62100
825.3407, 50.78165
825.8228, 48.38867
826.3049, 46.14700
826.7870, 43.62970
827.2692, 41.41855
827.7513, 40.77142
828.2334, 41.24051
828.7155, 40.32922
829.1976, 36.02530
829.6797, 31.02686
830.1619, 28.41745
830.6440, 27.44446
831.1261, 26.51898
831.6082, 25.38315
832.0903, 23.99637
832.5724, 22.31915
833.0546, 20.41513
833.5367, 18.32382
834.0188, 15.92813
834.5009, 14.16992
834.9830, 13.34744
835.4651, 12.55096
835.9473, 11.28201
836.4294, 10.02881
836.9115, 9.431580
837.3936, 9.450592
837.8757, 9.209198
838.3578, 8.324036
838.8400, 7.466583
839.3221, 7.000336
839.8042, 6.596680
840.2863, 5.671051
840.7684, 4.487854
841.2505, 4.026123
841.7327, 4.834290
842.2148, 5.979675
842.6969, 6.559631
843.1790, 6.560303
843.6611, 5.572235
844.1432, 3.700470
844.6254, 2.710114
845.1075, 3.455750
845.5896, 4.635254
846.0717, 4.339661
846.5538, 2.553864
847.0359, 2.545837
847.5181, 5.965759
848.0002, 7.907074
848.4823, 6.135284
848.9644, 3.769501
849.4465, 2.740784
849.9286, 2.851715
850.4108, 3.519958
850.8929, 5.244385
851.3750, 6.165955
851.8571, 4.792847
852.3392, 3.099091
852.8214, 2.878479
853.3035, 3.576233
853.7856, 3.665588
854.2677, 2.735352
854.7498, 2.048309
855.2319, 2.803741
855.7141, 4.657288
856.1962, 7.267700
856.6783, 10.41745
857.1604, 12.64575
857.6425, 13.57285
858.1246, 13.56412
858.6068, 12.71429
859.0889, 11.41403
859.5710, 11.18207
860.0531, 12.44815
860.5352, 13.65784
861.0173, 14.71286
861.4995, 15.76135
861.9816, 17.00809
862.4637, 18.22165
862.9458, 18.99768
863.4279, 19.26712
863.9100, 19.80298
864.3922, 20.97604
864.8743, 22.26498
865.3564, 23.28940
865.8385, 24.33517
866.3206, 25.92142
866.8027, 27.92215
867.2849, 29.63107
867.7670, 30.61905
868.2491, 31.22650
868.7312, 31.62811
869.2133, 32.03333
869.6954, 33.13998
870.1776, 34.95984
870.6597, 37.07910
871.1418, 39.40875
871.6239, 41.11145
872.1060, 40.64777
872.5881, 38.05301
873.0703, 38.33307
873.5524, 43.05731
874.0345, 46.63809
874.5166, 47.48172
874.9987, 47.26727
875.4808, 46.91629
875.9630, 46.58560
876.4451, 46.84058
876.9272, 48.21066
877.4093, 49.24719
877.8914, 49.54013
878.3735, 49.42496
878.8557, 49.21677
879.3378, 48.74936
879.8199, 47.17487
880.3020, 44.58893
880.7841, 43.44467
881.2662, 46.67413
881.7484, 50.99356
882.2305, 52.33499
882.7126, 51.59579
883.1947, 50.64514
883.6768, 49.89502
884.1589, 49.38519
884.6411, 49.14682
885.1232, 49.01038
885.6053, 48.90421
886.0874, 48.87143
886.5695, 47.00671
887.0516, 42.63461
887.5338, 39.50540
888.0159, 39.49231
888.4980, 40.49371
888.9801, 40.01331
889.4622, 38.02908
889.9443, 36.19150
890.4265, 34.90614
890.9086, 33.56506
891.3907, 32.01654
891.8728, 30.49648
892.3549, 28.46902
892.8370, 26.74966
893.3192, 27.37358
893.8013, 31.18375
894.2834, 33.83334
894.7655, 32.37238
895.2476, 29.66968
895.7297, 27.94630
896.2119, 26.75909
896.6940, 24.93478
897.1761, 22.45503
897.6582, 20.60471
898.1403, 20.33791
898.6224, 20.95419
899.1046, 21.33031
899.5867, 21.57745
900.0688, 22.35300
900.5509, 23.69394
901.0330, 24.63307
901.5151, 24.68842
901.9973, 24.26730
902.4794, 23.92563
902.9615, 23.66342
903.4436, 23.61320
903.9257, 23.94859
904.4078, 24.02737
904.8900, 23.56549
905.3721, 23.00250
905.8542, 22.50200
906.3363, 22.18199
906.8184, 22.54082
907.3005, 24.36018
907.7827, 24.94922
908.2648, 22.30893
908.7469, 20.24179
909.2290, 21.28703
909.7111, 23.55263
910.1932, 24.64844
910.6754, 24.32063
911.1575, 23.75200
911.6396, 23.16577
912.1217, 23.07013
912.6038, 24.80788
913.0859, 26.74915
913.5681, 25.89632
914.0502, 22.92542
914.5323, 21.18153
915.0143, 22.11206
915.4965, 23.89328
915.9786, 24.38184
916.4607, 23.92770
916.9428, 23.93399
917.4249, 24.32220
917.9070, 23.76886
918.3892, 21.85263
918.8713, 20.13039
919.3534, 19.90344
919.8355, 20.69229
920.3176, 21.05634
920.7997, 20.91168
921.2819, 20.65799
921.7640, 20.30737
922.2461, 19.82324
922.7282, 19.00677
923.2103, 18.23003
923.6924, 18.40633
924.1746, 19.37215
924.6567, 18.51590
925.1388, 13.74458
925.6209, 9.991043
926.1030, 8.551483
926.5851, 8.032059
927.0673, 8.111588
927.5494, 8.231400
928.0315, 7.190063
928.5136, 4.632584
928.9957, 3.074326
929.4778, 4.892548
929.9600, 7.147141
930.4421, 7.561493
930.9242, 6.953491
931.4063, 6.429474
931.8884, 5.971817
932.3705, 5.091125
932.8527, 3.633148
933.3348, 1.845337
933.8169, 0.5839080
934.2990, 3.007446
934.7811, 3.265182
935.2632, 1.566971
935.7454, 0.1383820
936.2275, 1.224075
936.7096, 1.655106
937.1917, 1.237793
937.6738, 0.2206120
938.1559, 0.1622010
938.6381, 0.2374730
939.1202, 4.6158001E-02
939.6023, 1.206238
940.0844, 1.874863
940.5665, 0.8302310
941.0486, 0.8584440
941.5308, 1.477509
942.0129, 0.9031680
942.4950, 0.5573880
942.9771, 1.207703
943.4592, 0.9389040
943.9413, 1.267151
944.4235, 3.703506
944.9056, 5.811859
945.3877, 7.244400
945.8698, 7.274124
946.3519, 5.656845
946.8340, 3.506210
947.3162, 0.1424260
947.7983, 2.807388
948.2804, 2.469070
948.7625, 1.014328
949.2446, 0.2407680
949.7267, 0.3463290
950.2089, 1.069122
950.6910, 2.500504
951.1731, 3.969925
951.6552, 4.890320
952.1373, 5.493866
952.6194, 5.788666
953.1016, 6.106583
953.5837, 7.615540
954.0658, 10.35664
954.5479, 12.12813
955.0300, 10.80074
955.5121, 8.078445
955.9943, 6.850067
956.4764, 6.974869
956.9585, 8.067154
957.4406, 9.987854
957.9227, 11.89880
958.4048, 13.44203
958.8870, 14.72067
959.3691, 15.88202
959.8512, 16.89105
960.3333, 17.18985
960.8154, 16.68536
961.2975, 16.03767
961.7797, 14.96611
962.2618, 15.17265
962.7439, 18.35460
963.2260, 22.86003
963.7081, 25.02173
964.1902, 24.30682
964.6724, 24.16649
965.1545, 25.64706
965.6366, 25.92921
966.1187, 22.64346
966.6008, 19.58821
967.0829, 20.44626
967.5651, 23.83202
968.0472, 25.34721
968.5293, 23.83960
969.0114, 22.86829
969.4935, 23.73070
969.9756, 24.26166
970.4578, 23.51047
970.9399, 21.93651
971.4220, 19.55238
971.9041, 16.77509
972.3862, 15.17265
972.8683, 16.00645
973.3505, 16.44185
973.8326, 14.24986
974.3147, 11.71811
974.7968, 11.26259
975.2789, 11.85797
975.7610, 11.24091
976.2432, 9.110901
976.7253, 7.291183
977.2074, 7.178757
977.6895, 7.588120
978.1716, 7.394974
978.6537, 6.745285
979.1359, 5.757248
979.6180, 4.526627
980.1001, 3.143585
980.5822, 1.688141
981.0643, 0.7090450
981.5464, 0.9096980
982.0286, 1.821518
982.5107, 2.527756
982.9928, 2.989319
983.4749, 2.939102
983.9570, 2.365738
984.4391, 1.613998
984.9213, 0.8520970
985.4034, 0.2262120
985.8855, 4.9683001E-02
986.3676, 4.8830002E-03
986.8497, 0.3050840
987.3318, 0.9705350
987.8140, 0.6302950
988.2961, 1.342499
988.7782, 2.580353
989.2603, 1.364029
989.7424, 1.295410
990.2245, 3.387909
990.7067, 4.906921
991.1888, 5.950317
991.6709, 6.513702
992.1530, 6.479233
992.6351, 5.776215
993.1172, 4.806549
993.5994, 3.489731
994.0815, 2.107864
994.5636, 1.738937
995.0457, 2.768341
995.5278, 3.736481
996.0099, 5.096283
996.4921, 5.801270
996.9742, 5.037903
997.4563, 3.913208
997.9384, 3.303146
998.4205, 3.225891
998.9026, 3.447968
999.3848, 4.170792
999.8669, 4.498932
1000.349, 4.001740
1000.831, 3.369476
1001.313, 2.913284
1001.795, 2.460342
1002.277, 1.685410
1002.760, 0.6974180
1003.242, 1.8010000E-03
1003.724, 0.1601100
1004.206, 0.1392360
1004.688, 1.595734
1005.170, 2.804779
1005.652, 1.754196
1006.134, 4.5166001E-02
1006.617, 0.1255340
1007.099, 2.224060
1007.581, 3.480118
1008.063, 2.183777
1008.545, 0.4806820
1009.027, 3.0456999E-02
1009.509, 0.1016690
1009.991, 0.2095490
1010.473, 0.4169620
1010.956, 1.352386
1011.438, 2.988846
1011.920, 4.237228
1012.402, 4.346375
1012.884, 3.765717
1013.366, 2.586182
1013.848, 1.329971
1014.330, 1.236557
1014.813, 2.009918
1015.295, 2.139084
1015.777, 1.276169
1016.259, 1.047989
1016.741, 3.198425
1017.223, 6.048752
1017.705, 6.183640
1018.187, 4.390930
1018.669, 3.118408
1019.152, 2.663925
1019.634, 3.490936
1020.116, 5.740967
1020.598, 8.321136
1021.080, 10.22353
1021.562, 11.37195
1022.044, 11.33476
1022.526, 10.23282
1023.008, 9.280869
1023.491, 8.589447
1023.973, 7.649246
1024.455, 6.194565
1024.937, 4.989014
1025.419, 5.021713
1025.901, 5.946671
1026.383, 5.943069
1026.865, 4.874146
1027.348, 5.324387
1027.830, 7.967102
1028.312, 9.339188
1028.794, 7.515976
1029.276, 4.962234
1029.758, 4.877991
1030.240, 6.869965
1030.722, 7.861740
1031.204, 7.701050
1031.687, 7.121597
1032.169, 6.001312
1032.651, 4.938110
1033.133, 3.934280
1033.615, 3.675766
1034.097, 5.476303
1034.579, 9.078476
1035.061, 10.27007
1035.544, 7.784897
1036.026, 6.178055
1036.508, 6.023041
1036.990, 6.418274
1037.472, 7.271759
1037.954, 8.115067
1038.436, 8.159470
1038.918, 7.437042
1039.401, 7.426758
1039.883, 8.835587
1040.365, 9.700180
1040.847, 9.968475
1041.329, 9.551132
1041.811, 7.715271
1042.293, 5.632553
1042.775, 4.804901
1043.257, 5.145752
1043.740, 5.895020
1044.222, 7.588882
1044.704, 9.005707
1045.186, 10.79465
1045.668, 11.46970
1046.150, 8.889313
1046.632, 5.696777
1047.114, 5.564453
1047.596, 8.401993
1048.079, 10.46133
1048.561, 11.37384
1049.043, 11.43498
1049.525, 10.16615
1050.007, 8.650162
1050.489, 6.834808
1050.971, 5.379868
1051.453, 5.412125
1051.936, 6.694595
1052.418, 7.114655
1052.900, 5.440292
1053.382, 4.538696
1053.864, 5.070984
1054.346, 6.358856
1054.828, 9.348785
1055.310, 11.97876
1055.792, 11.22903
1056.275, 7.592163
1056.757, 5.075302
1057.239, 4.839249
1057.721, 5.208313
1058.203, 6.097839
1058.685, 7.057434
1059.167, 8.105042
1059.649, 8.866409
1060.131, 8.934814
1060.614, 8.306839
1061.096, 7.043549
1061.578, 4.486649
1062.060, 3.233139
1062.542, 5.182327
1063.024, 7.547089
1063.506, 9.457260
1063.988, 10.31096
1064.471, 8.975403
1064.953, 6.186691
1065.435, 4.525330
1065.917, 4.939529
1066.399, 5.384628
1066.881, 4.794159
1067.363, 4.402451
1067.845, 5.114624
1068.328, 6.242920
1068.810, 7.280060
1069.292, 8.015289
1069.774, 7.954391
1070.256, 6.725723
1070.738, 6.027115
1071.220, 7.700912
1071.702, 8.773438
1072.184, 6.738785
1072.667, 3.914764
1073.149, 2.398453
1073.631, 2.308380
1074.113, 3.484207
1074.595, 6.210663
1075.077, 8.061401
1075.559, 7.174332
1076.041, 5.998169
1076.523, 6.159927
1077.006, 6.473572
1077.488, 5.398529
1077.970, 3.636368
1078.452, 3.047195
1078.934, 4.074997
1079.416, 4.784912
1079.898, 3.749435
1080.380, 2.899750
1080.862, 3.551682
1081.345, 4.561676
1081.827, 4.870544
1082.309, 4.736618
1082.791, 4.871521
1083.273, 5.420120
1083.755, 6.019669
1084.237, 6.759933
1084.719, 7.173965
1085.202, 6.684830
1085.684, 6.137527
1086.166, 6.539764
1086.648, 7.174835
1087.130, 6.587921
1087.612, 4.819977
1088.094, 3.760742
1088.576, 4.487549
1089.058, 5.248703
1089.541, 5.157822
1090.023, 4.956223
1090.505, 5.211395
1090.987, 5.645615
1091.469, 5.939270
1091.951, 6.049774
1092.433, 5.871414
1092.915, 5.091629
1093.397, 4.811249
1093.880, 6.136002
1094.362, 7.314804
1094.844, 7.230789
1095.326, 6.486740
1095.808, 5.716080
1096.290, 5.051041
1096.772, 4.580368
1097.254, 4.365479
1097.737, 4.157913
1098.219, 4.269913
1098.701, 3.875336
1099.183, 1.866577
1099.665, 0.1719670
1100.147, 1.001007
1100.629, 0.6925050
1101.111, 0.5461120
1101.594, 2.778687
1102.076, 4.636551
1102.558, 5.928192
1103.040, 6.575592
1103.522, 6.275909
1104.004, 5.582581
1104.486, 4.826508
1104.968, 4.027634
1105.450, 3.139969
1105.932, 2.164749
1106.415, 1.274963
1106.897, 0.1219790
1107.379, 0.3603360
1107.861, 0.3466800
1108.343, 1.374084
1108.825, 2.793427
1109.307, 3.939163
1109.789, 3.869202
1110.272, 2.704666
1110.754, 1.566376
1111.236, 0.2724760
1111.718, 0.4092710
1112.200, 0.4143220
1112.682, 0.2016140
1113.164, 2.172852
1113.646, 4.125122
1114.129, 4.963196
1114.611, 4.768570
1115.093, 3.716232
1115.575, 1.194443
1116.057, 0.2354890
1116.539, 4.7909999E-03
1117.021, 0.4620820
1117.503, 1.147522
1117.985, 1.609070
1118.468, 1.105835
1118.950, 0.4510500
1119.432, 1.457993
1119.914, 4.381378
1120.396, 5.759613
1120.878, 4.630280
1121.360, 4.064224
1121.842, 4.687592
1122.324, 5.278610
1122.807, 5.224609
1123.289, 4.871078
1123.771, 4.695236
1124.253, 4.623566
1124.735, 4.202332
1125.217, 3.190338
1125.699, 2.847061
1126.181, 3.555191
1126.664, 3.872574
1127.146, 3.196014
1127.628, 2.234512
1128.110, 1.571671
1128.592, 1.210083
1129.074, 1.320633
1129.556, 2.043182
1130.038, 1.440369
1130.521, 0.8538210
1131.003, 1.734573
1131.485, 0.3206790
1131.967, 1.601334
1132.449, 3.015686
1132.931, 3.669510
1133.413, 2.817825
1133.895, 0.8797910
1134.377, 1.166489
1134.859, 3.568436
1135.342, 4.201385
1135.824, 2.575943
1136.306, 1.015488
1136.788, 0.5310210
1137.270, 0.7457430
1137.752, 1.436356
1138.234, 2.168869
1138.716, 1.334808
1139.199, 0.4002380
1139.681, 0.5343780
1140.163, 3.661377
1140.645, 4.727707
1141.127, 2.768600
1141.609, 0.5547790
1142.091, 5.3986002E-02
1142.573, 0.3247830
1143.056, 1.319717
1143.538, 2.405930
1144.020, 2.408600
1144.502, 1.633957
1144.984, 0.6942440
1145.466, 0.1739810
1145.948, 0.6592560
1146.430, 0.6251220
1146.912, 0.1519780
1147.395, 1.079361
1147.877, 2.268234
1148.359, 2.493591
1148.841, 2.116516
1149.323, 1.322769
1149.805, 0.4687040
1150.287, 0.3778230
1150.769, 1.072937
1151.251, 1.312256
1151.734, 3.3600000E-04
1152.216, 0.7838900
1152.698, 0.9307860
1153.180, 3.119263
1153.662, 4.339920
1154.144, 4.839584
1154.626, 4.823318
1155.108, 4.532043
1155.591, 4.585144
1156.073, 5.280136
1156.555, 5.443481
1157.037, 3.718506
1157.519, 2.608337
1158.001, 4.123810
1158.483, 5.689056
1158.965, 5.109879
1159.448, 3.255814
1159.930, 1.478653
1160.412, 7.8506000E-02
1160.894, 0.4117580
1161.376, 1.951126
1161.858, 3.397537
1162.340, 3.071243
1162.822, 2.487183
1163.304, 2.200409
1163.786, 1.872635
1164.269, 1.003159
1164.751, 0.1327060
1165.233, 0.6252440
1165.715, 0.5302120
1166.197, 0.8490750
1166.679, 4.637665
1167.161, 6.391647
1167.643, 4.480164
1168.126, 2.533844
1168.608, 2.754242
1169.090, 3.988831
1169.572, 4.500977
1170.054, 4.459335
1170.536, 5.223770
1171.018, 6.874680
1171.500, 7.168884
1171.983, 5.860641
1172.465, 4.731369
1172.947, 4.390564
1173.429, 4.585999
1173.911, 5.228973
1174.393, 5.755096
1174.875, 4.768814
1175.357, 2.762695
1175.839, 1.494690
1176.322, 0.9422610
1176.804, 1.181488
1177.286, 1.994507
1177.768, 1.988647
1178.250, 0.6133270
1178.732, 0.6028140
1179.214, 0.4017640
1179.696, 1.916748
1180.178, 1.403000
1180.661, 2.4413999E-02
1181.143, 0.6431730
1181.625, 0.5413060
1182.107, 0.3943180
1182.589, 1.901764
1183.071, 2.788605
1183.553, 2.283127
1184.035, 1.898941
1184.518, 3.009628
1185.000, 4.087570
1185.482, 3.687424
1185.964, 2.988129
1186.446, 3.639969
1186.928, 4.947495
1187.410, 4.978836
1187.892, 3.372299
1188.375, 1.919739
1188.857, 0.4046780
1189.339, 0.1889800
1189.821, 3.317719
1190.303, 5.501938
1190.785, 2.997772
1191.267, 0.1436610
1191.749, 1.149918
1192.231, 5.456085
1192.714, 7.168869
1193.196, 5.478531
1193.678, 4.273819
1194.160, 3.671646
1194.642, 3.172272
1195.124, 2.551834
1195.606, 2.496063
1196.088, 3.596970
1196.570, 4.928848
1197.053, 5.177826
1197.535, 4.567474
1198.017, 3.964096
1198.499, 3.356949
1198.981, 2.451111
1199.463, 1.247696
1199.945, 1.033234
1200.427, 2.129150
1200.910, 2.710983
1201.392, 1.408783
1201.874, 4.0146001E-02
1202.356, 1.339981
1202.838, 4.080551
1203.320, 5.056000
1203.802, 4.839661
1204.284, 4.698746
1204.766, 4.769989
1205.249, 4.768387
1205.731, 4.610733
1206.213, 4.454422
1206.695, 4.348312
1207.177, 4.384552
1207.659, 4.552917
1208.141, 4.984909
1208.623, 6.526154
1209.105, 7.871811
1209.588, 6.817123
1210.070, 4.139282
1210.552, 2.866394
1211.034, 3.763519
1211.516, 4.161316
1211.998, 2.783585
1212.480, 1.794479
1212.962, 1.904068
1213.445, 2.305237
1213.927, 2.778763
1214.409, 3.156082
1214.891, 3.185501
1215.373, 2.970413
1215.855, 3.037048
1216.337, 3.620285
1216.819, 3.247345
1217.302, 1.324203
1217.784, 0.9446720
1218.266, 3.062943
1218.748, 5.370880
1219.230, 6.751190
1219.712, 6.950043
1220.194, 5.348251
1220.676, 2.788956
1221.158, 2.072586
1221.641, 2.891342
1222.123, 4.134460
1222.605, 5.442261
1223.087, 4.522125
1223.569, 1.351196
1224.051, 0.6423490
1224.533, 0.4456630
1225.015, 2.457382
1225.497, 3.452087
1225.980, 3.959320
1226.462, 4.603485
1226.944, 5.138702
1227.426, 4.945786
1227.908, 4.503876
1228.390, 5.168930
1228.872, 6.818680
1229.354, 7.376495
1229.837, 5.827103
1230.319, 4.035706
1230.801, 1.835907
1231.283, 0.5614470
1231.765, 1.696579
1232.247, 3.049820
1232.729, 2.712387
1233.211, 1.645020
1233.693, 1.987183
1234.176, 3.753174
1234.658, 3.525757
1235.140, 2.9663000E-02
1235.622, 1.329681
1236.104, 0.6632840
1236.586, 1.862076
1237.068, 0.8080290
1237.550, 1.7548000E-02
1238.032, 1.465515
1238.515, 3.680283
1238.997, 4.181000
1239.479, 3.460938
1239.961, 3.571564
1240.443, 4.331680
1240.925, 5.003662
1241.407, 5.492661
1241.889, 5.858093
1242.372, 6.076416
1242.854, 5.764450
1243.336, 4.560440
1243.818, 3.607361
1244.300, 4.414658
1244.782, 5.577484
1245.264, 6.069885
1245.746, 5.847946
1246.229, 4.154968
1246.711, 2.058594
1247.193, 2.071182
1247.675, 4.273132
1248.157, 5.025314
1248.639, 2.040131
1249.121, 0.3882600
1249.603, 2.482315
1250.085, 3.897369
1250.568, 2.501862
1251.050, 0.9255680
1251.532, 0.7711180
1252.014, 1.675079
1252.496, 3.348282
1252.978, 5.567993
1253.460, 5.553802
1253.942, 2.987686
1254.424, 1.929062
1254.907, 2.644165
1255.389, 2.606857
1255.871, 1.080963
1256.353, 0.1784520
1256.835, 2.5878999E-02
1257.317, 0.7290950
1257.799, 1.076309
1258.281, 1.304657
1258.764, 2.218384
1259.246, 3.227432
1259.728, 2.877213
1260.210, 1.801086
1260.692, 1.703827
1261.174, 2.939575
1261.656, 3.442093
1262.138, 2.310745
1262.620, 1.429016
1263.103, 1.946777
1263.585, 2.542847
1264.067, 2.708191
1264.549, 2.659042
1265.031, 2.225067
1265.513, 1.898178
1265.995, 2.502258
1266.477, 3.820892
1266.959, 4.722870
1267.442, 5.093506
1267.924, 5.519363
1268.406, 6.071259
1268.888, 6.190872
1269.370, 5.747040
1269.852, 5.126740
1270.334, 4.501083
1270.816, 4.106171
1271.299, 4.169846
1271.781, 4.607895
1272.263, 5.253082
1272.745, 5.751694
1273.227, 4.760590
1273.709, 3.091049
1274.191, 3.218292
1274.673, 4.739517
1275.156, 4.599014
1275.638, 1.952011
1276.120, 0.3189850
1276.602, 2.422546
1277.084, 4.571655
1277.566, 4.849457
1278.048, 4.722488
1278.530, 5.586411
1279.012, 6.023972
1279.495, 3.281235
1279.977, 0.5421750
1280.459, 7.9010002E-02
1280.941, 5.066772
1281.423, 7.277374
1281.905, 5.481277
1282.387, 4.833237
1282.869, 4.430084
1283.351, 3.944870
1283.834, 2.887711
1284.316, 1.388855
1284.798, 0.5009610
1285.280, 0.0000000E+00
##END=



