##NAMES=Gaspeite
##RRUFFID=R060366
##IDEAL CHEMISTRY=Ni^2+^CO_3_
##LOCALITY=Pilbara Region, Western Australia, Australia
##OWNER=RRUFF
##SOURCE=Herb Obodda
##DESCRIPTION=Green fine-grained massive coating
##STATUS=The identification of this mineral has been confirmed by X-ray diffraction and chemical analysis
##URL=rruff.info/R060366
##MEASURED CHEMISTRY=(Ni_0.67_Mg_0.30_Ca_0.02_Co_0.01_)_Î£=1_CO_3_
142.6376, 5.4825000E-02
143.1197, 0.1063160
143.6018, 9.1136999E-02
144.0839, 0.2002790
144.5660, 0.9907070
145.0482, 1.469364
145.5303, 1.971336
146.0124, 2.504177
146.4945, 2.592232
146.9766, 2.179043
147.4587, 1.721352
147.9409, 1.322899
148.4230, 1.090790
148.9051, 0.8622090
149.3872, 0.5139390
149.8693, 0.1599690
150.3514, 0.1448630
150.8336, 0.8557700
151.3157, 1.728802
151.7978, 2.293678
152.2799, 2.482204
152.7620, 2.397358
153.2441, 2.096191
153.7263, 1.669014
154.2084, 1.214207
154.6905, 0.4755210
155.1726, 0.2951580
155.6547, 0.4643360
156.1368, 0.2645650
156.6190, 0.9325490
157.1011, 0.9147150
157.5832, 0.4865420
158.0653, 0.1467130
158.5474, 0.3497160
159.0295, 1.037205
159.5117, 1.291039
159.9938, 0.5708050
160.4759, 3.8069999E-03
160.9580, 1.3454000E-02
161.4401, 0.4534260
161.9222, 1.092461
162.4044, 1.306236
162.8865, 0.9058530
163.3686, 0.7550510
163.8507, 1.083134
164.3328, 1.404232
164.8149, 1.532600
165.2971, 1.421062
165.7792, 1.192078
166.2613, 1.188507
166.7434, 1.587803
167.2255, 1.785572
167.7076, 1.710346
168.1898, 1.501183
168.6719, 1.206306
169.1540, 0.8223040
169.6361, 0.4527320
170.1182, 0.2276190
170.6003, 0.1863590
171.0825, 0.2314410
171.5646, 0.4577940
172.0467, 0.7318230
172.5288, 0.9049640
173.0109, 0.9340520
173.4930, 0.8625410
173.9752, 0.6956290
174.4573, 0.3850900
174.9394, 0.2492220
175.4215, 0.5738110
175.9036, 1.138100
176.3857, 1.399517
176.8679, 1.075817
177.3500, 0.5975040
177.8321, 0.5754850
178.3142, 1.040974
178.7963, 1.517578
179.2784, 1.744911
179.7606, 1.739891
180.2427, 1.612698
180.7248, 1.268997
181.2069, 0.9182130
181.6890, 0.7602840
182.1711, 0.8146170
182.6533, 0.9252200
183.1354, 0.9553870
183.6175, 0.9003330
184.0996, 0.8037380
184.5817, 0.6519660
185.0638, 0.4726870
185.5460, 0.2469600
186.0281, 2.4349000E-02
186.5102, 0.2575650
186.9923, 0.3210260
187.4744, 0.1510310
187.9565, 2.6306000E-02
188.4387, 0.3023300
188.9208, 0.5043790
189.4029, 0.4097790
189.8850, 2.6931999E-02
190.3671, 0.5368120
190.8492, 0.5658680
191.3314, 0.4967610
191.8135, 1.146042
192.2956, 1.010448
192.7777, 0.6155010
193.2598, 0.4680520
193.7419, 0.7601930
194.2241, 1.254463
194.7062, 1.378471
195.1883, 0.5948410
195.6704, 3.9089002E-02
196.1525, 0.2268300
196.6346, 0.2639640
197.1168, 0.1161520
197.5989, 0.2026770
198.0810, 0.6480640
198.5631, 1.097599
199.0452, 1.729712
199.5273, 2.127897
200.0095, 2.008701
200.4916, 1.643881
200.9737, 1.548796
201.4558, 2.030806
201.9379, 2.757914
202.4200, 2.857523
202.9022, 1.987759
203.3843, 1.301758
203.8664, 1.352911
204.3485, 1.924099
204.8306, 2.396341
205.3127, 2.455261
205.7949, 2.309967
206.2770, 2.460430
206.7591, 3.064392
207.2412, 3.599989
207.7233, 3.674515
208.2054, 3.369230
208.6876, 3.178728
209.1697, 3.350355
209.6518, 3.695648
210.1339, 3.917213
210.6160, 3.971218
211.0981, 3.998421
211.5803, 4.121582
212.0624, 4.340511
212.5445, 4.538666
213.0266, 4.691460
213.5087, 4.766613
213.9908, 4.710457
214.4730, 4.441065
214.9551, 4.210037
215.4372, 4.385271
215.9193, 5.061058
216.4014, 5.578970
216.8836, 5.422680
217.3657, 5.171558
217.8478, 5.326237
218.3299, 6.004635
218.8120, 6.778749
219.2941, 6.985214
219.7763, 6.385006
220.2584, 5.957733
220.7405, 5.932791
221.2226, 6.091702
221.7047, 6.380520
222.1868, 6.767349
222.6690, 7.102955
223.1511, 7.081171
223.6332, 6.429251
224.1153, 5.990057
224.5974, 5.874182
225.0795, 5.945656
225.5617, 6.166451
226.0438, 6.507395
226.5259, 6.874018
227.0080, 7.121227
227.4901, 7.323292
227.9722, 7.226286
228.4544, 6.543888
228.9365, 5.780830
229.4186, 5.373344
229.9007, 5.425749
230.3828, 5.689154
230.8649, 5.723902
231.3471, 5.237349
231.8292, 4.997904
232.3113, 5.175581
232.7934, 5.470860
233.2755, 5.685089
233.7576, 5.750269
234.2398, 5.672520
234.7219, 5.449207
235.2040, 4.880116
235.6861, 4.526833
236.1682, 4.464905
236.6503, 4.575241
237.1325, 4.789072
237.6146, 5.080076
238.0967, 5.399326
238.5788, 5.683990
239.0609, 5.968876
239.5430, 6.109699
240.0252, 6.036484
240.5073, 5.848366
240.9894, 5.599113
241.4715, 5.300961
241.9536, 5.039902
242.4357, 4.953583
242.9179, 5.097507
243.4000, 5.165190
243.8821, 4.994242
244.3642, 4.781742
244.8463, 4.821035
245.3284, 5.196795
245.8106, 5.602383
246.2927, 5.664368
246.7748, 5.369652
247.2569, 4.987484
247.7390, 4.446766
248.2211, 3.848032
248.7033, 3.349237
249.1854, 3.017548
249.6675, 2.806173
250.1496, 2.792742
250.6317, 2.934250
251.1138, 2.937193
251.5960, 2.579790
252.0781, 2.124846
252.5602, 1.940817
253.0423, 2.092020
253.5244, 2.296186
254.0065, 2.411997
254.4887, 2.421553
254.9708, 2.181505
255.4529, 1.306374
255.9350, 0.2984100
256.4171, 1.7801000E-02
256.8992, 0.6591680
257.3813, 1.240812
257.8635, 0.7403160
258.3456, 0.2842330
258.8277, 0.8826890
259.3098, 0.5629200
259.7919, 0.2014310
260.2740, 0.7778090
260.7562, 1.154320
261.2383, 1.371302
261.7204, 1.234703
262.2025, 1.009094
262.6846, 1.064762
263.1667, 1.662436
263.6489, 2.392414
264.1310, 2.668394
264.6131, 2.422432
265.0952, 2.022684
265.5773, 1.411167
266.0594, 0.8187680
266.5416, 0.5010490
267.0237, 0.5702720
267.5058, 0.8166480
267.9879, 0.9709300
268.4700, 1.016901
268.9521, 1.044884
269.4343, 1.070595
269.9164, 1.098227
270.3985, 1.152660
270.8806, 1.247005
271.3627, 1.300339
271.8448, 1.204092
272.3270, 0.9381560
272.8091, 0.6234130
273.2912, 7.0173003E-02
273.7733, 0.3826390
274.2554, 0.4406110
274.7375, 6.8282999E-02
275.2197, 0.3999060
275.7018, 0.5690000
276.1839, 0.3836820
276.6660, 0.2561650
277.1481, 0.3211980
277.6302, 0.4018920
278.1124, 0.4252700
278.5945, 0.3806690
279.0766, 0.2824080
279.5587, 7.7840999E-02
280.0408, 0.2723600
280.5229, 0.3791900
281.0051, 8.8564001E-02
281.4872, 0.3551500
281.9693, 1.040064
282.4514, 1.838434
282.9335, 2.405457
283.4156, 2.363716
283.8978, 1.697304
284.3799, 1.172783
284.8620, 0.7360480
285.3441, 0.5253750
285.8262, 0.7618960
286.3083, 1.265102
286.7905, 1.662947
287.2726, 1.677841
287.7547, 1.345922
288.2368, 0.9993420
288.7189, 0.4891010
289.2010, 0.1577400
289.6832, 0.2189980
290.1653, 0.4878410
290.6474, 0.6578040
291.1295, 0.5207160
291.6116, 0.2082730
292.0938, 0.2913380
292.5759, 1.211878
293.0580, 1.898006
293.5401, 2.085085
294.0222, 1.973175
294.5043, 1.765562
294.9865, 1.550261
295.4686, 1.323639
295.9507, 1.043653
296.4328, 0.5011480
296.9149, 0.3095190
297.3970, 0.8597720
297.8792, 1.560095
298.3613, 1.850399
298.8434, 1.575977
299.3255, 1.065079
299.8076, 0.8929060
300.2897, 1.312859
300.7719, 1.493877
301.2540, 1.095133
301.7361, 0.7009010
302.2182, 0.8036880
302.7003, 1.415024
303.1824, 2.056084
303.6646, 2.079414
304.1467, 1.213722
304.6288, 0.7176490
305.1109, 0.7815820
305.5930, 1.020205
306.0751, 1.368181
306.5573, 1.759226
307.0394, 2.077675
307.5215, 2.212151
308.0036, 2.151617
308.4857, 2.061823
308.9678, 1.734171
309.4500, 1.585163
309.9321, 1.904890
310.4142, 2.497240
310.8963, 2.937220
311.3784, 2.900322
311.8605, 2.481262
312.3427, 2.432817
312.8248, 3.200949
313.3069, 3.837019
313.7890, 4.135975
314.2711, 4.215807
314.7532, 4.235760
315.2354, 4.270138
315.7175, 4.296995
316.1996, 4.226034
316.6817, 3.809992
317.1638, 3.734190
317.6459, 4.281893
318.1281, 5.010054
318.6102, 5.591715
319.0923, 5.940516
319.5744, 6.150805
320.0565, 6.395844
320.5386, 6.780403
321.0208, 6.950813
321.5029, 6.580980
321.9850, 6.249157
322.4671, 6.421423
322.9492, 7.093637
323.4313, 7.847572
323.9135, 8.215683
324.3956, 8.115299
324.8777, 8.047491
325.3598, 7.832777
325.8419, 7.817747
326.3240, 8.294775
326.8062, 9.113071
327.2883, 9.853176
327.7704, 10.15016
328.2525, 10.04253
328.7346, 10.23372
329.2167, 11.02972
329.6989, 11.79459
330.1810, 12.45026
330.6631, 12.96115
331.1452, 13.23330
331.6273, 13.16979
332.1094, 12.95269
332.5916, 13.15779
333.0737, 14.11499
333.5558, 14.84373
334.0379, 15.20387
334.5200, 15.29769
335.0021, 15.18908
335.4843, 14.89928
335.9664, 14.45982
336.4485, 13.86695
336.9306, 12.99277
337.4127, 12.34737
337.8948, 12.01715
338.3770, 11.87345
338.8591, 12.06717
339.3412, 12.48905
339.8233, 12.67746
340.3055, 11.99399
340.7876, 10.31041
341.2697, 9.080866
341.7518, 8.678667
342.2339, 8.408291
342.7160, 8.057007
343.1982, 7.620502
343.6803, 7.135157
344.1624, 6.604265
344.6445, 6.045633
345.1266, 5.525740
345.6087, 4.891401
346.0909, 4.576853
346.5730, 5.072086
347.0551, 5.795645
347.5372, 5.986067
348.0193, 5.290520
348.5014, 4.085381
348.9836, 2.929981
349.4657, 1.701752
349.9478, 0.9601060
350.4299, 1.259144
350.9120, 1.862713
351.3941, 2.271290
351.8763, 2.382271
352.3584, 2.345331
352.8405, 2.258366
353.3226, 2.118139
353.8047, 2.056442
354.2868, 2.096346
354.7690, 2.186472
355.2511, 2.368900
355.7332, 2.596210
356.2153, 2.701281
356.6974, 2.488537
357.1795, 2.025282
357.6617, 1.579620
358.1438, 1.077240
358.6259, 0.7773020
359.1080, 1.000610
359.5901, 1.479630
360.0722, 1.795731
360.5544, 1.801920
361.0365, 1.579458
361.5186, 1.129343
362.0007, 0.3970760
362.4828, 0.1020390
362.9649, 2.3469999E-02
363.4471, 0.3970090
363.9292, 0.5562970
364.4113, 0.4008450
364.8934, 0.3066540
365.3755, 0.6526950
365.8576, 1.333858
366.3398, 1.686264
366.8219, 1.431858
367.3040, 0.9885940
367.7861, 0.7821560
368.2682, 0.7925150
368.7503, 0.8668770
369.2325, 1.026718
369.7146, 1.188297
370.1967, 1.162210
370.6788, 0.8985880
371.1609, 0.6615160
371.6430, 0.7167070
372.1252, 0.9683440
372.6073, 1.092707
373.0894, 1.050259
373.5715, 0.8646490
374.0536, 0.3984150
374.5357, 0.2695350
375.0179, 0.6435130
375.5000, 0.3947010
375.9821, 0.2259350
376.4642, 0.6356620
376.9463, 0.8425430
377.4284, 0.8654080
377.9106, 0.4880390
378.3927, 2.2243001E-02
378.8748, 0.1406590
379.3569, 0.3028950
379.8390, 0.9190220
380.3211, 1.208942
380.8033, 1.108202
381.2854, 1.031628
381.7675, 1.050529
382.2496, 1.074463
382.7317, 1.013863
383.2138, 0.8971520
383.6960, 0.8135030
384.1781, 0.8845730
384.6602, 1.110178
385.1423, 1.115669
385.6244, 0.5880950
386.1065, 0.2301240
386.5887, 0.4635730
387.0708, 0.9882970
387.5529, 1.279144
388.0350, 1.101376
388.5171, 0.6306480
388.9992, 0.2463470
389.4814, 7.6600999E-02
389.9635, 0.2507320
390.4456, 0.1657700
390.9277, 7.8530004E-03
391.4098, 3.4345999E-02
391.8919, 4.1487001E-02
392.3741, 4.8018999E-02
392.8562, 0.2502000
393.3383, 0.9380260
393.8204, 1.277752
394.3025, 0.8022270
394.7846, 0.4872930
395.2668, 0.8396590
395.7489, 1.578613
396.2310, 2.147772
396.7131, 2.213953
397.1952, 1.916161
397.6773, 1.745762
398.1595, 1.841789
398.6416, 1.832310
399.1237, 1.581274
399.6058, 1.272251
400.0879, 1.049868
400.5700, 0.9506170
401.0522, 0.9324400
401.5343, 0.9711150
402.0164, 1.089720
402.4985, 1.122015
402.9806, 0.8875470
403.4627, 0.7344040
403.9449, 0.9139800
404.4270, 1.307253
404.9091, 1.587126
405.3912, 1.516430
405.8733, 1.205910
406.3554, 1.016756
406.8376, 1.026949
407.3197, 0.9580330
407.8018, 0.4334750
408.2839, 0.1047440
408.7660, 7.2150998E-02
409.2481, 0.7725620
409.7303, 1.628590
410.2124, 1.522551
410.6945, 0.5327220
411.1766, 8.3053999E-02
411.6587, 0.1408880
412.1408, 0.5615690
412.6230, 0.5383640
413.1051, 0.1323070
413.5872, 0.2121980
414.0693, 0.2726020
414.5514, 0.1566810
415.0335, 3.9864000E-02
415.5157, 3.6068000E-02
415.9978, 0.1005120
416.4799, 0.2261600
416.9620, 0.4032080
417.4441, 0.5886840
417.9262, 0.8345090
418.4084, 1.017536
418.8905, 1.001186
419.3726, 0.8651260
419.8547, 0.8644370
420.3368, 1.125284
420.8189, 1.398062
421.3011, 1.193203
421.7832, 0.3162060
422.2653, 0.1898330
422.7474, 4.6856001E-02
423.2295, 0.5235710
423.7116, 0.8639370
424.1938, 1.019615
424.6759, 1.036560
425.1580, 0.9113830
425.6401, 0.6646610
426.1222, 0.6857620
426.6043, 1.325804
427.0865, 1.782867
427.5686, 1.694012
428.0507, 1.354614
428.5328, 1.215719
429.0149, 1.445269
429.4970, 1.810104
429.9792, 1.891279
430.4613, 1.516556
430.9434, 1.225868
431.4255, 1.022499
431.9076, 0.8807130
432.3897, 0.7556740
432.8719, 0.6539840
433.3540, 0.6832920
433.8361, 0.9429650
434.3182, 1.358789
434.8003, 1.514700
435.2824, 1.256256
435.7646, 0.9598120
436.2467, 0.6281740
436.7288, 0.3486330
437.2109, 0.2606300
437.6930, 0.4003240
438.1751, 0.6067700
438.6573, 0.7136440
439.1394, 0.7231370
439.6215, 0.5588570
440.1036, 0.1014710
440.5857, 0.5787980
441.0678, 0.3006480
441.5500, 0.5544090
442.0321, 1.294786
442.5142, 1.475412
442.9963, 1.359835
443.4784, 1.475615
443.9605, 1.865911
444.4427, 2.144329
444.9248, 2.013288
445.4069, 1.684298
445.8890, 1.546356
446.3711, 1.679398
446.8532, 1.823132
447.3354, 1.831871
447.8175, 1.741327
448.2996, 1.651915
448.7817, 1.586521
449.2638, 1.499739
449.7459, 1.313414
450.2281, 1.022034
450.7102, 0.8822100
451.1923, 0.9782180
451.6744, 1.155651
452.1565, 1.351145
452.6386, 1.550400
453.1208, 1.743732
453.6029, 1.935385
454.0850, 2.087603
454.5671, 2.094524
455.0492, 1.864389
455.5313, 1.601425
456.0135, 1.194252
456.4956, 0.8315530
456.9777, 0.6318040
457.4598, 0.6283890
457.9419, 0.8408050
458.4240, 1.333172
458.9062, 2.111206
459.3883, 2.696676
459.8704, 3.329893
460.3525, 3.455185
460.8346, 2.432961
461.3167, 1.027672
461.7989, 0.2338620
462.2810, 0.4332370
462.7631, 1.125315
463.2452, 1.601324
463.7273, 1.857582
464.2094, 1.910089
464.6916, 1.473097
465.1737, 1.103836
465.6558, 1.250177
466.1379, 1.763336
466.6200, 2.120163
467.1021, 1.961164
467.5843, 1.490444
468.0664, 1.084536
468.5485, 0.7136380
469.0306, 0.5367390
469.5127, 0.8279720
469.9948, 1.258568
470.4770, 1.311054
470.9591, 0.8879150
471.4412, 0.3887020
471.9233, 0.1239170
472.4054, 0.5110230
472.8875, 0.4540270
473.3697, 0.1221810
473.8518, 0.8050080
474.3339, 1.246058
474.8160, 1.434959
475.2981, 1.549126
475.7802, 1.680515
476.2624, 1.641083
476.7445, 1.068007
477.2266, 0.3065200
477.7087, 9.9812999E-02
478.1908, 0.7500380
478.6729, 1.745884
479.1551, 2.149439
479.6372, 1.618767
480.1193, 1.255903
480.6014, 1.144119
481.0835, 1.149221
481.5656, 1.255545
482.0478, 1.417356
482.5299, 1.550627
483.0120, 1.596937
483.4941, 1.578707
483.9762, 1.599880
484.4583, 1.767761
484.9405, 1.757771
485.4226, 1.274538
485.9047, 0.7674140
486.3868, 0.6635400
486.8689, 0.9830880
487.3510, 1.294266
487.8332, 1.115696
488.3153, 0.5877290
488.7974, 0.4341950
489.2795, 0.8094020
489.7616, 1.245003
490.2437, 1.518734
490.7259, 1.653257
491.2080, 1.629017
491.6901, 1.308325
492.1722, 1.093113
492.6543, 1.519709
493.1364, 2.296406
493.6186, 2.455076
494.1007, 1.633537
494.5828, 0.6479660
495.0649, 0.4753930
495.5470, 1.213722
496.0291, 1.766127
496.5113, 2.070459
496.9934, 2.206829
497.4755, 2.207270
497.9576, 2.065044
498.4397, 1.713839
498.9218, 1.164516
499.4040, 0.5904270
499.8861, 0.3647310
500.3682, 0.8541720
500.8503, 1.013348
501.3324, 0.4733090
501.8145, 4.2980000E-02
502.2967, 3.2009999E-03
502.7788, 0.4802280
503.2609, 0.9222390
503.7430, 0.9835610
504.2251, 0.7485960
504.7072, 0.5099390
505.1894, 0.1743050
505.6715, 5.2524999E-02
506.1536, 0.4791320
506.6357, 0.9774950
507.1178, 1.147839
507.5999, 0.9504450
508.0821, 0.6843490
508.5642, 0.4762000
509.0463, 0.3710860
509.5284, 0.5847930
510.0105, 1.221859
510.4926, 1.763147
510.9748, 1.817894
511.4569, 1.560984
511.9390, 1.439583
512.4211, 1.622145
512.9032, 1.673124
513.3853, 1.213928
513.8674, 0.5250840
514.3495, 8.6026996E-02
514.8317, 4.8600000E-04
515.3138, 0.1276050
515.7959, 0.3507180
516.2780, 0.6804160
516.7601, 0.9445440
517.2422, 1.179214
517.7244, 1.321083
518.2065, 1.321646
518.6886, 1.227053
519.1707, 1.104362
519.6528, 0.9538690
520.1349, 0.7758450
520.6171, 0.5904430
521.0992, 0.3599220
521.5813, 0.2720150
522.0634, 0.4554840
522.5455, 0.6593170
523.0276, 0.9739440
523.5098, 1.266361
523.9919, 1.266870
524.4740, 0.7942300
524.9561, 0.1615470
525.4382, 0.1889650
525.9203, 0.2515300
526.4025, 0.2361130
526.8846, 0.1676330
527.3667, 6.1949000E-02
527.8488, 0.1032960
528.3309, 0.3080770
528.8130, 0.4146140
529.2952, 0.2353530
529.7773, 3.9085001E-02
530.2594, 0.1676450
530.7415, 0.5594140
531.2236, 0.7883280
531.7057, 0.5815430
532.1879, 0.1897980
532.6700, 0.1239910
533.1521, 0.6096670
533.6342, 0.9134920
534.1163, 0.8834400
534.5984, 0.7861350
535.0806, 0.7779580
535.5627, 0.8561760
536.0448, 0.9670810
536.5269, 1.051373
537.0090, 1.113575
537.4911, 1.171732
537.9733, 1.159811
538.4554, 1.298157
538.9375, 1.915754
539.4196, 2.434328
539.9017, 2.469469
540.3839, 2.056026
540.8660, 1.467873
541.3481, 0.6630740
541.8302, 7.8420997E-02
542.3123, 4.4500001E-02
542.7944, 1.154144
543.2766, 2.052385
543.7587, 2.256207
544.2408, 2.002951
544.7229, 1.538994
545.2050, 0.7918010
545.6871, 0.4477440
546.1693, 1.056883
546.6514, 1.991907
547.1335, 2.657320
547.6156, 2.996159
548.0977, 3.049046
548.5798, 2.797888
549.0620, 2.344416
549.5441, 2.035948
550.0262, 1.937284
550.5083, 1.898422
550.9904, 1.968157
551.4725, 2.060190
551.9547, 2.168863
552.4368, 2.248505
552.9189, 2.157469
553.4010, 1.731157
553.8831, 1.108276
554.3652, 1.004686
554.8474, 1.694313
555.3295, 2.220755
555.8116, 2.213415
556.2937, 2.041357
556.7758, 1.963226
557.2579, 1.989813
557.7401, 1.967367
558.2222, 1.709452
558.7043, 1.354519
559.1864, 1.215727
559.6685, 1.298779
560.1506, 1.381798
560.6328, 1.344845
561.1149, 1.248566
561.5970, 1.268082
562.0791, 1.442951
562.5612, 1.492037
563.0433, 1.282310
563.5255, 1.008493
564.0076, 0.7782420
564.4897, 0.6276420
564.9718, 0.6284290
565.4539, 0.8435250
565.9360, 1.186108
566.4182, 1.358252
566.9003, 1.281626
567.3824, 1.180182
567.8645, 0.9380170
568.3466, 0.7872660
568.8287, 1.015987
569.3109, 1.497959
569.7930, 1.759451
570.2751, 1.402437
570.7572, 0.7514500
571.2393, 0.5263610
571.7214, 0.7635800
572.2036, 0.9797520
572.6857, 1.011681
573.1678, 0.9753800
573.6499, 1.041521
574.1320, 1.207178
574.6141, 1.239683
575.0963, 1.003345
575.5784, 0.6657640
576.0605, 0.2145140
576.5426, 0.2357740
577.0247, 0.2132330
577.5068, 0.5532110
577.9890, 1.526566
578.4711, 1.634472
578.9532, 0.2371230
579.4353, 0.3876750
579.9174, 0.3834530
580.3995, 1.204058
580.8817, 1.429499
581.3638, 1.220346
581.8459, 0.9547540
582.3280, 0.8044890
582.8101, 0.7312890
583.2922, 0.6900860
583.7744, 0.6979560
584.2565, 0.6255000
584.7386, 0.3785710
585.2207, 0.1672440
585.7029, 0.1459710
586.1850, 0.2643810
586.6671, 0.4209750
587.1492, 0.6882900
587.6313, 0.8540210
588.1135, 0.6109120
588.5956, 0.1671700
589.0777, 7.0203997E-02
589.5598, 0.4666480
590.0419, 0.9500890
590.5240, 1.090214
591.0062, 0.8734190
591.4883, 0.6986750
591.9704, 0.6137010
592.4525, 0.4864830
592.9346, 0.1597650
593.4167, 0.1386170
593.8989, 7.1025997E-02
594.3810, 0.4147830
594.8631, 0.8955840
595.3452, 0.8698710
595.8273, 0.4207440
596.3094, 0.2209990
596.7916, 0.3440930
597.2737, 0.5473770
597.7558, 0.8321860
598.2379, 1.092690
598.7200, 1.200321
599.2021, 1.131067
599.6843, 1.006014
600.1664, 0.8712840
600.6485, 0.7416820
601.1306, 0.5827920
601.6127, 0.4162730
602.0948, 0.4645230
602.5770, 0.9165210
603.0591, 1.563602
603.5412, 1.822243
604.0233, 1.309582
604.5054, 1.028114
604.9875, 1.272167
605.4697, 1.484943
605.9518, 1.133308
606.4339, 0.4490150
606.9160, 0.1124440
607.3981, 0.5415520
607.8802, 1.337801
608.3624, 1.749325
608.8445, 1.754580
609.3266, 1.497141
609.8087, 0.7463340
610.2908, 6.6931002E-02
610.7729, 9.9476002E-02
611.2551, 0.1303710
611.7372, 0.4261990
612.2193, 0.7686630
612.7014, 1.072706
613.1835, 1.371956
613.6656, 1.574238
614.1478, 1.354284
614.6299, 0.6383210
615.1120, 3.7565000E-02
615.5941, 0.1162240
616.0762, 0.4054870
616.5583, 0.9171830
617.0405, 1.833719
617.5226, 2.219570
618.0047, 1.457375
618.4868, 0.3782080
618.9689, 0.1982290
619.4510, 0.1506350
619.9332, 6.3049003E-02
620.4153, 0.1493150
620.8974, 0.1652980
621.3795, 0.2993090
621.8616, 0.5885180
622.3438, 0.7936570
622.8259, 0.7819900
623.3080, 0.6803870
623.7901, 0.6479320
624.2722, 0.6846850
624.7543, 0.7699450
625.2365, 0.9732950
625.7186, 1.160637
626.2007, 1.200615
626.6828, 1.107508
627.1649, 1.092079
627.6470, 1.241444
628.1292, 1.460705
628.6113, 1.618622
629.0934, 1.751316
629.5755, 1.667725
630.0576, 0.9093800
630.5397, 0.4274830
631.0219, 0.8292790
631.5040, 1.549856
631.9861, 1.739269
632.4682, 1.137550
632.9503, 0.4308590
633.4324, 0.1972120
633.9146, 0.3609660
634.3967, 0.7801970
634.8788, 1.509760
635.3609, 2.079857
635.8430, 2.164616
636.3251, 1.885197
636.8073, 1.563169
637.2894, 1.130192
637.7715, 0.7872410
638.2536, 0.4565560
638.7357, 0.2528840
639.2178, 0.3293900
639.7000, 0.6148760
640.1821, 0.9262500
640.6642, 1.172815
641.1463, 1.317513
641.6284, 1.228550
642.1105, 0.8236500
642.5927, 0.6395210
643.0748, 0.9008730
643.5569, 1.162958
644.0390, 1.116764
644.5211, 0.9053920
645.0032, 0.8368360
645.4854, 1.057030
645.9675, 1.250612
646.4496, 1.186632
646.9317, 0.9551540
647.4138, 0.6968040
647.8959, 0.4364530
648.3781, 0.1959920
648.8602, 4.2645998E-02
649.3423, 0.2153970
649.8244, 8.7620001E-03
650.3065, 1.417053
650.7886, 2.019606
651.2708, 0.8943940
651.7529, 0.2842710
652.2350, 0.2926960
652.7171, 0.6152740
653.1992, 1.495663
653.6813, 1.818333
654.1635, 1.778540
654.6456, 1.552645
655.1277, 1.168509
655.6098, 1.003107
656.0919, 1.182178
656.5740, 1.441532
657.0562, 1.616486
657.5383, 1.681593
658.0204, 1.547255
658.5025, 0.9211430
658.9846, 0.4865970
659.4667, 0.4400790
659.9489, 0.6333410
660.4310, 1.119808
660.9131, 1.765299
661.3952, 2.071472
661.8773, 1.602741
662.3594, 0.6590420
662.8416, 0.2565400
663.3237, 0.5331970
663.8058, 0.8484690
664.2879, 1.193989
664.7700, 1.433729
665.2521, 1.404678
665.7343, 1.192123
666.2164, 1.104465
666.6985, 1.337385
667.1806, 1.573473
667.6627, 1.549006
668.1448, 1.374792
668.6270, 1.258591
669.1091, 1.262894
669.5912, 1.328241
670.0733, 1.416235
670.5554, 1.518732
671.0375, 1.573938
671.5197, 1.472544
672.0018, 1.507557
672.4839, 1.959625
672.9660, 2.324791
673.4481, 2.158091
673.9302, 1.608175
674.4124, 1.189774
674.8945, 1.287178
675.3766, 1.444981
675.8587, 0.8753990
676.3408, 0.1930180
676.8229, 0.6305830
677.3051, 9.6354999E-02
677.7872, 0.6522750
678.2693, 0.9302160
678.7514, 0.7821160
679.2335, 0.7469560
679.7156, 0.9520550
680.1978, 1.083845
680.6799, 1.042870
681.1620, 0.9536990
681.6441, 0.9796560
682.1262, 1.069496
682.6083, 0.9461560
683.0905, 0.3237820
683.5726, 0.3474350
684.0547, 2.8406000E-02
684.5368, 1.446974
685.0189, 2.160210
685.5010, 1.617445
685.9832, 0.8001210
686.4653, 0.4778290
686.9474, 0.5802560
687.4295, 0.6972560
687.9116, 0.8336300
688.3937, 0.9632300
688.8759, 1.169680
689.3580, 1.306408
689.8401, 1.119467
690.3222, 0.6855680
690.8043, 0.3663200
691.2864, 0.3917690
691.7686, 0.6927890
692.2507, 1.193571
692.7328, 1.991709
693.2149, 2.338314
693.6970, 1.918936
694.1791, 1.336960
694.6613, 0.9396780
695.1434, 0.6977540
695.6255, 0.5549620
696.1076, 0.5062100
696.5897, 0.5505600
697.0718, 0.7398510
697.5540, 0.9933190
698.0361, 1.232790
698.5182, 1.441671
699.0003, 1.628288
699.4824, 1.806370
699.9645, 1.917147
700.4467, 1.777092
700.9288, 1.282406
701.4109, 0.9272140
701.8930, 0.8003920
702.3751, 0.7458480
702.8572, 0.7151410
703.3394, 0.7117750
703.8215, 0.6496450
704.3036, 0.5054590
704.7857, 0.4603600
705.2678, 0.7609460
705.7499, 1.156542
706.2321, 1.201138
706.7142, 0.9308490
707.1963, 0.7979430
707.6784, 1.077257
708.1605, 1.556480
708.6426, 1.854927
709.1248, 2.028364
709.6069, 1.781525
710.0890, 0.4804270
710.5711, 0.4068130
711.0532, 6.6891000E-02
711.5353, 0.7735500
712.0175, 1.111317
712.4996, 0.7305830
712.9817, 0.3804680
713.4638, 0.6982560
713.9459, 1.220383
714.4280, 1.274956
714.9102, 0.9064120
715.3923, 0.4237750
715.8744, 6.7642003E-02
716.3565, 0.3925990
716.8386, 0.2458840
717.3207, 0.4731250
717.8029, 0.9744760
718.2850, 1.079054
718.7671, 1.115658
719.2492, 1.247551
719.7313, 1.331648
720.2134, 1.103489
720.6956, 0.5923980
721.1777, 0.3152870
721.6598, 0.8127520
722.1419, 1.548021
722.6240, 1.806995
723.1061, 1.688118
723.5883, 1.573973
724.0704, 1.574633
724.5525, 1.645151
725.0346, 1.751024
725.5167, 1.889681
725.9988, 1.974232
726.4810, 2.109505
726.9631, 2.029488
727.4452, 1.385899
727.9273, 0.7809730
728.4094, 0.7783110
728.8915, 1.246742
729.3737, 1.610941
729.8558, 1.591591
730.3379, 1.380239
730.8200, 1.024569
731.3021, 0.6511840
731.7842, 0.7290800
732.2664, 1.327938
732.7485, 1.813278
733.2306, 1.664261
733.7127, 1.072187
734.1948, 0.7822860
734.6769, 1.019749
735.1591, 1.191002
735.6412, 1.200253
736.1233, 1.170521
736.6054, 1.100847
737.0875, 1.057980
737.5696, 1.184694
738.0518, 1.557213
738.5339, 1.913763
739.0160, 2.045879
739.4981, 2.021290
739.9802, 1.948751
740.4623, 1.840284
740.9445, 1.673218
741.4266, 1.386679
741.9087, 1.171003
742.3908, 1.296703
742.8729, 1.887035
743.3550, 2.266008
743.8372, 2.430412
744.3193, 2.371611
744.8014, 1.931732
745.2835, 1.359446
745.7656, 0.8953250
746.2477, 0.5787580
746.7299, 0.3795890
747.2120, 0.2882750
747.6941, 0.2984390
748.1762, 0.5018580
748.6583, 0.8044470
749.1404, 0.8593350
749.6226, 0.5713460
750.1047, 0.2771360
750.5868, 0.3274940
751.0689, 0.6918510
751.5510, 1.059319
752.0331, 1.551105
752.5153, 1.807314
752.9974, 1.572054
753.4795, 1.257528
753.9616, 1.130964
754.4437, 1.142464
754.9258, 1.090532
755.4080, 0.8643890
755.8901, 0.6568050
756.3722, 0.6106340
756.8543, 0.6599790
757.3364, 0.7072770
757.8185, 0.7458720
758.3007, 0.8633230
758.7828, 1.134762
759.2649, 1.374237
759.7470, 1.074022
760.2291, 6.5460000E-03
760.7112, 0.4691050
761.1934, 9.2364997E-02
761.6755, 0.5991360
762.1576, 0.3953670
762.6397, 8.5395999E-02
763.1218, 0.3237780
763.6039, 0.2680660
764.0861, 6.6124000E-02
764.5682, 0.3784790
765.0503, 0.8147830
765.5324, 1.042824
766.0145, 1.112852
766.4966, 1.126745
766.9788, 1.116833
767.4609, 1.107208
767.9430, 1.133991
768.4251, 1.011200
768.9072, 1.058508
769.3893, 0.8143330
769.8715, 0.6241610
770.3536, 0.5228580
770.8357, 0.5169640
771.3178, 0.6931500
771.7999, 0.9936790
772.2820, 1.115452
772.7642, 0.9458830
773.2463, 0.7241290
773.7284, 0.4917910
774.2105, 0.2298360
774.6926, 0.1706430
775.1747, 0.5735050
775.6569, 0.5990580
776.1390, 2.2751000E-02
776.6211, 0.7334290
777.1032, 1.128695
777.5853, 1.196745
778.0674, 1.086952
778.5496, 0.7856390
779.0317, 0.4941430
779.5138, 0.2710840
779.9959, 0.1751440
780.4780, 0.3573090
780.9601, 0.9581850
781.4423, 1.257212
781.9244, 1.044474
782.4065, 0.8000490
782.8886, 0.6388000
783.3707, 0.5460820
783.8528, 0.5424840
784.3350, 0.6000940
784.8171, 0.5611550
785.2992, 0.1545870
785.7813, 0.2014830
786.2634, 0.2780740
786.7455, 1.273306
787.2277, 1.668945
787.7098, 1.249355
788.1919, 0.6412030
788.6740, 0.3068960
789.1561, 0.2112240
789.6382, 0.2545450
790.1204, 0.5589960
790.6025, 0.7034440
791.0846, 0.4564480
791.5667, 0.2790260
792.0488, 0.4534510
792.5309, 0.7947640
793.0131, 1.031385
793.4952, 1.122978
793.9773, 1.074556
794.4594, 0.6658020
794.9415, 0.3052830
795.4236, 0.5332680
795.9058, 1.097351
796.3879, 1.311502
796.8700, 0.9968410
797.3521, 0.6809650
797.8342, 0.9827610
798.3163, 1.724072
798.7985, 1.915852
799.2806, 1.446379
799.7627, 1.081781
800.2448, 1.018833
800.7269, 1.066517
801.2090, 1.114134
801.6912, 1.139091
802.1733, 1.027851
802.6554, 0.4731920
803.1375, 0.2711050
803.6196, 0.9813100
804.1017, 1.720284
804.5839, 1.842562
805.0660, 1.484858
805.5481, 0.9370140
806.0302, 0.3016010
806.5123, 6.7423001E-02
806.9944, 0.4496250
807.4766, 1.423119
807.9587, 1.729759
808.4408, 1.396400
808.9229, 1.207615
809.4050, 1.477415
809.8871, 1.794905
810.3693, 1.605883
810.8514, 0.9205300
811.3335, 0.7713780
811.8156, 1.672752
812.2977, 2.249626
812.7798, 2.110275
813.2620, 1.768553
813.7441, 1.530710
814.2262, 1.367804
814.7083, 1.107477
815.1904, 0.5723040
815.6725, 0.2668780
816.1547, 0.7665100
816.6368, 1.442549
817.1189, 1.462296
817.6010, 0.9855040
818.0831, 0.7365570
818.5652, 1.000231
819.0474, 1.406179
819.5295, 1.343216
820.0116, 0.8841690
820.4937, 0.7256490
820.9758, 0.9103070
821.4579, 1.129351
821.9401, 1.371714
822.4222, 1.453627
822.9043, 1.048841
823.3864, 0.1973800
823.8685, 0.1444300
824.3506, 0.3998550
824.8328, 0.9017640
825.3149, 1.331911
825.7970, 1.577784
826.2791, 1.429195
826.7612, 1.054050
827.2433, 0.8510340
827.7255, 0.9831850
828.2076, 1.148895
828.6897, 0.9900440
829.1718, 0.7552110
829.6539, 0.9019530
830.1360, 1.346289
830.6182, 1.846899
831.1003, 2.305635
831.5824, 2.590487
832.0645, 2.520947
832.5466, 2.118734
833.0287, 1.647736
833.5109, 0.9955310
833.9930, 0.7336290
834.4751, 1.268812
834.9572, 1.825218
835.4393, 1.598726
835.9214, 0.8889410
836.4036, 0.5922340
836.8857, 1.019163
837.3678, 1.365576
837.8499, 1.325338
838.3320, 1.240744
838.8141, 1.411596
839.2963, 1.706450
839.7784, 1.876417
840.2605, 1.838793
840.7426, 1.633505
841.2247, 1.125908
841.7068, 0.5533010
842.1890, 0.3900340
842.6711, 0.5981220
843.1532, 1.036943
843.6353, 1.675972
844.1174, 2.242914
844.5995, 2.484425
845.0817, 2.439342
845.5638, 2.241943
846.0459, 1.766529
846.5280, 1.502159
847.0101, 1.698654
847.4922, 1.831924
847.9744, 1.386848
848.4565, 0.8129790
848.9386, 0.9299640
849.4207, 1.947058
849.9028, 2.567816
850.3849, 1.998186
850.8671, 1.413485
851.3492, 1.721272
851.8313, 2.329828
852.3134, 2.296326
852.7955, 1.571833
853.2776, 1.040844
853.7598, 1.384462
854.2419, 2.096312
854.7240, 2.461388
855.2061, 2.524185
855.6882, 2.300383
856.1703, 1.806454
856.6525, 1.627636
857.1346, 2.162561
857.6167, 2.934786
858.0988, 2.978800
858.5809, 2.123072
859.0630, 1.701443
859.5452, 2.001654
860.0273, 2.226967
860.5094, 2.012314
860.9915, 1.713154
861.4736, 1.604076
861.9557, 1.706730
862.4379, 1.974665
862.9200, 2.745525
863.4021, 3.177879
863.8842, 2.643818
864.3663, 1.921518
864.8484, 1.762991
865.3306, 1.981926
865.8127, 1.910433
866.2948, 1.298784
866.7769, 0.7372700
867.2590, 0.9485680
867.7411, 1.582762
868.2233, 1.958292
868.7054, 2.085323
869.1875, 1.954269
869.6696, 1.556557
870.1517, 1.204605
870.6339, 1.225706
871.1160, 1.500414
871.5981, 1.416723
872.0802, 0.7412870
872.5623, 0.5909290
873.0444, 1.389166
873.5266, 2.200430
874.0087, 2.547356
874.4908, 2.606192
874.9729, 2.495405
875.4550, 2.107985
875.9371, 1.915499
876.4193, 2.421513
876.9014, 2.620783
877.3835, 1.640017
877.8656, 0.4479470
878.3477, 0.1284160
878.8298, 0.6553570
879.3120, 1.286451
879.7941, 1.702826
880.2762, 1.990992
880.7583, 2.209032
881.2404, 2.330051
881.7225, 2.355608
882.2047, 2.265070
882.6868, 1.813726
883.1689, 0.9000800
883.6510, 0.1730860
884.1331, 0.6396350
884.6152, 2.051382
885.0974, 2.398226
885.5795, 1.525175
886.0616, 0.6403640
886.5437, 0.1313820
887.0258, 0.4284880
887.5079, 0.2941610
887.9901, 1.670536
888.4722, 2.221106
888.9543, 1.397812
889.4364, 0.7863330
889.9185, 0.4062270
890.4006, 0.2121010
890.8828, 0.2939110
891.3649, 0.4883820
891.8470, 0.5363730
892.3291, 0.4385620
892.8112, 0.5840870
893.2933, 1.567497
893.7755, 2.349222
894.2576, 2.000062
894.7397, 1.246656
895.2218, 1.051282
895.7039, 1.356327
896.1860, 1.513576
896.6682, 1.207653
897.1503, 0.7569540
897.6324, 0.4975760
898.1145, 0.4114010
898.5966, 0.4639270
899.0787, 0.6455550
899.5609, 0.8930950
900.0430, 1.190757
900.5251, 1.516621
901.0072, 1.907347
901.4893, 2.287683
901.9714, 2.288065
902.4536, 1.845798
902.9357, 1.388755
903.4178, 0.8545990
903.8999, 0.4922700
904.3820, 0.5647090
904.8641, 0.8185360
905.3463, 0.7851660
905.8284, 0.4165980
906.3105, 0.1875340
906.7926, 0.1295080
907.2747, 0.2320210
907.7568, 0.8066800
908.2390, 1.287085
908.7211, 1.011176
909.2032, 0.2050030
909.6853, 0.3312550
910.1674, 0.2685290
910.6495, 7.9901002E-02
911.1317, 0.1072670
911.6138, 0.1516570
912.0959, 4.9687002E-02
912.5780, 0.4150270
913.0601, 0.7571200
913.5422, 1.010277
914.0244, 1.139175
914.5065, 1.087317
914.9886, 0.9378300
915.4707, 0.8972700
915.9528, 0.9322540
916.4349, 0.7672580
916.9171, 0.3571180
917.3992, 6.6480003E-02
917.8813, 0.1199270
918.3634, 0.3006200
918.8455, 0.1977370
919.3276, 0.2272910
919.8098, 0.1846980
920.2919, 0.6399790
920.7740, 1.106936
921.2561, 0.6922590
921.7382, 0.1710560
922.2203, 0.2673890
922.7025, 0.7851570
923.1846, 0.9401660
923.6667, 0.5433750
924.1488, 0.2018830
924.6309, 0.1848500
925.1130, 0.3295070
925.5952, 5.5055998E-02
926.0773, 0.6607670
926.5594, 1.216284
927.0415, 1.638628
927.5236, 1.748543
928.0057, 1.223090
928.4879, 0.7290240
928.9700, 0.7201900
929.4521, 0.9670210
929.9342, 1.446689
930.4163, 1.909885
930.8984, 1.651421
931.3806, 0.4487970
931.8627, 0.6930760
932.3448, 0.6731800
932.8269, 5.0824001E-02
933.3090, 0.7186460
933.7911, 1.264428
934.2733, 1.269822
934.7554, 0.6896070
935.2375, 0.2040110
935.7196, 0.2925190
936.2017, 0.6547490
936.6838, 0.6143670
937.1660, 0.1399430
937.6481, 8.4702000E-02
938.1302, 2.5780000E-02
938.6123, 0.1723880
939.0944, 0.5452310
939.5765, 0.8623640
940.0587, 0.8220410
940.5408, 0.5020270
941.0229, 0.5014530
941.5050, 1.196499
941.9871, 1.521278
942.4692, 1.100214
942.9514, 0.6952430
943.4335, 0.6492760
943.9156, 0.7636220
944.3977, 0.7765290
944.8798, 0.6622370
945.3619, 0.6099290
945.8441, 0.6600220
946.3262, 0.7170030
946.8083, 0.7582850
947.2904, 0.7826500
947.7725, 0.7463020
948.2546, 0.7029840
948.7368, 0.8211080
949.2189, 1.158616
949.7010, 1.338186
950.1831, 0.9721290
950.6652, 0.4579050
951.1473, 0.1383740
951.6295, 1.0224000E-02
952.1116, 3.1096000E-02
952.5937, 6.2470000E-02
953.0758, 0.2781990
953.5579, 0.6389310
954.0400, 0.9675220
954.5222, 0.8770110
955.0043, 1.293364
955.4864, 0.8965790
955.9685, 1.715682
956.4506, 2.252956
956.9327, 2.270074
957.4149, 1.835828
957.8970, 0.9015850
958.3791, 0.1957900
958.8612, 0.3591100
959.3433, 0.5064860
959.8254, 1.082504
960.3076, 1.249772
960.7897, 1.277332
961.2718, 1.277543
961.7539, 1.182434
962.2360, 0.8521390
962.7181, 0.3087890
963.2003, 9.3092002E-02
963.6824, 0.4143830
964.1645, 0.6348010
964.6466, 0.6621050
965.1287, 0.6191840
965.6108, 0.4845920
966.0930, 0.3592590
966.5751, 0.4321370
967.0572, 0.7533470
967.5393, 0.9704430
968.0214, 1.043747
968.5035, 1.065663
968.9857, 0.9016980
969.4678, 0.8021580
969.9499, 1.142379
970.4320, 1.664260
970.9141, 1.762723
971.3962, 1.250203
971.8784, 0.7482790
972.3605, 0.5482270
972.8426, 0.4481040
973.3247, 0.2698640
973.8068, 0.1331630
974.2889, 0.2294380
974.7711, 0.5291470
975.2532, 0.8642030
975.7353, 1.187879
976.2174, 1.393153
976.6995, 1.289026
977.1816, 1.029679
977.6638, 0.8062860
978.1459, 0.6786170
978.6280, 0.7293610
979.1101, 0.9599080
979.5922, 1.273271
980.0743, 1.646118
980.5565, 1.878869
981.0386, 1.414806
981.5207, 0.5491090
982.0028, 0.4785860
982.4849, 1.163590
982.9670, 1.723000
983.4492, 1.952748
983.9313, 1.844378
984.4134, 1.302333
984.8955, 0.6044750
985.3776, 0.8374720
985.8597, 2.051867
986.3419, 2.403934
986.8240, 1.598720
987.3061, 0.9294660
987.7882, 0.9940120
988.2703, 1.306262
988.7524, 1.241094
989.2346, 0.8571080
989.7167, 0.7401100
990.1988, 1.143563
990.6809, 1.288392
991.1630, 0.8938330
991.6451, 0.5031330
992.1273, 0.3792100
992.6094, 0.4248560
993.0915, 0.4936780
993.5736, 0.5866830
994.0557, 0.7724630
994.5378, 1.264464
995.0200, 1.520555
995.5021, 1.406242
995.9842, 1.137258
996.4663, 0.6063540
996.9484, 8.4086999E-02
997.4305, 9.9202000E-02
997.9127, 0.7448150
998.3948, 1.168283
998.8769, 1.057797
999.3590, 0.9423240
999.8411, 0.9357060
1000.323, 1.028079
1000.805, 1.386183
1001.287, 1.782408
1001.770, 1.698641
1002.252, 0.9947170
1002.734, 0.3862090
1003.216, 0.1904040
1003.698, 0.1534610
1004.180, 0.1348590
1004.662, 0.1926640
1005.144, 0.3977920
1005.627, 0.7405690
1006.109, 1.288781
1006.591, 2.094837
1007.073, 2.490537
1007.555, 1.618624
1008.037, 0.4989570
1008.519, 1.0479999E-03
1009.001, 1.4743000E-02
1009.483, 0.4325560
1009.966, 1.121588
1010.448, 1.387560
1010.930, 0.8954520
1011.412, 0.2927830
1011.894, 0.2976620
1012.376, 0.5585580
1012.858, 0.5053450
1013.340, 0.2588230
1013.823, 0.1822310
1014.305, 0.3033250
1014.787, 0.3281790
1015.269, 7.3996998E-02
1015.751, 0.1291110
1016.233, 0.3232460
1016.715, 1.119591
1017.197, 1.326298
1017.679, 1.013195
1018.162, 0.7320970
1018.644, 0.6042810
1019.126, 0.4720990
1019.608, 0.2185500
1020.090, 1.1810000E-03
1020.572, 0.1858740
1021.054, 0.6807120
1021.536, 0.8230960
1022.018, 0.6156040
1022.501, 0.4481410
1022.983, 0.4199880
1023.465, 0.3011880
1023.947, 0.1171010
1024.429, 0.5840750
1024.911, 0.5186730
1025.393, 9.2214003E-02
1025.875, 0.6328300
1026.358, 1.128271
1026.840, 1.283400
1027.322, 0.9386740
1027.804, 0.6329790
1028.286, 0.8252360
1028.768, 1.276148
1029.250, 1.360963
1029.732, 1.016740
1030.214, 0.7864420
1030.697, 0.6815990
1031.179, 0.6805520
1031.661, 0.8639000
1032.143, 0.9310620
1032.625, 0.5433690
1033.107, 5.8906000E-02
1033.589, 0.1755030
1034.071, 0.2910930
1034.553, 0.8384610
1035.036, 1.682597
1035.518, 2.122855
1036.000, 1.755893
1036.482, 1.266160
1036.964, 1.238386
1037.446, 1.481445
1037.928, 1.432659
1038.410, 1.025447
1038.893, 0.5448390
1039.375, 0.3555930
1039.857, 0.7685300
1040.339, 4.7681000E-02
1040.821, 0.7818010
1041.303, 0.8371970
1041.785, 0.4176000
1042.267, 0.4086370
1042.750, 1.023905
1043.232, 1.333963
1043.714, 1.198684
1044.196, 0.9319460
1044.678, 0.4106350
1045.160, 3.8966998E-02
1045.642, 0.1730500
1046.124, 5.3456999E-02
1046.606, 0.1696830
1047.089, 0.4980330
1047.571, 0.8840620
1048.053, 1.416909
1048.535, 1.876823
1049.017, 2.236259
1049.499, 2.473675
1049.981, 2.597508
1050.463, 2.582948
1050.945, 2.306469
1051.428, 1.676279
1051.910, 1.303880
1052.392, 1.532814
1052.874, 1.730665
1053.356, 1.677186
1053.838, 1.535923
1054.320, 1.400329
1054.802, 1.284562
1055.285, 1.185547
1055.767, 1.097448
1056.249, 1.127188
1056.731, 1.474355
1057.213, 1.717149
1057.695, 1.619380
1058.177, 1.436804
1058.659, 1.332488
1059.141, 1.304379
1059.624, 1.309980
1060.106, 1.342010
1060.588, 1.454311
1061.070, 1.630372
1061.552, 1.935714
1062.034, 2.658999
1062.516, 3.268950
1062.998, 3.218737
1063.480, 2.815477
1063.963, 2.595515
1064.445, 2.648630
1064.927, 2.776794
1065.409, 2.923727
1065.891, 3.110039
1066.373, 3.302540
1066.855, 3.573397
1067.337, 4.028217
1067.820, 4.576132
1068.302, 5.184278
1068.784, 5.789339
1069.266, 5.990581
1069.748, 5.185385
1070.230, 4.772980
1070.712, 5.748313
1071.194, 6.906728
1071.677, 7.339934
1072.159, 7.358702
1072.641, 7.444001
1073.123, 7.667660
1073.605, 7.892900
1074.087, 7.973791
1074.569, 8.339286
1075.051, 9.557253
1075.533, 10.74834
1076.016, 11.08838
1076.498, 11.14499
1076.980, 11.79163
1077.462, 12.94363
1077.944, 13.76141
1078.426, 13.83984
1078.908, 14.02348
1079.390, 14.69190
1079.873, 15.61241
1080.355, 16.79761
1080.837, 18.02884
1081.319, 19.06598
1081.801, 19.91036
1082.283, 20.66931
1082.765, 21.44200
1083.247, 21.99438
1083.729, 21.98755
1084.212, 21.93021
1084.694, 21.88363
1085.176, 22.12437
1085.658, 23.35543
1086.140, 24.99755
1086.622, 25.49920
1087.104, 24.43471
1087.586, 23.77552
1088.068, 24.86254
1088.551, 25.90686
1089.033, 26.06081
1089.515, 25.77842
1089.997, 25.39602
1090.479, 24.92398
1090.961, 24.28651
1091.443, 23.45781
1091.925, 22.56811
1092.408, 21.67500
1092.890, 20.74857
1093.372, 19.62173
1093.854, 18.57856
1094.336, 18.03634
1094.818, 17.60997
1095.300, 16.57833
1095.782, 14.97848
1096.265, 13.77903
1096.747, 13.38794
1097.229, 13.17144
1097.711, 13.16101
1098.193, 13.05005
1098.675, 12.51068
1099.157, 11.75449
1099.639, 10.92933
1100.121, 10.12165
1100.604, 9.606415
1101.086, 9.537489
1101.568, 9.325159
1102.050, 8.641758
1102.532, 8.037725
1103.014, 7.880531
1103.496, 7.789438
1103.978, 7.386118
1104.460, 6.776030
1104.943, 6.313137
1105.425, 6.094570
1105.907, 5.737940
1106.389, 4.972248
1106.871, 4.335323
1107.353, 4.140337
1107.835, 3.965752
1108.317, 3.316809
1108.800, 2.578590
1109.282, 2.588808
1109.764, 3.446320
1110.246, 3.748379
1110.728, 2.883120
1111.210, 2.182245
1111.692, 1.677383
1112.174, 1.541721
1112.656, 2.180527
1113.139, 3.017561
1113.621, 3.354324
1114.103, 3.216862
1114.585, 2.991261
1115.067, 2.478781
1115.549, 2.250481
1116.031, 2.657661
1116.513, 2.839386
1116.995, 2.173847
1117.478, 1.564014
1117.960, 2.094971
1118.442, 1.517202
1118.924, 1.217321
1119.406, 1.486906
1119.888, 0.6231270
1120.370, 1.049334
1120.852, 1.416431
1121.335, 1.383533
1121.817, 1.332436
1122.299, 1.524414
1122.781, 1.844809
1123.263, 2.149134
1123.745, 2.446228
1124.227, 2.081564
1124.709, 0.6755730
1125.192, 0.1303880
1125.674, 1.014839
1126.156, 1.583265
1126.638, 0.8741530
1127.120, 0.1538830
1127.602, 0.3751470
1128.084, 7.1889997E-02
1128.566, 0.5932770
1129.048, 1.248932
1129.531, 1.308159
1130.013, 0.5994830
1130.495, 0.4283220
1130.977, 1.298191
1131.459, 2.170958
1131.941, 2.188395
1132.423, 1.675938
1132.905, 1.291710
1133.387, 1.031965
1133.870, 0.8217200
1134.352, 0.6614270
1134.834, 0.5427820
1135.316, 0.4675790
1135.798, 0.7125780
1136.280, 1.462109
1136.762, 2.052439
1137.244, 1.453621
1137.727, 0.1922660
1138.209, 2.1839000E-02
1138.691, 0.5354540
1139.173, 0.5788820
1139.655, 0.1145460
1140.137, 0.1310200
1140.619, 0.9253270
1141.101, 1.672249
1141.583, 1.675486
1142.066, 1.323025
1142.548, 1.134974
1143.030, 1.061964
1143.512, 1.100952
1143.994, 1.147163
1144.476, 0.8363510
1144.958, 0.2097530
1145.440, 0.1859250
1145.922, 6.2332001E-02
1146.405, 0.1408420
1146.887, 9.8130004E-03
1147.369, 0.2754900
1147.851, 0.4719910
1148.333, 0.5548110
1148.815, 0.3677230
1149.297, 3.2078002E-02
1149.779, 7.0288002E-02
1150.262, 0.1261900
1150.744, 9.1434002E-02
1151.226, 0.8149620
1151.708, 1.479101
1152.190, 0.8165680
1152.672, 2.2950999E-02
1153.154, 2.4467001E-02
1153.636, 0.4094200
1154.119, 0.5687200
1154.601, 0.4703980
1155.083, 0.7046780
1155.565, 1.641619
1156.047, 2.182198
1156.529, 1.762424
1157.011, 1.138248
1157.493, 0.3262270
1157.975, 0.2620750
1158.458, 0.1773410
1158.940, 0.3438820
1159.422, 0.8658710
1159.904, 1.370274
1160.386, 1.560869
1160.868, 1.041576
1161.350, 0.7772640
1161.832, 0.9020580
1162.314, 1.266924
1162.797, 2.175938
1163.279, 2.935122
1163.761, 2.677284
1164.243, 1.641245
1164.725, 0.9341830
1165.207, 0.5427760
1165.689, 0.5815220
1166.171, 1.294106
1166.654, 1.691149
1167.136, 1.472324
1167.618, 1.072231
1168.100, 0.7365090
1168.582, 0.4760090
1169.064, 0.2856390
1169.546, 0.1884770
1170.028, 0.5305630
1170.510, 1.333752
1170.993, 1.556358
1171.475, 1.078997
1171.957, 0.6266540
1172.439, 0.4691640
1172.921, 0.4129580
1173.403, 0.2688730
1173.885, 0.1604800
1174.367, 0.3973330
1174.849, 0.8640310
1175.332, 1.210279
1175.814, 1.417767
1176.296, 1.464117
1176.778, 1.359417
1177.260, 1.115160
1177.742, 0.7404160
1178.224, 0.5008130
1178.706, 0.7852760
1179.189, 1.186636
1179.671, 1.148657
1180.153, 0.9120850
1180.635, 0.8886660
1181.117, 0.9351080
1181.599, 0.5812090
1182.081, 0.1188910
1182.563, 0.2700350
1183.046, 0.7874410
1183.528, 1.648344
1184.010, 1.179657
1184.492, 0.5741160
1184.974, 0.7253510
1185.456, 1.068802
1185.938, 0.9461100
1186.420, 0.5353780
1186.902, 0.4850670
1187.385, 0.9242360
1187.867, 1.155722
1188.349, 0.6732030
1188.831, 0.5344510
1189.313, 1.436380
1189.795, 2.121767
1190.277, 1.721704
1190.759, 1.031374
1191.241, 0.8034590
1191.724, 0.9613780
1192.206, 1.250214
1192.688, 1.810764
1193.170, 1.895235
1193.652, 1.219988
1194.134, 0.7614960
1194.616, 0.7443870
1195.098, 0.9667590
1195.581, 1.372276
1196.063, 1.785965
1196.545, 2.012663
1197.027, 2.009935
1197.509, 1.346121
1197.991, 1.772085
1198.473, 0.3054600
1198.955, 1.857456
1199.438, 2.699635
1199.920, 2.290573
1200.402, 1.543913
1200.884, 1.041328
1201.366, 0.7660120
1201.848, 0.7539830
1202.330, 0.9127850
1202.812, 1.216305
1203.294, 1.470400
1203.776, 1.163054
1204.259, 0.5007690
1204.741, 0.2110480
1205.223, 0.4413110
1205.705, 0.7811090
1206.187, 1.098740
1206.669, 1.223124
1207.151, 0.6735730
1207.633, 0.2462080
1208.116, 0.9608550
1208.598, 1.848555
1209.080, 1.466814
1209.562, 0.3160190
1210.044, 0.1098400
1210.526, 1.240696
1211.008, 1.903570
1211.490, 1.473726
1211.973, 0.9743040
1212.455, 0.3671230
1212.937, 9.7770002E-03
1213.419, 7.7881001E-02
1213.901, 0.4411320
1214.383, 1.105421
1214.865, 1.910000
1215.347, 2.310093
1215.829, 2.273912
1216.312, 1.913141
1216.794, 1.112297
1217.276, 0.7545990
1217.758, 1.064823
1218.240, 1.359867
1218.722, 1.301895
1219.204, 1.117111
1219.686, 1.034445
1220.168, 1.069065
1220.651, 1.347063
1221.133, 1.768978
1221.615, 1.904829
1222.097, 1.797234
1222.579, 1.675652
1223.061, 1.595802
1223.543, 1.549383
1224.025, 1.532396
1224.508, 1.551468
1224.990, 1.673077
1225.472, 1.755707
1225.954, 1.621126
1226.436, 1.397717
1226.918, 1.217636
1227.400, 1.067362
1227.882, 0.8010860
1228.365, 0.5044000
1228.847, 0.6839310
1229.329, 1.701038
1229.811, 2.202141
1230.293, 1.301119
1230.775, 0.5495700
1231.257, 0.6166000
1231.739, 0.8031390
1232.221, 0.5722290
1232.703, 0.2689950
1233.186, 0.4137440
1233.668, 0.9040830
1234.150, 1.020714
1234.632, 0.6570260
1235.114, 0.3943730
1235.596, 0.1922040
1236.078, 0.1918530
1236.560, 0.4708790
1237.043, 0.5747490
1237.525, 0.1940000
1238.007, 0.1871170
1238.489, 0.1207810
1238.971, 0.8079260
1239.453, 1.056171
1239.935, 0.9515250
1240.417, 0.6568280
1240.900, 0.2866590
1241.382, 0.2020950
1241.864, 0.4193570
1242.346, 0.5901430
1242.828, 0.5484770
1243.310, 0.5123230
1243.792, 0.7535720
1244.274, 0.9572410
1244.756, 0.8106710
1245.239, 0.5630720
1245.721, 0.3452030
1246.203, 0.2660480
1246.685, 0.5825790
1247.167, 1.171583
1247.649, 1.335281
1248.131, 0.7452110
1248.613, 0.4050410
1249.095, 0.7769600
1249.578, 0.8389420
1250.060, 0.1150360
1250.542, 0.4204620
1251.024, 0.2064270
1251.506, 0.3017220
1251.988, 0.5564960
1252.470, 0.6516040
1252.952, 1.025042
1253.435, 1.695530
1253.917, 1.844507
1254.399, 1.480423
1254.881, 1.130304
1255.363, 0.9097120
1255.845, 1.021339
1256.327, 1.544615
1256.809, 1.889997
1257.292, 1.384069
1257.774, 0.6755100
1258.256, 0.7050190
1258.738, 1.053686
1259.220, 1.137419
1259.702, 1.085085
1260.184, 1.310551
1260.666, 1.668512
1261.148, 1.486231
1261.630, 0.5887580
1262.113, 9.6359998E-03
1262.595, 0.6503700
1263.077, 1.074886
1263.559, 0.4747660
1264.041, 5.9147000E-02
1264.523, 0.8032150
1265.005, 1.626135
1265.487, 1.499413
1265.970, 0.8156780
1266.452, 0.4840790
1266.934, 0.5148070
1267.416, 0.4386690
1267.898, 0.2285120
1268.380, 4.5940001E-02
1268.862, 7.9786003E-02
1269.344, 0.1823840
1269.827, 0.2339590
1270.309, 0.4832530
1270.791, 1.151142
1271.273, 1.753569
1271.755, 1.484716
1272.237, 0.7713700
1272.719, 0.1839330
1273.201, 0.1420670
1273.683, 0.2387490
1274.166, 0.9888130
1274.648, 1.475853
1275.130, 1.520138
1275.612, 1.419744
1276.094, 1.201714
1276.576, 0.9878960
1277.058, 0.7883850
1277.540, 0.6281050
1278.022, 0.5512220
1278.505, 0.5660150
1278.987, 0.7886410
1279.469, 0.9958590
1279.951, 0.8032380
1280.433, 0.5295010
1280.915, 0.2850700
1281.397, 5.7691999E-02
1281.879, 6.8259998E-03
1282.362, 0.1090970
1282.844, 0.1264820
1283.326, 2.2038000E-02
1283.808, 0.1374590
1284.290, 0.6092640
1284.772, 0.9590170
1285.254, 0.7515010
1285.736, 0.0000000E+00
##END=



