##NAMES=Geminite
##RRUFFID=R070434
##IDEAL CHEMISTRY=Cu^2+^(As^5+^O_3_OH)&#183;H_2_O
##LOCALITY=Jáchymov (St Joachimsthal), Ostrov, Krusné Hory Mountains (Erzgebirge), Karlovy Vary Region, Bohemia (Böhmen; Boehmen), Czech Republic
##OWNER=RRUFF
##SOURCE=Michael Scott
##DESCRIPTION=Stellate aggregates of pale green bladed crystals
##STATUS=The identification of this mineral has been confirmed by single-crystal X-ray diffraction.
##URL=rruff.info/R070434
160.0806, 0.0000000E+00
160.5627, 15.87708
161.0449, 27.45105
161.5270, 28.72754
162.0091, 28.46570
162.4912, 34.95728
162.9733, 44.11194
163.4554, 48.14624
163.9376, 37.15430
164.4197, 21.13489
164.9018, 21.33154
165.3839, 44.30481
165.8660, 64.68860
166.3481, 61.20654
166.8303, 44.91895
167.3124, 34.48035
167.7945, 42.33899
168.2766, 59.15039
168.7587, 62.29419
169.2408, 44.04480
169.7230, 29.87683
170.2051, 37.87292
170.6872, 57.78687
171.1693, 73.89343
171.6514, 77.91907
172.1335, 74.14832
172.6157, 73.44458
173.0978, 78.03137
173.5799, 81.75586
174.0620, 81.40405
174.5441, 78.21899
175.0262, 73.83704
175.5084, 68.43542
175.9905, 62.69543
176.4726, 58.37939
176.9547, 55.25195
177.4368, 54.22852
177.9189, 57.04651
178.4010, 60.56055
178.8832, 65.46851
179.3653, 72.78113
179.8474, 80.39075
180.3295, 80.27380
180.8116, 66.28503
181.2937, 56.05945
181.7759, 58.49182
182.2580, 65.89526
182.7401, 71.12073
183.2222, 72.79028
183.7043, 64.69214
184.1864, 49.97852
184.6686, 21.28845
185.1507, 3.614136
185.6328, 10.34741
186.1149, 32.99902
186.5970, 49.37219
187.0791, 48.51538
187.5613, 37.31616
188.0434, 31.43982
188.5255, 36.78552
189.0076, 40.89392
189.4897, 42.70544
189.9718, 43.27405
190.4540, 38.48218
190.9361, 28.04651
191.4182, 15.36121
191.9003, 8.180420
192.3824, 8.178833
192.8645, 9.749268
193.3467, 15.00269
193.8288, 19.95142
194.3109, 19.10205
194.7930, 10.13232
195.2751, 1.174316
195.7572, 1.647339
196.2394, 15.53467
196.7215, 31.25708
197.2036, 48.87073
197.6857, 61.97534
198.1678, 60.03052
198.6499, 41.10535
199.1321, 15.07837
199.6142, 1.459229
200.0963, 7.932373
200.5784, 12.30981
201.0605, 11.95325
201.5426, 9.651245
202.0248, 6.444336
202.5069, 2.935425
202.9890, 0.8627930
203.4711, 4.463135
203.9532, 20.57568
204.4353, 26.45239
204.9175, 12.48254
205.3996, 4.475586
205.8817, 13.48572
206.3638, 12.22888
206.8459, 5.120239
207.3280, 2.673584
207.8102, 12.48291
208.2923, 19.24341
208.7744, 22.25293
209.2565, 23.20056
209.7386, 23.67358
210.2207, 23.46082
210.7029, 20.39612
211.1850, 10.32605
211.6671, 10.99048
212.1492, 23.24158
212.6313, 20.54614
213.1134, 14.48279
213.5956, 9.488037
214.0777, 6.241089
214.5598, 3.701782
215.0419, 0.7454830
215.5240, 2.895874
216.0061, 4.989502
216.4883, 3.550537
216.9704, 2.453979
217.4525, 4.256592
217.9346, 7.952759
218.4167, 10.17273
218.8988, 7.353760
219.3810, 0.7813720
219.8631, 4.344238
220.3452, 1.052368
220.8273, 7.010986
221.3094, 12.95850
221.7915, 17.72156
222.2737, 19.22314
222.7558, 15.39392
223.2379, 6.976929
223.7200, 2.317627
224.2021, 4.579590
224.6842, 7.497559
225.1664, 10.37476
225.6485, 12.96899
226.1306, 14.90540
226.6127, 15.82397
227.0948, 16.23096
227.5770, 18.44946
228.0591, 25.67102
228.5412, 30.29773
229.0233, 29.83533
229.5054, 26.71741
229.9875, 23.34705
230.4697, 20.75073
230.9518, 19.16687
231.4339, 19.48352
231.9160, 23.92041
232.3981, 26.36023
232.8802, 26.21240
233.3624, 24.37402
233.8445, 19.49207
234.3266, 11.98022
234.8087, 4.506836
235.2908, 2.292847
235.7729, 8.676270
236.2551, 12.81396
236.7372, 10.56726
237.2193, 7.876343
237.7014, 10.24902
238.1835, 18.15967
238.6656, 26.43884
239.1478, 27.05432
239.6299, 15.94812
240.1120, 12.41272
240.5941, 26.03809
241.0762, 40.03503
241.5583, 46.02600
242.0405, 44.47021
242.5226, 40.92871
243.0047, 45.17346
243.4868, 58.86829
243.9689, 63.80090
244.4510, 50.95361
244.9332, 37.33630
245.4153, 27.23596
245.8974, 21.46838
246.3795, 20.69971
246.8616, 27.88464
247.3437, 41.89368
247.8259, 53.40637
248.3080, 63.26123
248.7901, 67.32446
249.2722, 60.60620
249.7543, 48.28455
250.2364, 38.91736
250.7186, 37.54211
251.2007, 41.23083
251.6828, 40.63672
252.1649, 31.32227
252.6470, 26.99695
253.1291, 34.03613
253.6113, 46.75745
254.0934, 59.75659
254.5755, 71.03870
255.0576, 80.79358
255.5397, 90.72778
256.0219, 102.8042
256.5040, 107.3384
256.9861, 91.64990
257.4682, 72.88696
257.9503, 64.47583
258.4324, 69.38550
258.9146, 78.23303
259.3967, 80.86438
259.8788, 76.92505
260.3609, 75.30127
260.8430, 81.49438
261.3251, 87.08057
261.8073, 85.00964
262.2894, 75.43311
262.7715, 65.07825
263.2536, 56.31152
263.7357, 49.55652
264.2178, 49.47021
264.7000, 60.02161
265.1821, 72.94019
265.6642, 83.21448
266.1463, 90.74451
266.6284, 94.85132
267.1105, 92.32605
267.5927, 86.68542
268.0748, 86.43896
268.5569, 93.71436
269.0390, 100.0587
269.5211, 98.99023
270.0032, 92.19397
270.4854, 81.94324
270.9675, 63.68384
271.4496, 46.43262
271.9317, 41.35986
272.4138, 48.70276
272.8959, 59.19360
273.3781, 70.54724
273.8602, 80.91602
274.3423, 87.46338
274.8244, 89.74316
275.3065, 88.82751
275.7886, 83.31982
276.2708, 74.52100
276.7529, 68.29846
277.2350, 67.40771
277.7171, 68.53210
278.1992, 66.90234
278.6813, 62.47119
279.1635, 55.81934
279.6456, 44.45947
280.1277, 31.63611
280.6098, 22.28760
281.0919, 17.18188
281.5740, 17.20483
282.0562, 26.77551
282.5383, 47.17993
283.0204, 59.70679
283.5025, 55.83362
283.9846, 47.20703
284.4667, 46.06348
284.9489, 52.68652
285.4310, 56.13733
285.9131, 45.63416
286.3952, 21.68188
286.8773, 8.904663
287.3594, 14.46301
287.8416, 23.09961
288.3237, 30.51416
288.8058, 35.31580
289.2879, 33.71033
289.7700, 22.45618
290.2521, 5.114990
290.7343, 2.897217
291.2164, 8.238892
291.6985, 15.87439
292.1806, 14.14575
292.6627, 7.789185
293.1448, 2.142700
293.6270, 0.5603030
294.1091, 5.4931998E-02
294.5912, 4.867554
295.0733, 20.82275
295.5554, 28.26062
296.0375, 19.19043
296.5197, 7.950928
297.0018, 7.131104
297.4839, 16.50305
297.9660, 24.37305
298.4481, 16.76062
298.9302, 10.83069
299.4124, 22.48376
299.8945, 2.132446
300.3766, 17.59253
300.8587, 26.70068
301.3408, 26.37183
301.8229, 20.28235
302.3050, 9.534302
302.7871, 3.589355
303.2693, 6.124512
303.7514, 16.44470
304.2335, 27.77747
304.7156, 10.32996
305.1977, 16.52295
305.6798, 31.53088
306.1620, 26.66248
306.6441, 11.21680
307.1262, 0.3074950
307.6083, 7.061646
308.0904, 12.88550
308.5725, 18.45850
309.0547, 23.21313
309.5368, 26.83972
310.0189, 29.27344
310.5010, 30.31384
310.9831, 29.98828
311.4652, 28.24158
311.9474, 23.46704
312.4295, 10.67065
312.9116, 2.249268
313.3937, 8.805908
313.8758, 25.46191
314.3579, 39.48218
314.8401, 43.99048
315.3222, 42.87158
315.8043, 42.52783
316.2864, 43.01953
316.7685, 43.93835
317.2506, 45.04297
317.7328, 46.47571
318.2149, 48.74329
318.6970, 53.02966
319.1791, 56.14795
319.6612, 54.32983
320.1433, 48.82935
320.6255, 45.53540
321.1076, 47.13501
321.5897, 50.72168
322.0718, 51.43799
322.5539, 48.86719
323.0360, 46.82068
323.5182, 46.75366
324.0003, 47.64160
324.4824, 48.76135
324.9645, 49.97705
325.4466, 49.56458
325.9287, 45.06897
326.4109, 35.93433
326.8930, 30.84656
327.3751, 31.33765
327.8572, 34.25952
328.3393, 39.06262
328.8214, 44.96973
329.3036, 50.18738
329.7857, 53.64087
330.2678, 55.69446
330.7499, 57.89355
331.2320, 57.27319
331.7141, 60.52734
332.1963, 73.97302
332.6784, 89.09058
333.1605, 95.70459
333.6426, 91.06006
334.1247, 81.53210
334.6068, 76.27942
335.0890, 76.04248
335.5711, 78.44629
336.0532, 90.66956
336.5353, 98.95142
337.0174, 93.47583
337.4995, 76.99683
337.9817, 59.49768
338.4638, 48.24512
338.9459, 42.99353
339.4280, 42.01343
339.9101, 49.14648
340.3922, 54.93860
340.8744, 54.81750
341.3565, 52.57227
341.8386, 54.13916
342.3207, 62.67273
342.8028, 71.33533
343.2849, 66.97607
343.7671, 46.68677
344.2492, 34.48840
344.7313, 44.16833
345.2134, 57.65601
345.6955, 59.50818
346.1776, 49.23535
346.6598, 38.85376
347.1419, 34.94421
347.6240, 36.70312
348.1061, 43.52954
348.5882, 57.30469
349.0703, 69.59448
349.5525, 69.16772
350.0346, 60.56555
350.5167, 57.39551
350.9988, 68.40894
351.4809, 80.42639
351.9630, 82.46204
352.4452, 76.00964
352.9273, 67.18188
353.4094, 57.21497
353.8915, 48.60693
354.3736, 49.92236
354.8557, 69.20056
355.3379, 79.64441
355.8200, 65.18237
356.3021, 43.31494
356.7842, 36.67334
357.2663, 49.51941
357.7484, 67.41589
358.2306, 71.02185
358.7127, 56.89075
359.1948, 45.09778
359.6769, 33.82288
360.1590, 26.26917
360.6411, 25.69482
361.1233, 29.76233
361.6054, 33.76746
362.0875, 34.10522
362.5696, 31.75830
363.0517, 29.14807
363.5338, 25.34045
364.0160, 24.56335
364.4981, 31.90979
364.9802, 39.87061
365.4623, 40.79199
365.9444, 33.54114
366.4265, 24.21130
366.9087, 17.78845
367.3908, 13.91553
367.8729, 19.42639
368.3550, 46.48633
368.8371, 68.56726
369.3192, 68.92725
369.8014, 54.42517
370.2835, 41.84705
370.7656, 40.17517
371.2477, 43.96606
371.7298, 44.00818
372.2119, 39.89136
372.6941, 35.85974
373.1762, 32.58606
373.6583, 31.25549
374.1404, 35.05908
374.6225, 47.17493
375.1046, 53.31787
375.5868, 38.19202
376.0689, 13.15125
376.5510, 2.178345
377.0331, 10.93372
377.5152, 27.00854
377.9973, 38.93164
378.4795, 46.17419
378.9616, 51.54163
379.4437, 55.73743
379.9258, 57.43042
380.4079, 52.11377
380.8900, 43.26404
381.3722, 42.41797
381.8543, 57.27893
382.3364, 79.23706
382.8185, 81.94055
383.3006, 40.23621
383.7827, 11.64221
384.2649, 2.719727
384.7470, 3.724243
385.2291, 8.147705
385.7112, 14.09753
386.1933, 22.17407
386.6754, 35.64160
387.1576, 55.17737
387.6397, 65.96130
388.1218, 60.61938
388.6039, 54.63159
389.0860, 53.52808
389.5681, 55.00854
390.0503, 55.24536
390.5324, 52.52844
391.0145, 48.08557
391.4966, 43.76575
391.9787, 39.62939
392.4608, 34.78113
392.9430, 26.84412
393.4251, 20.21021
393.9072, 19.51135
394.3893, 24.72156
394.8714, 30.52051
395.3535, 33.97485
395.8357, 36.46216
396.3178, 41.05676
396.7999, 48.20544
397.2820, 53.94238
397.7641, 55.57446
398.2462, 53.28870
398.7284, 49.49512
399.2105, 43.72876
399.6926, 37.07751
400.1747, 27.89954
400.6568, 18.59668
401.1389, 13.98914
401.6211, 15.66785
402.1032, 19.40759
402.5853, 18.52454
403.0674, 9.698853
403.5495, 6.638550
404.0316, 12.38574
404.5138, 20.18213
404.9959, 28.57666
405.4780, 36.13428
405.9601, 40.43640
406.4422, 39.76331
406.9243, 35.16736
407.4065, 30.05261
407.8886, 23.33093
408.3707, 18.41113
408.8528, 17.33606
409.3349, 17.22327
409.8170, 15.37976
410.2992, 11.54431
410.7813, 8.375854
411.2634, 6.493530
411.7455, 6.735107
412.2276, 15.82776
412.7097, 39.28687
413.1919, 59.28979
413.6740, 58.77722
414.1561, 46.30017
414.6382, 38.32361
415.1203, 39.78125
415.6024, 43.22021
416.0846, 43.03394
416.5667, 40.20386
417.0488, 37.74927
417.5309, 36.71838
418.0130, 36.34985
418.4951, 35.16895
418.9773, 32.04492
419.4594, 32.35413
419.9415, 44.58740
420.4236, 53.46350
420.9057, 43.68176
421.3878, 20.46277
421.8700, 2.080078
422.3521, 0.6033940
422.8342, 12.41174
423.3163, 21.97571
423.7984, 29.14624
424.2805, 34.07129
424.7627, 34.12085
425.2448, 33.93225
425.7269, 39.65210
426.2090, 50.89075
426.6911, 58.80371
427.1732, 50.53003
427.6554, 28.24292
428.1375, 20.62622
428.6196, 36.01086
429.1017, 50.10205
429.5838, 47.64673
430.0659, 36.70361
430.5481, 28.85889
431.0302, 27.37341
431.5123, 28.32507
431.9944, 30.98096
432.4765, 33.81201
432.9586, 28.99133
433.4408, 11.91174
433.9229, 4.174683
434.4050, 0.5401610
434.8871, 25.66943
435.3692, 40.46191
435.8513, 32.58582
436.3335, 21.29272
436.8156, 17.08875
437.2977, 19.21558
437.7798, 24.41125
438.2619, 31.28882
438.7440, 38.37915
439.2262, 41.45044
439.7083, 34.82275
440.1904, 34.50305
440.6725, 54.16833
441.1546, 68.58728
441.6367, 54.24792
442.1189, 17.25818
442.6010, 14.38196
443.0831, 17.62433
443.5652, 0.2340090
444.0473, 11.39771
444.5294, 14.63879
445.0116, 14.57849
445.4937, 7.665405
445.9758, 1.065796
446.4579, 4.567383
446.9400, 21.17749
447.4221, 33.30164
447.9043, 23.96387
448.3864, 3.815796
448.8685, 1.015442
449.3506, 14.91315
449.8327, 32.57886
450.3148, 37.55042
450.7970, 30.64606
451.2791, 24.42572
451.7612, 15.65314
452.2433, 9.325806
452.7254, 10.56384
453.2076, 15.83545
453.6897, 20.09869
454.1718, 21.71136
454.6539, 20.77667
455.1360, 16.70337
455.6181, 8.195618
456.1003, 3.937378
456.5824, 7.734924
457.0645, 12.12714
457.5466, 16.55579
458.0287, 19.73016
458.5108, 18.87842
458.9930, 12.10297
459.4751, 4.725586
459.9572, 6.328064
460.4393, 17.14136
460.9214, 21.75085
461.4035, 12.23712
461.8857, 2.477783
462.3678, 6.929199
462.8499, 22.84937
463.3320, 36.03040
463.8141, 41.09625
464.2962, 43.06793
464.7784, 47.94739
465.2605, 54.02985
465.7426, 52.41187
466.2247, 37.59448
466.7068, 19.00391
467.1889, 16.09839
467.6711, 43.19598
468.1532, 55.56842
468.6353, 38.10223
469.1174, 19.31708
469.5995, 21.91461
470.0816, 39.42816
470.5638, 47.83899
471.0459, 29.91223
471.5280, 2.083008
472.0101, 9.255615
472.4922, 21.45032
472.9743, 41.46844
473.4565, 25.92169
473.9386, 7.257751
474.4207, 8.777466
474.9028, 30.23895
475.3849, 51.77032
475.8670, 59.03198
476.3492, 56.93207
476.8313, 56.84387
477.3134, 59.69019
477.7955, 61.01501
478.2776, 57.60907
478.7597, 51.77478
479.2419, 49.41968
479.7240, 52.42859
480.2061, 53.71088
480.6882, 49.23248
481.1703, 44.25922
481.6524, 45.29913
482.1346, 51.44421
482.6167, 55.05768
483.0988, 49.66663
483.5809, 37.71472
484.0630, 33.41248
484.5451, 42.63226
485.0273, 50.03040
485.5094, 54.57800
485.9915, 55.90039
486.4736, 50.80237
486.9557, 40.40051
487.4378, 22.72063
487.9200, 36.00502
488.4021, 43.28005
488.8842, 44.86853
489.3663, 23.73857
489.8484, 31.94475
490.3305, 28.39433
490.8127, 24.36173
491.2948, 36.69685
491.7769, 18.87127
492.2590, 30.94679
492.7411, 31.08636
493.2232, 36.68870
493.7054, 30.46177
494.1875, 27.88861
494.6696, 37.14844
495.1517, 39.85622
495.6338, 32.26767
496.1159, 38.21727
496.5981, 19.97836
497.0802, 19.84796
497.5623, 29.17700
498.0444, 41.10907
498.5265, 45.71320
499.0086, 41.95081
499.4908, 34.83270
499.9729, 25.65735
500.4550, 16.18994
500.9371, 16.78870
501.4192, 31.13452
501.9013, 42.35400
502.3835, 41.61310
502.8656, 34.45953
503.3477, 30.85632
503.8298, 32.88062
504.3119, 30.37384
504.7940, 10.12073
505.2762, 11.25922
505.7583, 9.785706
506.2404, 13.13147
506.7225, 34.78967
507.2046, 40.38342
507.6867, 32.28687
508.1689, 20.40552
508.6510, 8.463135
509.1331, 20.91510
509.6152, 3.839233
510.0973, 20.34790
510.5794, 37.17334
511.0616, 45.18445
511.5437, 49.18433
512.0258, 52.88348
512.5079, 54.88672
512.9901, 50.14490
513.4722, 37.47546
513.9543, 25.50696
514.4364, 16.07831
514.9185, 9.827881
515.4006, 8.107422
515.8828, 11.31610
516.3649, 13.66614
516.8470, 12.59808
517.3291, 10.50250
517.8112, 8.973145
518.2933, 8.355042
518.7755, 8.882202
519.2576, 10.53381
519.7397, 14.02368
520.2218, 21.90521
520.7039, 42.86578
521.1860, 51.22748
521.6682, 36.82520
522.1503, 20.90356
522.6324, 14.13373
523.1145, 15.33563
523.5966, 19.32788
524.0787, 24.05835
524.5609, 28.77118
525.0430, 33.18243
525.5251, 37.30963
526.0072, 36.40448
526.4893, 27.02081
526.9714, 16.01019
527.4536, 9.744385
527.9357, 7.912415
528.4178, 10.64594
528.8999, 26.21960
529.3820, 38.15240
529.8641, 33.83636
530.3463, 19.73462
530.8284, 7.395203
531.3105, 0.8197020
531.7926, 4.435242
532.2747, 16.19592
532.7568, 37.85541
533.2390, 44.78253
533.7211, 24.46936
534.2032, 3.202698
534.6853, 13.50513
535.1674, 25.42230
535.6495, 32.22296
536.1317, 33.56055
536.6138, 32.36407
537.0959, 29.90765
537.5780, 27.09247
538.0601, 27.99243
538.5422, 33.83600
539.0244, 37.71045
539.5065, 33.03796
539.9886, 22.26868
540.4707, 19.68707
540.9528, 34.11542
541.4349, 44.77209
541.9171, 46.50940
542.3992, 43.25562
542.8813, 36.14331
543.3634, 27.05115
543.8455, 21.47040
544.3276, 24.52405
544.8098, 33.86340
545.2919, 38.56360
545.7740, 35.86926
546.2561, 36.19708
546.7382, 49.58740
547.2203, 61.26819
547.7024, 56.49176
548.1845, 36.55920
548.6666, 20.74902
549.1487, 21.16730
549.6309, 27.36420
550.1130, 27.05988
550.5951, 22.00787
551.0772, 21.72876
551.5593, 30.73199
552.0414, 42.53717
552.5236, 46.57733
553.0057, 40.49622
553.4878, 34.42072
553.9699, 25.65985
554.4520, 19.71954
554.9341, 20.41760
555.4163, 24.88983
555.8984, 28.69733
556.3805, 30.21832
556.8626, 30.89893
557.3447, 31.42444
557.8268, 32.20209
558.3090, 37.89850
558.7911, 51.30884
559.2732, 61.96881
559.7553, 60.74890
560.2374, 51.66656
560.7195, 48.21826
561.2017, 53.71820
561.6838, 59.19757
562.1659, 61.01190
562.6480, 61.96338
563.1301, 66.02118
563.6122, 73.16534
564.0944, 76.94568
564.5765, 70.82635
565.0586, 56.93799
565.5407, 42.53235
566.0228, 24.15417
566.5049, 12.86029
566.9871, 17.34845
567.4692, 26.49896
567.9513, 32.86182
568.4334, 35.79999
568.9155, 37.22772
569.3976, 38.57782
569.8798, 38.26538
570.3619, 32.57861
570.8440, 23.32727
571.3261, 18.18750
571.8082, 19.66608
572.2903, 24.59778
572.7725, 29.26636
573.2546, 33.49072
573.7367, 39.22272
574.2188, 53.68439
574.7009, 61.02905
575.1830, 48.18616
575.6652, 30.92010
576.1473, 29.74646
576.6294, 47.91840
577.1115, 66.51624
577.5936, 65.99548
578.0757, 52.11938
578.5579, 44.80811
579.0400, 45.02277
579.5221, 45.97375
580.0042, 45.24426
580.4863, 42.92993
580.9684, 37.68762
581.4506, 26.93134
581.9327, 23.65552
582.4148, 38.24750
582.8969, 53.11560
583.3790, 56.12311
583.8611, 50.09821
584.3433, 42.38098
584.8254, 36.22412
585.3075, 31.66809
585.7896, 29.57520
586.2717, 30.35486
586.7538, 30.95776
587.2360, 30.01038
587.7181, 30.60028
588.2002, 38.09088
588.6823, 47.11292
589.1644, 48.30963
589.6465, 38.03894
590.1287, 26.04797
590.6108, 14.41418
591.0929, 5.274292
591.5750, 3.024109
592.0571, 7.000305
592.5392, 12.30945
593.0214, 15.35956
593.5035, 17.35052
593.9856, 23.10614
594.4677, 37.70026
594.9498, 42.98016
595.4319, 29.39368
595.9141, 13.52020
596.3962, 0.3969730
596.8783, 10.05969
597.3604, 9.701843
597.8425, 7.693909
598.3246, 26.16058
598.8068, 30.47571
599.2889, 24.72131
599.7710, 18.42932
600.2531, 13.37402
600.7352, 11.11206
601.2173, 13.22632
601.6995, 19.22406
602.1816, 25.44653
602.6637, 36.25861
603.1458, 41.06824
603.6279, 32.62195
604.1100, 23.13306
604.5922, 23.50250
605.0743, 31.92322
605.5564, 37.41925
606.0385, 31.75073
606.5206, 22.40118
607.0027, 21.37231
607.4849, 27.74670
607.9670, 33.55707
608.4491, 36.72650
608.9312, 39.59296
609.4133, 45.21649
609.8954, 53.49341
610.3776, 55.93719
610.8597, 47.34357
611.3418, 40.23767
611.8239, 38.46509
612.3060, 38.87469
612.7881, 37.76599
613.2703, 35.20306
613.7524, 34.71564
614.2345, 40.54071
614.7166, 49.03174
615.1987, 50.32513
615.6808, 44.04657
616.1630, 37.18671
616.6451, 30.02753
617.1272, 26.16443
617.6093, 32.96863
618.0914, 50.75507
618.5735, 57.19305
619.0557, 40.36505
619.5378, 24.85413
620.0199, 20.28644
620.5020, 22.31232
620.9841, 27.74915
621.4662, 34.42236
621.9484, 36.33118
622.4305, 25.28735
622.9126, 6.340820
623.3947, 0.8572390
623.8768, 11.17328
624.3589, 21.18811
624.8411, 26.67322
625.3232, 29.80182
625.8053, 34.12439
626.2874, 39.53577
626.7695, 37.75867
627.2516, 14.00934
627.7338, 2.435059
628.2159, 12.77991
628.6980, 40.83405
629.1801, 52.49988
629.6622, 42.14636
630.1443, 26.77008
630.6265, 22.91949
631.1086, 28.44025
631.5907, 30.92841
632.0728, 29.93976
632.5549, 28.14844
633.0370, 25.69495
633.5192, 23.28900
634.0013, 20.89606
634.4834, 18.64832
634.9655, 19.59320
635.4476, 28.77130
635.9297, 36.62238
636.4119, 37.47229
636.8940, 33.54700
637.3761, 26.97180
637.8582, 19.29010
638.3403, 13.78949
638.8224, 13.96368
639.3046, 19.50299
639.7867, 29.69269
640.2688, 49.02124
640.7509, 56.68640
641.2330, 37.18213
641.7151, 12.72479
642.1973, 8.753174
642.6794, 23.34473
643.1615, 32.32361
643.6436, 25.57764
644.1257, 17.41785
644.6078, 14.95483
645.0900, 16.46448
645.5721, 20.78540
646.0542, 26.82208
646.5363, 30.50537
647.0184, 26.94751
647.5005, 17.40387
647.9827, 10.10577
648.4648, 5.338684
648.9469, 7.931641
649.4290, 27.51031
649.9111, 46.28137
650.3932, 41.60449
650.8754, 16.51276
651.3575, 3.080017
651.8396, 19.77588
652.3217, 35.32172
652.8038, 30.09222
653.2859, 18.08167
653.7681, 18.15210
654.2502, 31.83875
654.7323, 46.87939
655.2144, 54.88257
655.6965, 56.65369
656.1786, 51.59564
656.6608, 38.28766
657.1429, 27.98987
657.6250, 22.88953
658.1071, 21.53760
658.5892, 24.14270
659.0714, 29.96844
659.5535, 35.50739
660.0356, 44.07947
660.5177, 47.66254
660.9998, 38.81360
661.4819, 26.69366
661.9641, 20.65948
662.4462, 21.36237
662.9283, 25.13849
663.4104, 30.46490
663.8925, 34.89893
664.3746, 32.23773
664.8568, 22.36670
665.3389, 13.27704
665.8210, 4.559570
666.3031, 0.1204830
666.7852, 4.578247
667.2673, 16.07318
667.7495, 22.72650
668.2316, 21.55914
668.7137, 20.44244
669.1958, 18.39319
669.6779, 18.97540
670.1600, 29.43365
670.6422, 44.98083
671.1243, 52.11096
671.6064, 42.89087
672.0885, 27.24585
672.5706, 18.60541
673.0527, 16.48401
673.5349, 17.88220
674.0170, 22.85382
674.4991, 29.76794
674.9812, 39.01495
675.4633, 48.52081
675.9454, 52.61853
676.4276, 49.04858
676.9097, 44.93317
677.3918, 40.14227
677.8739, 35.11511
678.3560, 29.86096
678.8381, 24.69714
679.3203, 19.28955
679.8024, 13.55206
680.2845, 10.62921
680.7666, 17.54218
681.2487, 28.43280
681.7308, 25.58362
682.2130, 9.379150
682.6951, 1.662781
683.1772, 13.35419
683.6593, 33.09784
684.1414, 43.48236
684.6235, 42.89813
685.1057, 41.20258
685.5878, 37.79065
686.0699, 34.03552
686.5520, 26.92767
687.0341, 21.32697
687.5162, 25.48096
687.9984, 38.91815
688.4805, 46.79468
688.9626, 33.21399
689.4447, 15.42365
689.9268, 15.28882
690.4089, 27.30933
690.8911, 35.25012
691.3732, 34.66400
691.8553, 29.89520
692.3374, 24.62659
692.8195, 19.26935
693.3016, 18.31720
693.7838, 26.35370
694.2659, 28.36108
694.7480, 12.86902
695.2301, 1.623596
695.7122, 0.5788570
696.1943, 12.48724
696.6765, 23.58752
697.1586, 29.05371
697.6407, 32.24762
698.1228, 35.00732
698.6049, 36.35541
699.0870, 34.36481
699.5692, 29.42413
700.0513, 23.86383
700.5334, 18.96484
701.0155, 15.56720
701.4976, 16.96509
701.9797, 23.62158
702.4619, 24.69550
702.9440, 17.89478
703.4261, 8.576416
703.9082, 4.131775
704.3903, 15.56885
704.8724, 13.00177
705.3546, 11.34094
705.8367, 26.35712
706.3188, 22.35492
706.8009, 13.35620
707.2830, 0.2891240
707.7651, 10.46973
708.2473, 1.347778
708.7294, 38.74078
709.2115, 70.24646
709.6936, 58.27051
710.1757, 19.90167
710.6578, 1.996826
711.1400, 7.514771
711.6221, 7.752991
712.1042, 6.182373
712.5863, 2.143127
713.0684, 6.372498
713.5505, 19.93207
714.0327, 25.73615
714.5148, 15.68005
714.9969, 8.792542
715.4790, 10.23828
715.9611, 14.36646
716.4432, 15.75372
716.9254, 15.37885
717.4075, 19.67743
717.8896, 36.80591
718.3717, 50.96191
718.8538, 43.86041
719.3359, 27.11041
719.8181, 23.39734
720.3002, 33.85400
720.7823, 41.22015
721.2644, 33.27893
721.7465, 16.83588
722.2286, 7.636108
722.7108, 6.004028
723.1929, 10.74628
723.6750, 26.21429
724.1571, 39.10455
724.6392, 40.01965
725.1213, 34.42358
725.6035, 32.38763
726.0856, 35.74225
726.5677, 38.35284
727.0498, 40.04388
727.5319, 38.55475
728.0140, 25.71613
728.4962, 11.57562
728.9783, 14.23334
729.4604, 36.86560
729.9425, 60.42438
730.4246, 68.85425
730.9067, 66.41736
731.3889, 60.78424
731.8710, 52.93646
732.3531, 45.04236
732.8352, 37.11505
733.3173, 36.45807
733.7994, 52.98199
734.2816, 84.46710
734.7637, 102.1808
735.2458, 100.9327
735.7279, 94.79065
736.2100, 79.74188
736.6921, 66.02338
737.1743, 58.98328
737.6564, 57.80334
738.1385, 60.46124
738.6206, 69.39575
739.1027, 76.37781
739.5848, 75.85278
740.0670, 71.15692
740.5491, 62.73737
741.0312, 54.14221
741.5133, 56.12122
741.9954, 73.70557
742.4775, 93.33655
742.9597, 94.07758
743.4418, 77.39233
743.9239, 63.93408
744.4060, 54.24200
744.8881, 45.15253
745.3702, 33.28802
745.8524, 24.96161
746.3345, 30.92352
746.8166, 53.74780
747.2987, 66.36151
747.7808, 62.65485
748.2629, 57.88739
748.7451, 54.91437
749.2272, 52.71008
749.7093, 50.16010
750.1914, 47.33514
750.6735, 44.93463
751.1556, 42.73279
751.6378, 42.37634
752.1199, 49.05615
752.6020, 56.99933
753.0841, 51.92682
753.5662, 35.27295
754.0483, 24.44806
754.5305, 29.72900
755.0126, 42.81342
755.4947, 47.47858
755.9768, 42.64368
756.4589, 38.98926
756.9410, 36.27069
757.4232, 35.84125
757.9053, 38.30591
758.3874, 43.31891
758.8695, 52.69025
759.3516, 67.74799
759.8337, 74.00085
760.3159, 63.25385
760.7980, 51.68152
761.2801, 45.94702
761.7622, 41.55035
762.2443, 30.82928
762.7264, 16.47473
763.2086, 12.24951
763.6907, 30.17157
764.1728, 49.77533
764.6549, 42.33459
765.1370, 18.91516
765.6191, 7.948303
766.1013, 14.12250
766.5834, 25.65698
767.0655, 35.36224
767.5476, 43.59790
768.0297, 52.30157
768.5118, 62.47009
768.9940, 61.69318
769.4761, 44.06940
769.9582, 28.99719
770.4403, 27.70374
770.9224, 31.96234
771.4045, 28.83069
771.8867, 17.36877
772.3688, 8.332031
772.8509, 4.881836
773.3330, 1.846924
773.8151, 3.342407
774.2972, 8.801392
774.7794, 13.38574
775.2615, 16.21863
775.7436, 15.09039
776.2257, 6.916260
776.7078, 1.630737
777.1899, 1.903137
777.6721, 2.902405
778.1542, 5.237854
778.6363, 4.493164
779.1184, 3.914307
779.6005, 5.423340
780.0826, 8.517273
780.5648, 13.00372
781.0469, 19.46478
781.5290, 16.82617
782.0111, 1.053833
782.4932, 9.926514
782.9753, 7.425415
783.4575, 30.61884
783.9396, 30.08191
784.4217, 5.085449
784.9038, 8.146362
785.3859, 2.490356
785.8680, 11.42096
786.3502, 13.80939
786.8323, 10.19775
787.3144, 5.156189
787.7965, 25.70337
788.2786, 31.67651
788.7607, 9.813721
789.2429, 12.10529
789.7250, 5.442078
790.2071, 13.63000
790.6892, 19.21161
791.1713, 11.81171
791.6534, 4.446350
792.1356, 2.695618
792.6177, 0.7716670
793.0998, 11.74597
793.5819, 32.65222
794.0640, 38.38849
794.5461, 26.72198
795.0283, 13.37598
795.5104, 1.261963
795.9925, 7.789978
796.4746, 11.49274
796.9567, 10.26593
797.4388, 8.484863
797.9210, 4.009521
798.4031, 2.159668
798.8852, 32.67133
799.3673, 64.74121
799.8494, 69.41077
800.3315, 57.72253
800.8137, 53.15118
801.2958, 62.38916
801.7779, 68.89557
802.2600, 60.53857
802.7421, 49.21350
803.2242, 45.79919
803.7064, 47.51050
804.1885, 47.73474
804.6706, 45.10730
805.1527, 43.82727
805.6348, 47.09509
806.1169, 54.50439
806.5991, 68.08386
807.0812, 86.27881
807.5633, 96.77234
808.0454, 97.37537
808.5275, 91.23279
809.0096, 79.07361
809.4918, 64.40625
809.9739, 55.77393
810.4560, 52.70557
810.9381, 58.18115
811.4202, 80.26843
811.9023, 97.74194
812.3845, 97.36780
812.8666, 91.55334
813.3487, 97.07947
813.8308, 113.9371
814.3129, 120.4073
814.7950, 100.3984
815.2772, 85.97253
815.7593, 95.57666
816.2414, 109.6215
816.7235, 107.8311
817.2056, 93.98816
817.6877, 85.41394
818.1699, 90.02234
818.6520, 98.25867
819.1341, 103.0868
819.6162, 105.7612
820.0983, 108.1592
820.5804, 110.2195
821.0626, 111.1492
821.5447, 110.7947
822.0268, 109.0715
822.5089, 105.2893
822.9910, 100.4640
823.4731, 100.3208
823.9553, 105.5779
824.4374, 103.7643
824.9195, 90.03333
825.4016, 77.94885
825.8837, 77.69141
826.3658, 86.92798
826.8480, 98.13672
827.3301, 113.2362
827.8122, 125.9548
828.2943, 139.0244
828.7764, 146.1967
829.2585, 140.6432
829.7407, 130.8390
830.2228, 126.5206
830.7049, 128.2445
831.1870, 131.8315
831.6691, 134.6326
832.1512, 140.7974
832.6334, 159.6195
833.1155, 177.3876
833.5976, 178.1429
834.0797, 165.2893
834.5618, 150.9972
835.0439, 138.1801
835.5261, 136.4807
836.0082, 165.5579
836.4903, 206.4092
836.9724, 225.8972
837.4545, 227.5026
837.9366, 232.4403
838.4188, 247.4958
838.9009, 260.6218
839.3830, 258.2551
839.8651, 246.2734
840.3472, 242.0247
840.8293, 245.0710
841.3115, 254.8755
841.7936, 274.6644
842.2757, 294.3169
842.7578, 305.2550
843.2399, 309.2551
843.7220, 311.0541
844.2042, 308.6207
844.6863, 312.6852
845.1684, 329.1976
845.6505, 343.5472
846.1326, 350.1870
846.6147, 353.0728
847.0969, 354.8744
847.5790, 356.5222
848.0611, 358.5184
848.5432, 358.5808
849.0253, 361.7705
849.5074, 370.2570
849.9896, 381.6597
850.4717, 398.6007
850.9538, 415.6174
851.4359, 420.1398
851.9180, 408.4360
852.4001, 398.6809
852.8823, 407.8247
853.3644, 419.6649
853.8465, 412.3411
854.3286, 395.5479
854.8107, 390.3345
855.2928, 400.1641
855.7750, 414.8622
856.2571, 428.2048
856.7392, 439.1428
857.2213, 444.5848
857.7034, 445.8177
858.1855, 448.8164
858.6677, 454.0856
859.1498, 458.4050
859.6319, 459.9543
860.1140, 462.6442
860.5961, 474.2335
861.0782, 493.8099
861.5604, 495.7657
862.0425, 474.5930
862.5246, 456.3623
863.0067, 443.3311
863.4888, 441.5273
863.9709, 461.2209
864.4531, 494.4691
864.9352, 511.8605
865.4173, 503.8235
865.8994, 499.9617
866.3815, 505.1854
866.8636, 508.5154
867.3458, 505.2775
867.8279, 498.7101
868.3100, 488.8585
868.7921, 477.0996
869.2742, 477.4377
869.7563, 507.5112
870.2385, 532.0178
870.7206, 533.8037
871.2027, 527.2833
871.6848, 521.9086
872.1669, 519.7239
872.6490, 522.0593
873.1312, 529.4624
873.6133, 539.1301
874.0954, 546.6351
874.5775, 557.3726
875.0596, 585.5984
875.5417, 619.4364
876.0239, 630.5082
876.5060, 616.9094
876.9881, 602.9938
877.4702, 605.2937
877.9523, 615.5178
878.4344, 620.6033
878.9166, 622.2087
879.3987, 626.9095
879.8808, 634.8866
880.3629, 643.3263
880.8450, 651.2479
881.3271, 655.8169
881.8093, 652.2913
882.2914, 642.9125
882.7735, 644.3208
883.2556, 659.3231
883.7377, 662.8121
884.2198, 647.5668
884.7020, 630.3885
885.1841, 620.6511
885.6662, 617.9017
886.1483, 622.2438
886.6304, 636.6357
887.1125, 644.6326
887.5947, 643.8538
888.0768, 640.4421
888.5589, 635.2919
889.0410, 628.7228
889.5231, 619.3601
890.0052, 608.4961
890.4874, 602.0995
890.9695, 603.4178
891.4516, 604.0798
891.9337, 600.4359
892.4158, 598.6384
892.8979, 608.1550
893.3801, 618.8402
893.8622, 612.5267
894.3443, 587.4678
894.8264, 566.3256
895.3085, 556.1927
895.7906, 554.5411
896.2728, 570.0527
896.7549, 586.4855
897.2370, 582.8884
897.7191, 563.7357
898.2012, 544.1405
898.6833, 529.2764
899.1655, 520.8145
899.6476, 528.9462
900.1297, 536.9288
900.6118, 518.0819
901.0939, 485.4867
901.5760, 462.8430
902.0582, 454.4059
902.5403, 458.6353
903.0224, 476.0165
903.5045, 493.2196
903.9866, 488.5338
904.4688, 468.1019
904.9509, 448.4723
905.4330, 431.2477
905.9151, 422.5341
906.3972, 424.5320
906.8793, 429.0870
907.3615, 427.7616
907.8436, 422.2749
908.3257, 420.4396
908.8078, 422.4357
909.2899, 411.3695
909.7720, 383.3511
910.2542, 358.8909
910.7363, 348.4767
911.2184, 345.3641
911.7005, 340.2556
912.1826, 332.8690
912.6647, 321.6567
913.1469, 301.9636
913.6290, 295.3138
914.1111, 310.4067
914.5932, 330.7242
915.0753, 351.8849
915.5574, 366.9568
916.0396, 357.4686
916.5217, 312.7719
917.0038, 283.8566
917.4859, 279.9847
917.9680, 278.1927
918.4501, 274.3159
918.9323, 269.6902
919.4144, 266.5779
919.8965, 263.4048
920.3786, 253.6981
920.8607, 231.1490
921.3428, 215.3340
921.8250, 214.5259
922.3071, 215.3474
922.7892, 213.6094
923.2713, 209.3260
923.7534, 200.7938
924.2355, 189.6449
924.7177, 181.9150
925.1998, 184.3474
925.6819, 182.2449
926.1640, 164.3354
926.6461, 144.5430
927.1282, 131.8352
927.6104, 126.2700
928.0925, 127.3700
928.5746, 134.7915
929.0567, 144.1227
929.5388, 161.1247
930.0209, 170.4720
930.5031, 154.0347
930.9852, 128.0261
931.4673, 111.2630
931.9494, 103.5586
932.4315, 97.41931
932.9136, 90.26184
933.3958, 85.89795
933.8779, 90.73669
934.3600, 98.00781
934.8421, 100.8989
935.3242, 99.12030
935.8063, 88.35760
936.2885, 70.99445
936.7706, 60.08972
937.2527, 62.95465
937.7348, 68.92224
938.2169, 64.54181
938.6990, 54.14276
939.1812, 47.08490
939.6633, 43.10962
940.1454, 41.81067
940.6275, 42.40045
941.1096, 38.83087
941.5917, 26.59277
942.0739, 13.77246
942.5560, 19.22632
943.0381, 37.60809
943.5202, 36.72552
944.0023, 17.24744
944.4844, 9.561157
944.9666, 23.45337
945.4487, 39.02661
945.9308, 38.32202
946.4129, 26.41266
946.8950, 15.61462
947.3771, 5.523987
947.8593, 0.3165280
948.3414, 1.356934
948.8235, 1.791992
949.3056, 10.13940
949.7877, 14.36523
950.2698, 2.178223
950.7520, 21.10291
951.2341, 24.95923
951.7162, 5.473328
952.1983, 8.749695
952.6804, 15.66193
953.1625, 13.26544
953.6447, 4.090271
954.1268, 21.34912
954.6089, 15.25018
955.0910, 12.46478
955.5731, 21.92426
956.0552, 4.977966
956.5374, 3.893677
957.0195, 4.136536
957.5016, 9.170654
957.9837, 3.639648
958.4658, 20.76569
958.9479, 18.30237
959.4301, 5.886719
959.9122, 19.75629
960.3943, 20.04163
960.8764, 16.18463
961.3585, 7.223511
961.8406, 2.393616
962.3228, 9.841919
962.8049, 16.20032
963.2870, 25.25824
963.7691, 39.93774
964.2512, 41.58826
964.7333, 19.98248
965.2155, 0.2376710
965.6976, 16.98224
966.1797, 27.73553
966.6618, 26.80194
967.1439, 18.15692
967.6260, 10.45544
968.1082, 3.590942
968.5903, 1.018066
969.0724, 4.950867
969.5545, 3.678040
970.0366, 10.03937
970.5187, 22.10583
971.0009, 21.04553
971.4830, 10.53284
971.9651, 0.1167600
972.4472, 10.55432
972.9293, 16.43414
973.4114, 13.24353
973.8936, 10.11017
974.3757, 13.03192
974.8578, 14.92297
975.3399, 8.238708
975.8220, 4.654846
976.3041, 16.69830
976.7863, 29.13220
977.2684, 32.96783
977.7505, 15.45233
978.2326, 1.844055
978.7147, 9.776306
979.1968, 21.86761
979.6790, 16.40942
980.1611, 0.7976680
980.6432, 3.725830
981.1253, 19.67981
981.6074, 37.09442
982.0895, 34.30304
982.5717, 28.60773
983.0538, 28.78906
983.5359, 30.85400
984.0180, 30.74847
984.5001, 27.90704
984.9822, 21.51898
985.4644, 8.534363
985.9465, 0.5914920
986.4286, 5.924133
986.9107, 12.56226
987.3928, 15.29163
987.8749, 14.29785
988.3571, 7.144714
988.8392, 3.503784
989.3213, 7.593628
989.8034, 0.6558230
990.2855, 8.881897
990.7676, 22.98663
991.2498, 32.57538
991.7319, 29.26917
992.2140, 19.72162
992.6961, 9.703918
993.1782, 1.381836
993.6603, 1.719910
994.1425, 1.531128
994.6246, 10.25507
995.1067, 32.74402
995.5888, 51.26569
996.0709, 52.63684
996.5530, 43.53760
997.0352, 28.07458
997.5173, 10.56689
997.9994, 3.558350
998.4815, 14.62897
998.9636, 26.53046
999.4457, 34.50317
999.9279, 37.15637
1000.410, 28.37079
1000.892, 17.03571
1001.374, 14.91028
1001.856, 21.31885
1002.338, 27.61426
1002.821, 32.07721
1003.303, 32.59473
1003.785, 22.16724
1004.267, 13.92072
1004.749, 21.39294
1005.231, 33.50305
1005.713, 33.07843
1006.195, 22.82666
1006.677, 21.86072
1007.160, 40.13464
1007.642, 55.88867
1008.124, 60.70062
1008.606, 57.39252
1009.088, 42.93097
1009.570, 27.08014
1010.052, 17.87769
1010.534, 16.28241
1011.017, 22.40302
1011.499, 40.04749
1011.981, 50.48273
1012.463, 44.10773
1012.945, 33.70459
1013.427, 21.56958
1013.909, 12.56049
1014.391, 13.09686
1014.873, 21.50696
1015.356, 30.66260
1015.838, 39.46320
1016.320, 43.81592
1016.802, 39.02057
1017.284, 36.28204
1017.766, 42.95770
1018.248, 51.84918
1018.730, 55.64337
1019.213, 54.88910
1019.695, 53.34082
1020.177, 51.56091
1020.659, 49.11810
1021.141, 43.84259
1021.623, 39.85669
1022.105, 43.55438
1022.587, 48.64105
1023.069, 45.40155
1023.552, 36.79742
1024.034, 34.93054
1024.516, 43.72833
1024.998, 48.00256
1025.480, 43.02539
1025.962, 33.93127
1026.444, 14.70831
1026.926, 0.9733890
1027.409, 1.233887
1027.891, 15.08453
1028.373, 26.35022
1028.855, 33.46118
1029.337, 35.92596
1029.819, 26.67499
1030.301, 21.53943
1030.783, 31.70581
1031.266, 41.62579
1031.748, 37.17902
1032.230, 25.76801
1032.712, 23.32330
1033.194, 32.56281
1033.676, 37.14685
1034.158, 28.15137
1034.640, 23.25482
1035.122, 26.27271
1035.604, 33.13354
1036.087, 45.25916
1036.569, 58.07715
1037.051, 63.58215
1037.533, 61.54602
1038.015, 57.46448
1038.497, 49.86603
1038.979, 44.30237
1039.461, 42.20953
1039.944, 38.94550
1040.426, 27.77667
1040.908, 18.60712
1041.390, 27.86523
1041.872, 52.66681
1042.354, 59.07904
1042.836, 33.43195
1043.318, 18.70917
1043.800, 19.33746
1044.283, 26.24878
1044.765, 40.08160
1045.247, 52.62109
1045.729, 55.64325
1046.211, 50.22211
1046.693, 41.34076
1047.175, 27.17279
1047.657, 17.19116
1048.140, 10.66296
1048.622, 11.52551
1049.104, 22.82996
1049.586, 35.61194
1050.068, 30.05505
1050.550, 41.56653
1051.032, 47.43066
1051.514, 48.13342
1051.996, 29.23468
1052.479, 36.27856
1052.961, 33.42456
1053.443, 30.14557
1053.925, 43.75549
1054.407, 42.37683
1054.889, 39.58630
1055.371, 52.06787
1055.853, 77.11438
1056.335, 80.82196
1056.818, 63.04889
1057.300, 43.93726
1057.782, 26.82880
1058.264, 14.00787
1058.746, 6.237549
1059.228, 5.685669
1059.710, 17.68890
1060.192, 37.16931
1060.675, 47.51263
1061.157, 49.61658
1061.639, 45.21802
1062.121, 36.18939
1062.603, 37.33667
1063.085, 53.61456
1063.567, 66.96442
1064.049, 58.15680
1064.531, 39.43274
1065.014, 33.51520
1065.496, 34.91852
1065.978, 29.44257
1066.460, 19.00739
1066.942, 15.64392
1067.424, 21.09613
1067.906, 22.33014
1068.388, 7.890442
1068.870, 3.657043
1069.353, 15.19904
1069.835, 44.57220
1070.317, 60.31244
1070.799, 63.52075
1071.281, 56.22278
1071.763, 41.70178
1072.245, 27.44189
1072.727, 15.58276
1073.210, 13.86163
1073.692, 39.69556
1074.174, 65.18146
1074.656, 62.56494
1075.138, 49.23151
1075.620, 47.60919
1076.102, 54.92676
1076.584, 57.86066
1077.067, 52.95862
1077.549, 41.85950
1078.031, 14.57117
1078.513, 4.555969
1078.995, 3.856873
1079.477, 8.499390
1079.959, 39.04156
1080.441, 70.47974
1080.923, 71.26062
1081.406, 39.87909
1081.888, 18.48108
1082.370, 20.45349
1082.852, 23.84204
1083.334, 24.60901
1083.816, 27.03772
1084.298, 34.15015
1084.780, 42.43658
1085.262, 52.21741
1085.745, 61.55713
1086.227, 58.30695
1086.709, 33.66669
1087.191, 20.13660
1087.673, 25.29462
1088.155, 25.59045
1088.637, 11.09863
1089.119, 2.033752
1089.602, 0.7279050
1090.084, 8.289856
1090.566, 9.680054
1091.048, 2.926575
1091.530, 7.731445
1092.012, 27.74878
1092.494, 33.16199
1092.976, 16.80658
1093.458, 2.250427
1093.941, 1.608459
1094.423, 6.671875
1094.905, 6.538513
1095.387, 4.021667
1095.869, 10.11536
1096.351, 23.83557
1096.833, 41.72308
1097.315, 61.35748
1097.797, 62.63287
1098.280, 40.12750
1098.762, 13.86902
1099.244, 0.6404420
1099.726, 4.582153
1100.208, 5.740906
1100.690, 1.728149
1101.172, 13.28986
1101.654, 32.42792
1102.137, 36.48016
1102.619, 25.21710
1103.101, 12.61627
1103.583, 4.971924
1104.065, 2.933777
1104.547, 7.009277
1105.029, 16.98755
1105.511, 42.16589
1105.994, 65.88196
1106.476, 63.10986
1106.958, 43.75867
1107.440, 33.27966
1107.922, 36.73383
1108.404, 39.02130
1108.886, 27.54706
1109.368, 23.55676
1109.850, 47.01550
1110.333, 66.80450
1110.815, 57.52838
1111.297, 38.14203
1111.779, 34.31787
1112.261, 43.34369
1112.743, 42.22485
1113.225, 19.98157
1113.707, 10.33057
1114.189, 27.33221
1114.672, 35.62280
1115.154, 18.02722
1115.636, 3.297302
1116.118, 14.31061
1116.600, 37.01642
1117.082, 45.26282
1117.564, 39.10138
1118.046, 31.49823
1118.529, 20.73737
1119.011, 19.90173
1119.493, 31.95081
1119.975, 41.06897
1120.457, 40.72382
1120.939, 33.20123
1121.421, 18.77832
1121.903, 4.002380
1122.385, 10.71283
1122.868, 33.09436
1123.350, 40.41010
1123.832, 33.53314
1124.314, 22.00952
1124.796, 9.787476
1125.278, 7.162964
1125.760, 20.58075
1126.242, 34.83063
1126.724, 28.11908
1127.207, 16.37714
1127.689, 24.59460
1128.171, 39.79773
1128.653, 38.79150
1129.135, 26.24567
1129.617, 21.53680
1130.099, 28.85760
1130.581, 33.96326
1131.064, 28.22809
1131.546, 21.33435
1132.028, 16.29089
1132.510, 13.97418
1132.992, 16.47046
1133.474, 20.92511
1133.956, 25.82031
1134.438, 29.63470
1134.921, 26.88226
1135.403, 12.89380
1135.885, 6.157288
1136.367, 13.23804
1136.849, 19.88232
1137.331, 23.11926
1137.813, 26.63269
1138.295, 34.30536
1138.777, 41.31860
1139.260, 40.02869
1139.742, 31.35693
1140.224, 23.08655
1140.706, 14.31848
1141.188, 14.69562
1141.670, 26.16412
1142.152, 31.18958
1142.634, 23.91071
1143.116, 12.76306
1143.599, 3.543762
1144.081, 1.846558
1144.563, 0.3198850
1145.045, 8.802429
1145.527, 24.76917
1146.009, 42.92188
1146.491, 43.71704
1146.973, 29.33014
1147.456, 19.83136
1147.938, 22.65833
1148.420, 29.62616
1148.902, 36.72491
1149.384, 42.00055
1149.866, 42.83813
1150.348, 41.64990
1150.830, 39.77844
1151.313, 38.13586
1151.795, 38.78247
1152.277, 40.94678
1152.759, 40.31879
1153.241, 34.77185
1153.723, 30.96210
1154.205, 31.03046
1154.687, 31.57465
1155.169, 38.48883
1155.651, 37.38464
1156.134, 6.776611
1156.616, 26.20636
1157.098, 15.79962
1157.580, 32.05414
1158.062, 45.02423
1158.544, 10.80933
1159.026, 2.408447
1159.508, 28.73010
1159.991, 47.47748
1160.473, 45.44183
1160.955, 38.55939
1161.437, 37.98486
1161.919, 39.97534
1162.401, 36.85468
1162.883, 31.37659
1163.365, 34.85126
1163.848, 43.60040
1164.330, 46.52338
1164.812, 42.89911
1165.294, 33.49884
1165.776, 20.09509
1166.258, 15.44562
1166.740, 33.69421
1167.222, 48.77399
1167.704, 31.85870
1168.187, 9.859497
1168.669, 5.439392
1169.151, 11.60498
1169.633, 23.40955
1170.115, 35.60901
1170.597, 35.68396
1171.079, 19.24701
1171.561, 9.391235
1172.043, 14.93347
1172.526, 19.97845
1173.008, 23.99774
1173.490, 24.24268
1173.972, 17.44769
1174.454, 9.068176
1174.936, 4.821167
1175.418, 3.569153
1175.900, 0.5234380
1176.383, 4.985046
1176.865, 0.5034180
1177.347, 14.35382
1177.829, 20.47894
1178.311, 14.60352
1178.793, 13.80560
1179.275, 26.39166
1179.757, 37.26178
1180.240, 28.20776
1180.722, 12.00922
1181.204, 7.180176
1181.686, 11.13818
1182.168, 25.52838
1182.650, 42.50269
1183.132, 45.79956
1183.614, 36.03180
1184.096, 28.24536
1184.578, 28.23004
1185.061, 28.05371
1185.543, 18.47845
1186.025, 15.64221
1186.507, 36.52777
1186.989, 55.65118
1187.471, 50.21472
1187.953, 35.53076
1188.435, 35.75909
1188.918, 43.12408
1189.400, 45.04407
1189.882, 32.72125
1190.364, 26.11932
1190.846, 26.74750
1191.328, 24.88477
1191.810, 17.17084
1192.292, 17.21283
1192.775, 34.05310
1193.257, 51.45886
1193.739, 47.06805
1194.221, 31.45050
1194.703, 31.22321
1195.185, 40.51062
1195.667, 45.27966
1196.149, 44.71338
1196.631, 37.48383
1197.114, 25.88922
1197.596, 20.38837
1198.078, 26.09692
1198.560, 31.15741
1199.042, 27.52026
1199.524, 25.35608
1200.006, 34.26392
1200.488, 43.13361
1200.970, 43.41821
1201.453, 37.88776
1201.935, 29.59180
1202.417, 19.50586
1202.899, 12.16150
1203.381, 6.073853
1203.863, 9.245789
1204.345, 28.08582
1204.827, 33.41425
1205.310, 15.51245
1205.792, 1.967773
1206.274, 8.212830
1206.756, 21.48737
1207.238, 27.41492
1207.720, 27.70239
1208.202, 24.87488
1208.684, 20.54059
1209.167, 21.38849
1209.649, 24.52399
1210.131, 17.99567
1210.613, 3.522949
1211.095, 2.228577
1211.577, 7.496887
1212.059, 17.66370
1212.541, 20.84778
1213.023, 19.54901
1213.505, 10.34112
1213.988, 2.354248
1214.470, 0.6334230
1214.952, 4.433350
1215.434, 15.87701
1215.916, 29.74713
1216.398, 37.72736
1216.880, 38.00830
1217.362, 29.59039
1217.845, 7.099243
1218.327, 0.2096560
1218.809, 12.95636
1219.291, 23.43427
1219.773, 14.13348
1220.255, 0.0000000E+00
##END=



