##NAMES=Giniite
##RRUFFID=R060765
##IDEAL CHEMISTRY=Fe^2+^Fe^3+^_4_(PO_4_)_4_(OH)_2_&#183;2H_2_O
##LOCALITY=Sandamab, Namibia
##OWNER=RRUFF
##SOURCE=Michael Scott
##DESCRIPTION=Black fragment, associated with triphylite, hureaulite, yellow-greenish tavorite (R140539), and black heterosite.
##STATUS=The identification of this mineral is confirmed by single-crystal X-ray diffraction and chemical analysis.
##URL=rruff.info/R060765
##MEASURED CHEMISTRY=(Fe^2+^_0.91_Mn_0.11_Mg_0.02_)_Σ=1.04_Fe^3+^_4.00_(PO_4_)_4_(OH)_2_·2H_2_O
115.2600, 0.0000000E+00
115.7420, 4.041580
116.2240, 7.725983
116.7060, 9.221695
117.1890, 12.79788
117.6710, 10.97298
118.1530, 5.254303
118.6350, 0.2649990
119.1170, 2.615036
119.5990, 3.829514
120.0810, 2.168076
120.5630, 4.675613
121.0460, 18.97054
121.5280, 36.68330
122.0100, 51.24686
122.4920, 61.29295
122.9740, 71.37325
123.4560, 84.09595
123.9380, 97.67438
124.4200, 110.2484
124.9020, 120.8224
125.3850, 129.8103
125.8670, 138.1573
126.3490, 145.3115
126.8310, 152.7361
127.3130, 159.6359
127.7950, 167.3126
128.2770, 178.2333
128.7600, 194.7745
129.2420, 215.7913
129.7240, 232.8351
130.2060, 245.0148
130.6880, 253.6330
131.1700, 260.3617
131.6520, 264.0133
132.1340, 262.0333
132.6160, 251.4517
133.0980, 232.2647
133.5810, 217.0713
134.0630, 214.0007
134.5450, 207.4109
135.0270, 189.2517
135.5090, 163.2067
135.9910, 138.8775
136.4730, 125.0682
136.9550, 123.1485
137.4380, 119.3457
137.9200, 109.7048
138.4020, 101.8869
138.8840, 99.54422
139.3660, 102.1771
139.8480, 106.8536
140.3300, 110.5922
140.8120, 112.7102
141.2940, 117.4820
141.7770, 124.7419
142.2590, 134.0804
142.7410, 147.4469
143.2230, 163.7350
143.7050, 178.2252
144.1870, 185.8854
144.6690, 185.0049
145.1510, 181.6927
145.6330, 173.6243
146.1160, 165.0897
146.5980, 159.0394
147.0800, 155.8633
147.5620, 154.0301
148.0440, 152.0956
148.5260, 150.7731
149.0080, 146.3445
149.4900, 135.5735
149.9730, 123.7255
150.4550, 114.8284
150.9370, 109.7192
151.4190, 107.5585
151.9010, 107.8965
152.3830, 111.9344
152.8650, 114.1105
153.3470, 110.4958
153.8290, 106.5223
154.3120, 108.8574
154.7940, 119.1489
155.2760, 132.0369
155.7580, 139.5262
156.2400, 140.0230
156.7220, 144.5883
157.2040, 157.0778
157.6860, 173.8607
158.1690, 190.9626
158.6510, 207.8337
159.1330, 223.0486
159.6150, 232.9034
160.0970, 236.7610
160.5790, 243.8483
161.0610, 258.7891
161.5430, 277.9163
162.0250, 295.3638
162.5080, 309.5476
162.9900, 322.1116
163.4720, 336.1174
163.9540, 351.9301
164.4360, 363.5057
164.9180, 368.6129
165.4000, 368.0425
165.8820, 362.0396
166.3650, 348.6889
166.8470, 334.1252
167.3290, 325.4826
167.8110, 322.3118
168.2930, 322.5577
168.7750, 327.3981
169.2570, 335.1331
169.7390, 341.9282
170.2210, 348.2676
170.7040, 351.0227
171.1860, 343.6165
171.6680, 326.2578
172.1500, 315.1031
172.6320, 321.2917
173.1140, 339.3110
173.5960, 356.3992
174.0780, 371.5797
174.5610, 382.6772
175.0430, 386.9702
175.5250, 384.8986
176.0070, 382.6002
176.4890, 383.2555
176.9710, 386.4176
177.4530, 391.1063
177.9350, 400.3798
178.4170, 406.3191
178.9000, 404.4565
179.3820, 394.8451
179.8640, 375.8548
180.3460, 340.5052
180.8280, 292.7393
181.3100, 253.1340
181.7920, 228.2463
182.2740, 207.9323
182.7570, 181.1655
183.2390, 149.3062
183.7210, 123.2947
184.2030, 114.6194
184.6850, 119.6609
185.1670, 116.7065
185.6490, 96.13184
186.1310, 76.14545
186.6130, 72.49982
187.0960, 82.53455
187.5780, 90.78223
188.0600, 85.30042
188.5420, 68.37280
189.0240, 53.67609
189.5060, 40.15588
189.9880, 32.75293
190.4700, 37.02606
190.9520, 50.41895
191.4350, 61.92621
191.9170, 62.89178
192.3990, 55.03040
192.8810, 48.30475
193.3630, 39.83270
193.8450, 37.85895
194.3270, 50.99042
194.8090, 74.90875
195.2920, 95.18378
195.7740, 99.36139
196.2560, 90.62531
196.7380, 88.30133
197.2200, 97.27332
197.7020, 106.7711
198.1840, 109.8555
198.6660, 108.5073
199.1480, 108.0953
199.6310, 112.6433
200.1130, 121.1042
200.5950, 128.0709
201.0770, 131.7731
201.5590, 136.6476
202.0410, 146.5164
202.5230, 159.1445
203.0050, 169.4458
203.4880, 174.0204
203.9700, 173.9693
204.4520, 172.8412
204.9340, 168.1735
205.4160, 166.7529
205.8980, 173.5623
206.3800, 185.1917
206.8620, 195.6141
207.3440, 201.2033
207.8270, 203.3613
208.3090, 206.9400
208.7910, 214.0654
209.2730, 218.3392
209.7550, 213.8397
210.2370, 205.5634
210.7190, 201.1674
211.2010, 204.8038
211.6840, 214.0312
212.1660, 223.1666
212.6480, 231.8991
213.1300, 241.2953
213.6120, 251.6944
214.0940, 262.9611
214.5760, 275.1066
215.0580, 287.8305
215.5400, 301.6737
216.0230, 318.1284
216.5050, 338.4962
216.9870, 357.7283
217.4690, 373.8954
217.9510, 388.1776
218.4330, 401.0286
218.9150, 411.9505
219.3970, 423.1750
219.8800, 439.7644
220.3620, 464.4632
220.8440, 484.1765
221.3260, 493.5342
221.8080, 496.0913
222.2900, 493.7165
222.7720, 486.6519
223.2540, 475.6674
223.7360, 463.5257
224.2190, 451.5690
224.7010, 428.9191
225.1830, 380.5920
225.6650, 326.5865
226.1470, 282.1686
226.6290, 251.2483
227.1110, 226.5037
227.5930, 200.5602
228.0760, 173.3370
228.5580, 146.1920
229.0400, 115.7927
229.5220, 89.43127
230.0040, 74.74805
230.4860, 72.25244
230.9680, 70.66406
231.4500, 59.79175
231.9320, 40.51215
232.4150, 23.86823
232.8970, 11.56244
233.3790, 3.298767
233.8610, 2.373535
234.3430, 5.414612
234.8250, 4.421021
235.3070, 4.525208
235.7890, 19.37750
236.2710, 30.41931
236.7540, 36.40027
237.2360, 38.36536
237.7180, 36.49347
238.2000, 31.49316
238.6820, 26.31128
239.1640, 20.35394
239.6460, 15.41418
240.1280, 17.10992
240.6110, 28.21802
241.0930, 40.39130
241.5750, 46.98773
242.0570, 49.80420
242.5390, 52.96466
243.0210, 57.59900
243.5030, 63.59308
243.9850, 71.46594
244.4670, 81.80823
244.9500, 91.27319
245.4320, 97.35065
245.9140, 100.8993
246.3960, 103.3284
246.8780, 105.7606
247.3600, 106.6041
247.8420, 102.9066
248.3240, 94.51013
248.8070, 87.05054
249.2890, 83.31793
249.7710, 82.90015
250.2530, 84.59711
250.7350, 90.38885
251.2170, 95.61127
251.6990, 96.51929
252.1810, 93.54578
252.6630, 89.38690
253.1460, 84.08948
253.6280, 79.25037
254.1100, 78.32465
254.5920, 83.41614
255.0740, 87.44501
255.5560, 83.79407
256.0380, 76.06525
256.5200, 75.30463
257.0030, 87.11401
257.4850, 103.7075
257.9670, 109.9249
258.4490, 102.8864
258.9310, 100.7357
259.4130, 113.3290
259.8950, 132.7982
260.3770, 147.3541
260.8590, 154.0848
261.3410, 156.4681
261.8240, 157.7691
262.3060, 157.3598
262.7880, 160.0769
263.2700, 170.1885
263.7520, 181.5525
264.2340, 186.6599
264.7160, 184.9738
265.1980, 184.4048
265.6810, 193.8761
266.1630, 215.2008
266.6450, 226.2153
267.1270, 217.2821
267.6090, 206.6620
268.0910, 206.2709
268.5730, 214.8707
269.0550, 224.2855
269.5380, 228.9281
270.0200, 228.9483
270.5020, 226.9495
270.9840, 219.9902
271.4660, 214.6176
271.9480, 213.3427
272.4300, 215.2463
272.9120, 219.1732
273.3940, 224.8787
273.8770, 230.8756
274.3590, 231.5287
274.8410, 222.3882
275.3230, 212.9939
275.8050, 204.7968
276.2870, 196.5247
276.7690, 186.0419
277.2510, 172.6872
277.7330, 158.6324
278.2160, 148.1266
278.6980, 144.0737
279.1800, 138.8655
279.6620, 133.3873
280.1440, 126.2927
280.6260, 115.6530
281.1080, 101.6968
281.5900, 87.25439
282.0730, 76.91254
282.5550, 73.97113
283.0370, 61.04926
283.5190, 22.18683
284.0010, 11.70325
284.4830, 23.73218
284.9650, 18.07520
285.4470, 9.853027
285.9300, 11.32037
286.4120, 21.85004
286.8940, 30.46259
287.3760, 38.17511
287.8580, 42.25610
288.3400, 39.56879
288.8220, 33.31787
289.3040, 28.47388
289.7860, 27.78967
290.2680, 29.78900
290.7510, 31.04492
291.2330, 32.33618
291.7150, 30.93671
292.1970, 23.72192
292.6790, 14.77960
293.1610, 8.015259
293.6430, 4.721436
294.1250, 2.876953
294.6080, 0.2061160
295.0900, 3.327087
295.5720, 7.365173
296.0540, 11.75537
296.5360, 16.78442
297.0180, 22.68170
297.5000, 29.45801
297.9820, 36.90039
298.4650, 45.41699
298.9470, 54.62347
299.4290, 62.38702
299.9110, 67.55438
300.3930, 72.75977
300.8750, 80.17194
301.3570, 89.45892
301.8390, 99.65771
302.3210, 112.1352
302.8040, 124.5955
303.2860, 132.7494
303.7680, 135.8600
304.2500, 139.6297
304.7320, 146.8443
305.2140, 158.1161
305.6960, 174.3139
306.1780, 205.2718
306.6600, 232.8463
307.1430, 241.4033
307.6250, 234.9329
308.1070, 229.8326
308.5890, 234.2906
309.0710, 244.5549
309.5530, 249.5130
310.0350, 244.0010
310.5170, 243.4221
311.0000, 258.3972
311.4820, 278.7849
311.9640, 289.2803
312.4460, 285.3517
312.9280, 273.8311
313.4100, 264.2214
313.8920, 257.1314
314.3740, 250.8426
314.8570, 247.1653
315.3390, 242.9850
315.8210, 233.2302
316.3030, 219.4349
316.7850, 210.2836
317.2670, 214.5423
317.7490, 233.2201
318.2310, 245.5530
318.7130, 248.8963
319.1950, 249.2335
319.6780, 244.1643
320.1600, 237.8596
320.6420, 237.1985
321.1240, 246.2012
321.6060, 262.5748
322.0880, 279.5000
322.5700, 301.0662
323.0520, 315.9562
323.5350, 313.7144
324.0170, 309.9103
324.4990, 319.2899
324.9810, 345.5887
325.4630, 379.4947
325.9450, 410.7340
326.4270, 440.0303
326.9090, 462.0347
327.3920, 464.7379
327.8740, 469.8872
328.3560, 493.7142
328.8380, 532.3968
329.3200, 566.5854
329.8020, 577.5766
330.2840, 572.0515
330.7660, 579.6011
331.2480, 608.6456
331.7310, 632.4595
332.2130, 631.0616
332.6950, 614.9326
333.1770, 600.9584
333.6590, 597.8876
334.1410, 594.7391
334.6230, 574.9770
335.1050, 539.5931
335.5870, 512.9012
336.0700, 509.4244
336.5520, 517.1140
337.0340, 514.5665
337.5160, 501.5842
337.9980, 480.2442
338.4800, 442.9164
338.9620, 399.3557
339.4440, 369.1113
339.9270, 357.7468
340.4090, 353.5532
340.8910, 342.6876
341.3730, 323.2218
341.8550, 306.2860
342.3370, 294.0059
342.8190, 284.2504
343.3010, 275.6600
343.7840, 267.3475
344.2660, 258.3359
344.7480, 248.6522
345.2300, 238.0190
345.7120, 223.1204
346.1940, 195.8363
346.6760, 174.7943
347.1580, 168.0724
347.6400, 167.9310
348.1220, 164.2924
348.6050, 153.3039
349.0870, 138.0469
349.5690, 124.4116
350.0510, 113.5883
350.5330, 103.0300
351.0150, 89.06055
351.4970, 77.69043
351.9790, 73.91077
352.4620, 77.16632
352.9440, 82.41016
353.4260, 85.10657
353.9080, 85.41034
354.3900, 86.93555
354.8720, 89.68170
355.3540, 93.81207
355.8360, 101.8204
356.3190, 110.5857
356.8010, 114.3531
357.2830, 108.7544
357.7650, 100.4007
358.2470, 99.64490
358.7290, 107.1110
359.2110, 113.6668
359.6930, 113.5046
360.1750, 113.0833
360.6580, 121.4817
361.1400, 140.6944
361.6220, 158.8301
362.1040, 168.2655
362.5860, 172.6271
363.0680, 180.1296
363.5500, 192.5214
364.0320, 204.9518
364.5140, 213.1116
364.9970, 216.9739
365.4790, 219.2714
365.9610, 219.9093
366.4430, 218.9694
366.9250, 216.0812
367.4070, 211.5545
367.8890, 206.0361
368.3710, 199.8342
368.8530, 193.6754
369.3360, 189.8394
369.8180, 193.6914
370.3000, 192.9745
370.7820, 184.2510
371.2640, 171.4065
371.7460, 156.3277
372.2280, 140.5952
372.7110, 128.2904
373.1930, 125.4890
373.6750, 135.5837
374.1570, 137.5070
374.6390, 122.7191
375.1210, 108.2632
375.6030, 101.3084
376.0850, 99.36249
376.5670, 96.21570
377.0490, 88.13763
377.5320, 76.62134
378.0140, 64.87201
378.4960, 51.33319
378.9780, 42.19098
379.4600, 43.34082
379.9420, 47.86499
380.4240, 50.74768
380.9060, 51.47357
381.3890, 49.52948
381.8710, 41.27020
382.3530, 29.30518
382.8350, 25.44189
383.3170, 34.34583
383.7990, 45.28198
384.2810, 45.93329
384.7630, 38.01697
385.2460, 33.06476
385.7280, 34.50354
386.2100, 38.60431
386.6920, 43.32202
387.1740, 48.23669
387.6560, 51.76733
388.1380, 52.58221
388.6200, 51.99377
389.1020, 54.77155
389.5850, 61.91949
390.0670, 70.83453
390.5490, 84.98590
391.0310, 98.70697
391.5130, 103.7837
391.9950, 99.59113
392.4770, 95.68488
392.9590, 104.8098
393.4410, 130.5279
393.9240, 145.9026
394.4060, 143.2368
394.8880, 137.4854
395.3700, 129.7482
395.8520, 122.8297
396.3340, 121.1428
396.8160, 127.6317
397.2980, 139.0673
397.7800, 148.5769
398.2630, 155.6061
398.7450, 162.8079
399.2270, 169.7133
399.7090, 177.9615
400.1910, 189.3743
400.6730, 204.1014
401.1550, 219.5808
401.6380, 237.6452
402.1200, 254.9676
402.6020, 261.0621
403.0840, 252.8655
403.5660, 244.0601
404.0480, 246.1722
404.5300, 257.0195
405.0120, 263.6359
405.4940, 266.0834
405.9770, 263.4878
406.4590, 253.4973
406.9410, 238.1873
407.4230, 221.6752
407.9050, 205.3882
408.3870, 190.0249
408.8690, 177.1020
409.3510, 169.3989
409.8330, 158.1829
410.3160, 139.2384
410.7980, 120.4727
411.2800, 107.3613
411.7620, 99.36261
412.2440, 92.53143
412.7260, 84.01862
413.2080, 74.02148
413.6900, 63.78033
414.1720, 52.29901
414.6550, 42.24280
415.1370, 32.38104
415.6190, 24.87036
416.1010, 23.33740
416.5830, 28.83643
417.0650, 34.12378
417.5470, 30.62708
418.0290, 19.51312
418.5120, 11.46832
418.9940, 9.036865
419.4760, 7.677551
419.9580, 2.559998
420.4400, 4.835815
420.9220, 9.304382
421.4040, 7.140991
421.8860, 3.577881
422.3680, 3.279297
422.8510, 5.491272
423.3330, 6.985962
423.8150, 6.283081
424.2970, 4.090698
424.7790, 1.706665
425.2610, 2.291992
425.7430, 3.592285
426.2250, 1.2573000E-02
426.7080, 4.992676
427.1900, 9.594971
427.6720, 13.12842
428.1540, 14.44928
428.6360, 12.15521
429.1180, 6.778259
429.6000, 4.644592
430.0820, 9.781250
430.5650, 12.41608
431.0470, 8.614380
431.5290, 2.524231
432.0110, 1.011475
432.4930, 0.6693730
432.9750, 0.1503300
433.4570, 4.763184
433.9390, 13.92114
434.4210, 19.43048
434.9040, 20.01654
435.3860, 17.36835
435.8680, 10.19373
436.3500, 0.5465700
436.8320, 5.328857
437.3140, 3.946716
437.7960, 0.2666630
438.2780, 4.412415
438.7600, 8.440979
439.2430, 12.27112
439.7250, 15.98199
440.2070, 19.12610
440.6890, 20.56952
441.1710, 18.23541
441.6530, 19.05249
442.1350, 26.84991
442.6170, 34.96887
443.0990, 38.86743
443.5820, 38.63751
444.0640, 36.47620
444.5460, 33.83032
445.0280, 30.70300
445.5100, 27.03125
445.9920, 21.73187
446.4740, 17.83777
446.9570, 13.53668
447.4390, 12.15405
447.9210, 19.71405
448.4030, 36.29291
448.8850, 49.38818
449.3670, 43.20093
449.8490, 23.55994
450.3310, 17.32507
450.8130, 30.29205
451.2960, 43.62323
451.7780, 43.97675
452.2600, 35.43665
452.7420, 28.53070
453.2240, 23.36597
453.7060, 21.14624
454.1880, 25.08051
454.6700, 32.04230
455.1520, 35.25763
455.6350, 32.70178
456.1170, 28.60590
456.5990, 28.29205
457.0810, 32.62592
457.5630, 36.49200
458.0450, 40.65503
458.5270, 43.75006
459.0090, 42.31714
459.4910, 39.93414
459.9740, 44.15710
460.4560, 59.11536
460.9380, 77.46210
461.4200, 82.85797
461.9020, 70.76129
462.3840, 66.79169
462.8660, 80.56940
463.3480, 98.32520
463.8310, 113.8684
464.3130, 126.0236
464.7950, 132.0893
465.2770, 127.7270
465.7590, 119.2929
466.2410, 114.4604
466.7230, 113.2205
467.2050, 114.6136
467.6870, 117.8129
468.1700, 123.9791
468.6520, 137.4605
469.1340, 164.1465
469.6160, 181.3962
470.0980, 178.4189
470.5800, 170.2104
471.0620, 169.1715
471.5440, 175.6558
472.0260, 183.1819
472.5090, 187.3146
472.9910, 189.0436
473.4730, 193.0248
473.9550, 201.0992
474.4370, 207.7576
474.9190, 210.7871
475.4010, 213.2446
475.8830, 217.4598
476.3660, 223.6204
476.8480, 231.4254
477.3300, 242.2119
477.8120, 254.3715
478.2940, 261.8339
478.7760, 263.4269
479.2580, 265.1240
479.7400, 269.2723
480.2230, 276.0783
480.7050, 286.0731
481.1870, 302.5820
481.6690, 316.3353
482.1510, 321.3478
482.6330, 322.5971
483.1150, 327.3552
483.5970, 336.5042
484.0790, 345.5624
484.5610, 350.5186
485.0440, 351.4621
485.5260, 349.2730
486.0080, 337.1406
486.4900, 329.6534
486.9720, 333.3154
487.4540, 341.0851
487.9360, 345.9928
488.4180, 346.1359
488.9010, 341.7577
489.3830, 331.0925
489.8650, 314.6511
490.3470, 299.7715
490.8290, 286.7903
491.3110, 275.6099
491.7930, 265.1276
492.2750, 256.3633
492.7580, 252.3427
493.2400, 258.0002
493.7220, 261.5585
494.2040, 254.6755
494.6860, 240.7499
495.1680, 226.9881
495.6500, 215.3073
496.1320, 203.9014
496.6140, 190.4810
497.0970, 174.2851
497.5790, 163.8201
498.0610, 166.0607
498.5430, 165.5762
499.0250, 156.4727
499.5070, 142.9551
499.9890, 130.5494
500.4710, 121.0356
500.9530, 112.5740
501.4360, 102.4975
501.9180, 90.86804
502.4000, 80.49976
502.8820, 69.74152
503.3640, 63.60889
503.8460, 69.18774
504.3280, 81.37915
504.8100, 90.06226
505.2930, 94.22144
505.7750, 93.55505
506.2570, 84.75085
506.7390, 71.46875
507.2210, 61.29596
507.7030, 56.12952
508.1850, 51.99884
508.6670, 44.04767
509.1500, 31.22760
509.6320, 26.00189
510.1140, 39.30139
510.5960, 47.09540
511.0780, 39.00256
511.5600, 23.56653
512.0420, 11.05261
512.5240, 4.735168
513.0060, 2.208313
513.4890, 0.7687380
513.9710, 0.5076290
514.4530, 3.513855
514.9350, 11.51691
515.4170, 19.36609
515.8990, 24.85461
516.3810, 27.64545
516.8630, 26.38684
517.3460, 18.39856
517.8280, 10.48267
518.3100, 6.145996
518.7920, 4.181152
519.2740, 3.226990
519.7560, 2.859558
520.2380, 1.822754
520.7200, 1.613464
521.2020, 7.401337
521.6850, 8.833801
522.1670, 0.4066770
522.6490, 5.960632
523.1310, 6.805969
523.6130, 5.556396
524.0950, 6.128906
524.5770, 9.231567
525.0590, 11.99365
525.5410, 10.95691
526.0240, 7.222046
526.5060, 6.101013
526.9880, 8.643677
527.4700, 9.829376
527.9520, 5.587952
528.4340, 1.445221
528.9160, 4.483337
529.3980, 1.360901
529.8800, 0.9294130
530.3630, 1.679749
530.8450, 5.022797
531.3270, 5.710419
531.8090, 3.700928
532.2910, 2.352325
532.7730, 1.627686
533.2550, 3.387817
533.7370, 1.949402
534.2190, 1.798553
534.7020, 1.703094
535.1840, 0.1752930
535.6660, 1.238739
536.1480, 0.6142880
536.6300, 1.166534
537.1120, 2.314362
537.5940, 2.171051
538.0760, 2.426544
538.5590, 2.881348
539.0410, 12.28299
539.5230, 17.33209
540.0050, 13.02216
540.4870, 4.382355
540.9690, 0.5263670
541.4510, 3.713898
541.9330, 4.936890
542.4160, 0.2353210
542.8980, 3.743073
543.3800, 1.964203
543.8620, 13.05170
544.3440, 20.15277
544.8260, 18.31348
545.3080, 12.42029
545.7900, 12.13660
546.2730, 18.60614
546.7550, 22.72296
547.2370, 23.05341
547.7190, 21.30078
548.2010, 17.66006
548.6830, 12.93549
549.1650, 9.454315
549.6470, 9.049896
550.1290, 8.521057
550.6120, 3.748840
551.0940, 2.473846
551.5760, 3.606842
552.0580, 1.953491
552.5400, 9.860229
553.0220, 15.97894
553.5040, 20.36163
553.9860, 21.13397
554.4680, 10.80460
554.9510, 5.644318
555.4330, 13.26291
555.9150, 24.88959
556.3970, 31.32767
556.8790, 30.66571
557.3610, 27.19067
557.8430, 22.88644
558.3250, 18.70789
558.8070, 17.64819
559.2900, 19.90930
559.7720, 24.91620
560.2540, 34.49200
560.7360, 45.15262
561.2180, 46.97406
561.7000, 34.62769
562.1820, 28.32639
562.6640, 35.50638
563.1460, 46.32581
563.6290, 53.49832
564.1110, 57.40781
564.5930, 62.44028
565.0750, 71.62781
565.5570, 81.04651
566.0390, 79.79144
566.5210, 64.41037
567.0030, 55.64032
567.4860, 58.92334
567.9680, 66.75842
568.4500, 74.82355
568.9320, 82.90485
569.4140, 90.13336
569.8960, 92.56854
570.3780, 98.19360
570.8600, 118.1218
571.3430, 144.3342
571.8250, 158.9929
572.3070, 157.8451
572.7890, 152.0245
573.2710, 153.2772
573.7530, 161.7212
574.2350, 166.5014
574.7170, 164.1570
575.2000, 162.6179
575.6820, 165.6185
576.1640, 168.7139
576.6460, 166.2793
577.1280, 157.9223
577.6100, 150.6893
578.0920, 152.2429
578.5740, 157.3704
579.0560, 154.2054
579.5390, 143.0064
580.0210, 134.5066
580.5030, 133.3488
580.9850, 136.2626
581.4670, 137.2464
581.9490, 135.9396
582.4310, 133.3542
582.9130, 128.4880
583.3950, 123.5644
583.8780, 119.3052
584.3600, 116.2672
584.8420, 116.1990
585.3240, 113.0771
585.8060, 115.0265
586.2880, 115.5981
586.7700, 114.7982
587.2520, 109.5995
587.7340, 110.5726
588.2170, 108.8851
588.6990, 106.8922
589.1810, 108.2648
589.6630, 103.4882
590.1450, 105.0241
590.6270, 104.1198
591.1090, 104.2477
591.5910, 102.0063
592.0730, 100.5352
592.5560, 101.5342
593.0380, 101.6096
593.5200, 100.0106
594.0020, 100.4587
594.4840, 96.95001
594.9660, 101.2711
595.4480, 103.8609
595.9300, 100.9371
596.4130, 97.49411
596.8950, 97.98810
597.3770, 101.2135
597.8590, 104.0632
598.3410, 102.1898
598.8230, 103.0813
599.3050, 116.0523
599.7870, 134.5816
600.2690, 144.6175
600.7520, 142.8569
601.2340, 139.9158
601.7160, 147.1347
602.1980, 163.9283
602.6800, 175.3048
603.1620, 177.4313
603.6440, 180.3007
604.1270, 187.9470
604.6090, 196.2162
605.0910, 200.1514
605.5730, 199.7605
606.0550, 202.0356
606.5370, 212.7165
607.0190, 226.7099
607.5010, 238.7078
607.9830, 248.5208
608.4660, 255.9240
608.9480, 260.7425
609.4300, 263.0962
609.9120, 262.7318
610.3940, 258.3021
610.8760, 257.4928
611.3580, 268.6264
611.8400, 273.7178
612.3220, 261.5244
612.8050, 243.2688
613.2870, 234.2108
613.7690, 237.9785
614.2510, 242.7999
614.7330, 237.0712
615.2150, 226.9615
615.6970, 228.1899
616.1790, 240.6232
616.6610, 245.6606
617.1440, 232.2220
617.6260, 209.3063
618.1080, 196.1077
618.5900, 198.5302
619.0720, 196.6069
619.5540, 187.4684
620.0360, 177.2900
620.5180, 168.1085
621.0000, 160.0842
621.4830, 153.4459
621.9650, 148.4296
622.4470, 143.3138
622.9290, 134.6047
623.4110, 124.2807
623.8930, 119.9897
624.3750, 122.8588
624.8570, 124.8900
625.3400, 121.0163
625.8220, 113.0706
626.3040, 106.3921
626.7860, 100.8627
627.2680, 96.82233
627.7500, 96.96136
628.2320, 96.27335
628.7140, 90.87247
629.1960, 82.14835
629.6790, 72.62103
630.1610, 62.98523
630.6430, 55.60391
631.1250, 55.05411
631.6070, 59.78513
632.0890, 61.71130
632.5710, 59.56863
633.0540, 56.20914
633.5360, 53.14188
634.0180, 50.51010
634.5000, 48.93985
634.9820, 52.39319
635.4640, 50.80505
635.9460, 38.59460
636.4280, 25.36838
636.9100, 16.67090
637.3930, 12.66751
637.8750, 12.64508
638.3570, 17.35202
638.8390, 21.52139
639.3210, 15.30426
639.8030, 0.7694700
640.2850, 7.290924
640.7670, 5.936554
641.2500, 2.269714
641.7320, 1.605530
642.2140, 2.904572
642.6960, 0.9507140
643.1780, 10.88492
643.6600, 16.41000
644.1420, 7.290100
644.6240, 2.706970
645.1060, 2.431244
645.5890, 5.915863
646.0710, 13.64700
646.5530, 16.48315
647.0350, 16.03534
647.5170, 12.70010
647.9990, 7.458130
648.4810, 8.074738
648.9630, 17.27606
649.4450, 22.96487
649.9280, 13.59592
650.4100, 6.541077
650.8920, 14.84042
651.3740, 0.8552550
651.8560, 9.845398
652.3380, 16.50870
652.8200, 18.66238
653.3020, 12.23157
653.7840, 1.042175
654.2670, 5.207794
654.7490, 0.9470210
655.2310, 7.626312
655.7130, 13.93884
656.1950, 17.88666
656.6770, 18.65497
657.1590, 15.93765
657.6410, 11.53659
658.1230, 5.931122
658.6060, 8.7860003E-02
659.0880, 1.900238
659.5700, 4.234802
660.0520, 8.196014
660.5340, 8.710388
661.0160, 8.086945
661.4980, 6.559631
661.9810, 5.173492
662.4630, 6.321594
662.9450, 11.74976
663.4270, 17.50116
663.9090, 18.73276
664.3910, 17.09949
664.8730, 17.98145
665.3550, 22.04150
665.8370, 23.87180
666.3200, 19.42633
666.8020, 10.76971
667.2840, 4.268250
667.7660, 1.858917
668.2480, 2.283997
668.7300, 11.19873
669.2120, 21.85663
669.6940, 18.73868
670.1770, 7.412872
670.6590, 0.5847170
671.1410, 1.425690
671.6230, 0.5895080
672.1050, 3.782684
672.5870, 7.002075
673.0690, 7.731598
673.5510, 6.078217
674.0330, 4.724060
674.5160, 5.289948
674.9980, 6.689026
675.4800, 5.992188
675.9620, 1.364502
676.4440, 0.4339600
676.9260, 7.113312
677.4080, 12.80679
677.8900, 13.59540
678.3720, 11.22314
678.8550, 7.702026
679.3370, 2.704987
679.8190, 7.1075000E-02
680.3010, 3.335907
680.7830, 8.789856
681.2650, 13.14801
681.7470, 16.04022
682.2290, 17.14456
682.7110, 16.29709
683.1940, 14.71030
683.6760, 14.82928
684.1580, 17.00137
684.6400, 14.74548
685.1220, 3.373657
685.6040, 1.885071
686.0860, 11.44199
686.5680, 31.19632
687.0500, 38.49771
687.5330, 30.96121
688.0150, 27.17755
688.4970, 34.82874
688.9790, 42.80051
689.4610, 46.11649
689.9430, 46.81140
690.4250, 47.93115
690.9070, 50.47891
691.3900, 54.09952
691.8720, 59.92206
692.3540, 66.48746
692.8360, 66.73172
693.3180, 60.20996
693.8000, 51.03305
694.2820, 38.23706
694.7640, 27.71292
695.2470, 28.31561
695.7290, 41.69720
696.2110, 50.34760
696.6930, 50.00592
697.1750, 50.38739
697.6570, 57.02267
698.1390, 63.43747
698.6210, 61.84525
699.1040, 53.17487
699.5860, 47.42142
700.0680, 53.69632
700.5500, 63.46362
701.0320, 64.38797
701.5140, 58.16119
701.9960, 51.30621
702.4780, 45.09671
702.9600, 41.02744
703.4430, 35.88300
703.9250, 44.40439
704.4070, 49.60861
704.8890, 51.67615
705.3710, 41.22363
705.8530, 47.06158
706.3350, 46.57523
706.8170, 45.86539
707.2990, 54.13571
707.7820, 45.71298
708.2640, 53.47250
708.7460, 54.14755
709.2280, 53.94150
709.7100, 52.37216
710.1920, 51.08200
710.6740, 49.73447
711.1560, 49.53610
711.6380, 51.37787
712.1210, 52.88147
712.6030, 49.27054
713.0850, 39.57236
713.5670, 34.97287
714.0490, 37.70621
714.5310, 41.62628
715.0130, 42.62415
715.4950, 43.15274
715.9770, 49.00708
716.4600, 62.69046
716.9420, 72.34702
717.4240, 77.28662
717.9060, 77.16196
718.3880, 67.37106
718.8700, 54.10590
719.3520, 47.27444
719.8340, 49.43524
720.3170, 54.71646
720.7990, 57.09201
721.2810, 57.62997
721.7630, 59.25626
722.2450, 61.83945
722.7270, 63.36554
723.2090, 62.90564
723.6910, 62.64789
724.1740, 65.82880
724.6560, 72.57837
725.1380, 74.10959
725.6200, 67.19672
726.1020, 59.63318
726.5840, 50.67932
727.0660, 43.43915
727.5480, 41.43457
728.0310, 43.73065
728.5130, 45.25677
728.9950, 42.77884
729.4770, 41.24487
729.9590, 44.80450
730.4410, 50.66693
730.9230, 55.46689
731.4050, 58.44653
731.8870, 58.97577
732.3700, 56.30862
732.8520, 52.49210
733.3340, 52.34814
733.8160, 56.04785
734.2980, 59.04477
734.7800, 61.82864
735.2620, 60.98215
735.7440, 52.96417
736.2260, 40.66782
736.7090, 30.68604
737.1910, 21.26279
737.6730, 18.29877
738.1550, 28.63867
738.6370, 38.68698
739.1190, 41.72202
739.6010, 40.17365
740.0830, 36.86359
740.5650, 32.86316
741.0480, 31.40213
741.5300, 37.11411
742.0120, 45.62286
742.4940, 49.53067
742.9760, 49.80298
743.4580, 51.84732
743.9400, 57.61093
744.4220, 56.32782
744.9040, 33.46048
745.3870, 6.813507
745.8690, 22.50342
746.3510, 4.792267
746.8330, 12.73572
747.3150, 26.18536
747.7970, 34.36163
748.2790, 33.60446
748.7610, 26.36380
749.2440, 22.10461
749.7260, 24.58395
750.2080, 26.03278
750.6900, 21.59708
751.1720, 17.33490
751.6540, 18.75024
752.1360, 24.90607
752.6180, 33.36243
753.1010, 43.71033
753.5830, 49.74567
754.0650, 39.67542
754.5470, 20.41812
755.0290, 13.33594
755.5110, 18.97430
755.9930, 21.64084
756.4750, 13.55472
756.9580, 1.979309
757.4400, 1.692078
757.9220, 3.545471
758.4040, 8.412659
758.8860, 12.84232
759.3680, 17.04843
759.8500, 23.19202
760.3320, 27.66772
760.8140, 26.35651
761.2970, 19.62970
761.7790, 13.07343
762.2610, 7.514618
762.7430, 2.963196
763.2250, 0.7651060
763.7070, 3.379669
764.1890, 4.079346
764.6710, 3.231537
765.1530, 2.506561
765.6360, 3.130066
766.1180, 3.545868
766.6000, 0.6020510
767.0820, 4.649719
767.5640, 7.689056
768.0460, 7.968964
768.5280, 7.187317
769.0100, 5.927002
769.4920, 5.160034
769.9750, 7.065582
770.4570, 12.43585
770.9390, 17.45755
771.4210, 24.02509
771.9030, 27.50623
772.3850, 23.62930
772.8670, 17.59479
773.3490, 14.10763
773.8310, 13.48892
774.3140, 16.86017
774.7960, 30.77853
775.2780, 41.71625
775.7600, 42.63431
776.2420, 36.43481
776.7240, 22.98566
777.2060, 5.370880
777.6880, 5.875641
778.1710, 2.554688
778.6530, 7.352631
779.1350, 12.49744
779.6170, 13.85013
780.0990, 14.39435
780.5810, 14.59808
781.0630, 17.11639
781.5450, 24.26334
782.0280, 32.41388
782.5100, 32.07767
782.9920, 19.24475
783.4740, 15.16666
783.9560, 26.74457
784.4380, 35.81677
784.9200, 31.85428
785.4020, 23.40207
785.8850, 21.00110
786.3670, 25.21976
786.8490, 28.39117
787.3310, 29.45886
787.8130, 28.77322
788.2950, 25.40646
788.7770, 20.98502
789.2590, 16.30078
789.7410, 12.15881
790.2240, 10.68713
790.7060, 13.67163
791.1880, 18.53546
791.6700, 24.37048
792.1520, 29.31482
792.6340, 26.60342
793.1160, 16.71735
793.5980, 10.84842
794.0800, 15.77472
794.5630, 24.69525
795.0450, 23.51404
795.5270, 10.70917
796.0090, 5.238525
796.4910, 10.24594
796.9730, 13.20459
797.4550, 7.204407
797.9370, 0.9706420
798.4190, 1.080780
798.9020, 8.114960
799.3840, 1.891205
799.8660, 11.24509
800.3480, 18.76163
800.8300, 20.96674
801.3120, 1.933624
801.7940, 10.32657
802.2760, 7.735779
802.7580, 4.694000
803.2410, 16.43356
803.7230, 1.009552
804.2050, 10.61203
804.6870, 11.48065
805.1690, 17.46863
805.6510, 12.36588
806.1330, 10.67746
806.6150, 20.05124
807.0980, 23.29935
807.5800, 16.91971
808.0620, 23.19775
808.5440, 6.862427
809.0260, 10.37222
809.5080, 22.44220
809.9900, 16.61945
810.4720, 23.09793
810.9550, 13.42068
811.4370, 1.667664
811.9190, 0.2743230
812.4010, 16.46140
812.8830, 25.36023
813.3650, 16.47433
813.8470, 6.274170
814.3290, 4.212402
814.8120, 7.503876
815.2940, 9.574982
815.7760, 8.944244
816.2580, 10.73804
816.7400, 19.79703
817.2220, 28.24118
817.7040, 30.74951
818.1860, 29.32501
818.6680, 26.35071
819.1510, 22.88553
819.6330, 21.60794
820.1150, 27.38467
820.5970, 34.30582
821.0790, 32.11487
821.5610, 24.07410
822.0430, 16.27185
822.5250, 10.50253
823.0070, 10.35223
823.4900, 18.90204
823.9720, 31.15054
824.4540, 36.16440
824.9360, 34.67902
825.4180, 31.00000
825.9000, 22.97049
826.3820, 19.22864
826.8640, 25.78546
827.3460, 35.19293
827.8290, 34.97723
828.3110, 23.17191
828.7930, 16.55450
829.2750, 19.00989
829.7570, 21.28522
830.2390, 19.98517
830.7210, 19.48203
831.2030, 23.44089
831.6850, 31.33298
832.1680, 40.32144
832.6500, 55.08807
833.1320, 61.43262
833.6140, 47.05606
834.0960, 28.31445
834.5780, 18.33371
835.0600, 15.18036
835.5420, 12.14520
836.0240, 7.762421
836.5070, 3.969727
836.9890, 2.121185
837.4710, 1.649078
837.9530, 0.4894100
838.4350, 4.4952001E-02
838.9170, 6.923615
839.3990, 21.65100
839.8810, 32.45938
840.3640, 28.60257
840.8460, 16.54471
841.3280, 14.23779
841.8100, 21.75574
842.2920, 24.35260
842.7740, 19.65836
843.2560, 14.13602
843.7380, 10.48853
844.2210, 9.548889
844.7030, 13.83810
845.1850, 6.832184
845.6670, 17.56100
846.1490, 23.98267
846.6310, 26.33020
847.1130, 12.40024
847.5950, 19.48648
848.0780, 18.14862
848.5600, 16.46365
849.0420, 26.50458
849.5240, 14.93530
850.0060, 24.78790
850.4880, 26.08740
850.9700, 31.30072
851.4520, 28.03693
851.9340, 27.38992
852.4170, 35.21982
852.8990, 28.92453
853.3810, 40.70413
853.8630, 35.98672
854.3450, 26.24298
854.8270, 21.77310
855.3090, 21.76328
855.7910, 26.11023
856.2730, 33.36215
856.7560, 36.04248
857.2380, 27.25037
857.7200, 14.41360
858.2020, 10.81638
858.6840, 14.18036
859.1660, 14.19537
859.6480, 10.55200
860.1300, 10.29593
860.6120, 17.37674
861.0950, 25.10956
861.5770, 21.63919
862.0590, 7.634369
862.5410, 6.357513
863.0230, 22.33798
863.5050, 31.67105
863.9870, 25.10480
864.4690, 17.07224
864.9510, 21.68439
865.4340, 35.48535
865.9160, 40.75674
866.3980, 28.36337
866.8800, 20.88123
867.3620, 21.43271
867.8440, 23.54483
868.3260, 26.01666
868.8080, 27.77408
869.2910, 26.79367
869.7730, 22.99612
870.2550, 20.90036
870.7370, 22.99066
871.2190, 25.46674
871.7010, 26.35495
872.1830, 26.48254
872.6650, 27.98843
873.1480, 30.09033
873.6300, 29.70483
874.1120, 24.95685
874.5940, 20.42749
875.0760, 20.56171
875.5580, 22.12946
876.0400, 22.14352
876.5220, 19.99115
877.0050, 12.52289
877.4870, 6.4087003E-02
877.9690, 7.123962
878.4510, 3.014954
878.9330, 19.87390
879.4150, 20.41663
879.8970, 8.995941
880.3790, 5.749969
880.8610, 12.87494
881.3440, 14.03061
881.8260, 1.194794
882.3080, 20.32166
882.7900, 19.83252
883.2720, 0.1728210
883.7540, 14.30386
884.2360, 22.46759
884.7180, 24.42191
885.2000, 18.58987
885.6830, 10.31549
886.1650, 3.564575
886.6470, 0.9184880
887.1290, 2.291595
887.6110, 20.97424
888.0930, 28.70651
888.5750, 14.60141
889.0570, 2.775940
889.5390, 5.876190
890.0220, 17.67368
890.5040, 30.62476
890.9860, 45.95050
891.4680, 51.68188
891.9500, 38.03894
892.4320, 26.71964
892.9140, 24.89001
893.3960, 26.16107
893.8780, 25.45569
894.3610, 23.34082
894.8430, 22.56613
895.3250, 23.98489
895.8070, 26.24817
896.2890, 31.92288
896.7710, 35.20502
897.2530, 27.42065
897.7350, 16.43896
898.2180, 16.33005
898.7000, 27.78088
899.1820, 36.60648
899.6640, 32.57278
900.1460, 25.94482
900.6280, 25.84564
901.1100, 29.73224
901.5920, 36.79352
902.0750, 44.21664
902.5570, 43.46951
903.0390, 31.21381
903.5210, 17.10132
904.0030, 10.63858
904.4850, 10.28766
904.9670, 14.91953
905.4490, 22.92523
905.9320, 27.41873
906.4140, 27.13605
906.8960, 24.73026
907.3780, 21.55627
907.8600, 19.78610
908.3420, 25.56079
908.8240, 37.96442
909.3060, 45.55890
909.7880, 47.86523
910.2710, 42.82739
910.7530, 27.82855
911.2350, 14.99753
911.7170, 18.89548
912.1990, 35.81241
912.6810, 41.32318
913.1630, 32.33701
913.6450, 25.95837
914.1270, 26.09232
914.6100, 23.30927
915.0920, 9.586975
915.5740, 6.833252
916.0560, 11.19266
916.5380, 1.662750
917.0200, 6.737793
917.5020, 17.06030
917.9840, 21.10791
918.4660, 12.15863
918.9490, 1.586365
919.4310, 3.482269
919.9130, 3.641693
920.3950, 0.2991640
920.8770, 12.05432
921.3590, 18.48450
921.8410, 15.76978
922.3230, 10.73306
922.8050, 1.067474
923.2880, 6.112946
923.7700, 0.6399540
924.2520, 15.59537
924.7340, 26.92081
925.2160, 29.26437
925.6980, 26.46310
926.1800, 14.87198
926.6620, 3.363983
927.1450, 1.118896
927.6270, 1.007233
928.1090, 1.415253
928.5910, 3.271088
929.0730, 2.701691
929.5550, 4.645233
930.0370, 12.41449
930.5190, 17.79800
931.0020, 20.11676
931.4840, 14.32785
931.9660, 5.048218
932.4480, 6.629852
932.9300, 25.08978
933.4120, 43.41019
933.8940, 45.71149
934.3760, 41.28906
934.8590, 41.45389
935.3410, 44.46432
935.8230, 45.59979
936.3050, 46.09467
936.7870, 50.65933
937.2690, 63.28854
937.7510, 72.62280
938.2330, 58.86731
938.7150, 34.65060
939.1980, 26.29099
939.6800, 31.88782
940.1620, 39.34491
940.6440, 46.41794
941.1260, 56.31216
941.6080, 70.60696
942.0900, 85.22235
942.5720, 91.07037
943.0540, 89.98495
943.5370, 91.10165
944.0190, 94.76398
944.5010, 93.99622
944.9830, 86.10022
945.4650, 77.48425
945.9470, 75.27606
946.4290, 79.16760
946.9110, 90.58054
947.3930, 109.2628
947.8760, 119.1387
948.3580, 117.2054
948.8400, 113.4460
949.3220, 113.2713
949.8040, 115.3916
950.2860, 118.8607
950.7680, 123.4447
951.2500, 118.1525
951.7320, 100.7034
952.2150, 89.21332
952.6970, 88.32635
953.1790, 91.88763
953.6610, 96.43420
954.1430, 100.7422
954.6250, 101.6312
955.1070, 98.69620
955.5890, 94.83618
956.0720, 90.40717
956.5540, 83.49426
957.0360, 71.38235
957.5180, 60.95654
958.0000, 59.87277
958.4820, 65.32111
958.9640, 64.21457
959.4460, 50.69116
959.9290, 47.09488
960.4110, 61.93381
960.8930, 71.05789
961.3750, 61.29523
961.8570, 46.41769
962.3390, 41.31573
962.8210, 45.38565
963.3030, 50.84274
963.7860, 61.00015
964.2680, 66.44070
964.7500, 63.43359
965.2320, 59.84573
965.7140, 59.66116
966.1960, 60.56592
966.6780, 57.80704
967.1600, 50.96844
967.6420, 52.02719
968.1250, 72.59534
968.6070, 84.14581
969.0890, 78.21173
969.5710, 68.26703
970.0530, 59.88272
970.5350, 53.08286
971.0170, 47.38943
971.4990, 42.63144
971.9810, 40.52597
972.4640, 44.54089
972.9460, 46.70834
973.4280, 42.85696
973.9100, 37.96887
974.3920, 35.92392
974.8740, 35.84302
975.3560, 36.20294
975.8380, 37.12958
976.3200, 36.91489
976.8030, 34.95197
977.2850, 31.77887
977.7670, 24.88324
978.2490, 20.08258
978.7310, 23.64685
979.2130, 32.71097
979.6950, 39.27789
980.1770, 41.41760
980.6590, 43.09311
981.1420, 46.47479
981.6240, 48.26083
982.1060, 43.39920
982.5880, 38.04449
983.0700, 41.38376
983.5520, 50.03503
984.0340, 50.40326
984.5160, 36.47211
984.9990, 22.64233
985.4810, 9.296783
985.9630, 2.671875
986.4450, 14.10583
986.9270, 28.74405
987.4090, 26.24182
987.8910, 9.594818
988.3730, 2.453003
988.8560, 17.65387
989.3380, 28.06729
989.8200, 19.11102
990.3020, 6.392975
990.7840, 4.590790
991.2660, 10.57166
991.7480, 3.685181
992.2300, 12.92813
992.7130, 19.65851
993.1950, 5.022186
993.6770, 9.853912
994.1590, 18.88977
994.6410, 21.75974
995.1230, 15.84052
995.6050, 4.962860
996.0870, 8.522034
996.5690, 22.42227
997.0520, 27.72864
997.5340, 14.78729
998.0160, 4.080780
998.4980, 6.225891
998.9800, 13.26843
999.4620, 23.15045
999.9440, 31.69495
1000.426, 31.97903
1000.908, 24.09256
1001.391, 17.71970
1001.873, 16.47180
1002.355, 17.96567
1002.837, 25.15359
1003.319, 30.72104
1003.801, 26.37515
1004.283, 17.40176
1004.765, 12.57147
1005.247, 13.18198
1005.730, 14.77310
1006.212, 14.65085
1006.694, 16.38916
1007.176, 22.24619
1007.658, 30.10477
1008.140, 39.92004
1008.622, 49.69800
1009.104, 56.79361
1009.587, 60.68088
1010.069, 61.79980
1010.551, 52.25748
1011.033, 50.93481
1011.515, 76.53082
1011.997, 104.1306
1012.479, 110.8641
1012.961, 106.4202
1013.443, 109.1091
1013.926, 121.9218
1014.408, 135.8231
1014.890, 148.8222
1015.372, 160.4131
1015.854, 170.1267
1016.336, 178.5521
1016.818, 182.9133
1017.300, 187.7062
1017.783, 201.1910
1018.265, 224.2385
1018.747, 247.1400
1019.229, 274.8171
1019.711, 290.4370
1020.193, 278.3037
1020.675, 261.2044
1021.157, 256.6158
1021.639, 258.3192
1022.122, 255.1783
1022.604, 245.5683
1023.086, 232.8112
1023.568, 213.0148
1024.050, 196.9914
1024.532, 186.4038
1025.014, 182.6521
1025.496, 193.4303
1025.979, 208.3143
1026.461, 209.1323
1026.943, 194.6181
1027.425, 187.4498
1027.907, 205.0915
1028.389, 212.8281
1028.871, 192.7804
1029.353, 170.5378
1029.835, 159.9661
1030.318, 157.7673
1030.800, 161.1413
1031.282, 168.9241
1031.764, 170.4343
1032.246, 162.5457
1032.728, 152.5110
1033.210, 138.6192
1033.692, 126.0792
1034.175, 117.4072
1034.657, 111.7653
1035.139, 108.5371
1035.621, 107.5696
1036.103, 106.5876
1036.585, 104.2885
1037.067, 103.7664
1037.549, 108.7421
1038.031, 111.4527
1038.514, 105.2557
1038.996, 97.20895
1039.478, 97.02600
1039.960, 103.8740
1040.442, 105.9658
1040.924, 97.30157
1041.406, 94.92221
1041.888, 104.7207
1042.370, 112.6585
1042.853, 112.1078
1043.335, 108.4892
1043.817, 107.0486
1044.299, 107.7444
1044.781, 111.0443
1045.263, 122.0512
1045.745, 121.5950
1046.227, 101.6082
1046.710, 86.91507
1047.192, 87.74686
1047.674, 94.89554
1048.156, 100.0643
1048.638, 103.5173
1049.120, 106.7385
1049.602, 110.2807
1050.084, 115.3661
1050.567, 123.3537
1051.049, 126.6282
1051.531, 121.5340
1052.013, 112.9559
1052.495, 104.4638
1052.977, 97.78494
1053.459, 99.77399
1053.941, 110.9580
1054.423, 123.8600
1054.906, 139.5115
1055.388, 142.7910
1055.870, 128.2881
1056.352, 111.6721
1056.834, 104.6557
1057.316, 103.1371
1057.798, 97.14828
1058.280, 87.71680
1058.762, 91.31409
1059.245, 107.1071
1059.727, 115.9848
1060.209, 114.0812
1060.691, 112.3474
1061.173, 117.5802
1061.655, 126.2676
1062.137, 134.4919
1062.619, 141.4067
1063.102, 142.5593
1063.584, 139.3515
1064.066, 136.0844
1064.548, 134.5439
1065.030, 142.9611
1065.512, 165.5651
1065.994, 185.9488
1066.476, 182.0640
1066.958, 166.3829
1067.441, 159.8666
1067.923, 160.6788
1068.405, 167.6476
1068.887, 177.9261
1069.369, 183.3422
1069.851, 180.9739
1070.333, 175.1473
1070.815, 169.3083
1071.297, 161.8759
1071.780, 148.9670
1072.262, 134.8748
1072.744, 126.3162
1073.226, 121.4371
1073.708, 114.2146
1074.190, 103.6180
1074.672, 94.60202
1075.154, 89.93170
1075.637, 87.76294
1076.119, 92.33475
1076.601, 93.66406
1077.083, 78.45490
1077.565, 56.13022
1078.047, 39.97205
1078.529, 32.17941
1079.011, 32.08719
1079.493, 45.57547
1079.976, 52.46732
1080.458, 37.55664
1080.940, 23.47742
1081.422, 25.68066
1081.904, 32.88632
1082.386, 31.05542
1082.868, 22.56491
1083.350, 20.70084
1083.833, 31.06815
1084.315, 36.57590
1084.797, 34.40799
1085.279, 28.47449
1085.761, 14.57532
1086.243, 2.483551
1086.725, 1.941132
1087.207, 7.194061
1087.689, 3.778320
1088.172, 11.45212
1088.654, 14.55795
1089.136, 0.9022520
1089.618, 13.12073
1090.100, 18.14548
1090.582, 20.39728
1091.064, 22.00531
1091.546, 22.69055
1092.028, 21.84409
1092.511, 19.64377
1092.993, 18.22879
1093.475, 17.81625
1093.957, 15.62988
1094.439, 10.97968
1094.921, 8.772552
1095.403, 11.25266
1095.885, 14.71381
1096.368, 14.92313
1096.850, 13.95950
1097.332, 18.83298
1097.814, 27.98956
1098.296, 32.31815
1098.778, 31.76782
1099.260, 30.22052
1099.742, 28.75064
1100.224, 25.60315
1100.707, 18.82339
1101.189, 11.84415
1101.671, 10.46884
1102.153, 11.34750
1102.635, 7.399109
1103.117, 1.042542
1103.599, 2.188080
1104.081, 1.407806
1104.563, 2.820618
1105.046, 10.18430
1105.528, 14.73972
1106.010, 9.507599
1106.492, 2.445740
1106.974, 1.605469
1107.456, 2.352478
1107.938, 4.477783
1108.420, 13.48270
1108.903, 11.37936
1109.385, 4.381531
1109.867, 15.65628
1110.349, 12.44379
1110.831, 8.005859
1111.313, 7.154755
1111.795, 6.075806
1112.277, 1.607422
1112.760, 4.068359
1113.242, 8.058685
1113.724, 10.33667
1114.206, 12.22726
1114.688, 14.50146
1115.170, 15.03723
1115.652, 13.07898
1116.134, 10.63687
1116.616, 7.812347
1117.099, 5.795349
1117.581, 4.885895
1118.063, 6.105957
1118.545, 12.85953
1119.027, 25.97867
1119.509, 35.35434
1119.991, 40.75064
1120.473, 43.77344
1120.955, 44.69266
1121.438, 42.36938
1121.920, 35.23355
1122.402, 30.91418
1122.884, 42.09030
1123.366, 62.14392
1123.848, 66.50409
1124.330, 58.45468
1124.812, 51.89883
1125.295, 48.84076
1125.777, 52.37183
1126.259, 62.74469
1126.741, 71.67599
1127.223, 72.51471
1127.705, 69.93896
1128.187, 65.85541
1128.669, 64.87421
1129.151, 79.69931
1129.634, 99.78769
1130.116, 100.3843
1130.598, 84.90829
1131.080, 70.50143
1131.562, 83.80606
1132.044, 90.37567
1132.526, 90.56934
1133.008, 65.37656
1133.490, 72.95905
1133.973, 67.39774
1134.455, 61.30466
1134.937, 73.50082
1135.419, 51.99435
1135.901, 63.90109
1136.383, 60.02802
1136.865, 73.14813
1137.347, 82.30182
1137.830, 84.14325
1138.312, 82.02591
1138.794, 76.49765
1139.276, 68.25751
1139.758, 56.12555
1140.240, 42.74075
1140.722, 39.32410
1141.204, 47.97546
1141.687, 53.01389
1142.169, 54.31534
1142.651, 50.91577
1143.133, 41.92926
1143.615, 37.75269
1144.097, 45.69211
1144.579, 55.80753
1145.061, 51.99686
1145.543, 39.56326
1146.026, 35.21878
1146.508, 35.63690
1146.990, 26.10623
1147.472, 8.866058
1147.954, 5.655426
1148.436, 20.33063
1148.918, 31.82278
1149.400, 22.63184
1149.882, 9.298340
1150.365, 5.896027
1150.847, 7.524963
1151.329, 12.33377
1151.811, 17.73734
1152.293, 20.74167
1152.775, 21.13394
1153.257, 19.73807
1153.739, 16.37500
1154.222, 13.20181
1154.704, 9.773499
1155.186, 8.096954
1155.668, 11.67935
1156.150, 14.18863
1156.632, 9.216522
1157.114, 1.830353
1157.596, 0.5755310
1158.078, 1.794434
1158.561, 5.237030
1159.043, 10.30765
1159.525, 14.98532
1160.007, 20.16516
1160.489, 19.55121
1160.971, 10.08853
1161.453, 0.8117980
1161.935, 7.257874
1162.417, 9.383057
1162.900, 6.149353
1163.382, 1.029144
1163.864, 5.534271
1164.346, 7.954559
1164.828, 10.88089
1165.310, 14.56149
1165.792, 17.86914
1166.274, 20.08383
1166.757, 20.85962
1167.239, 18.47284
1167.721, 15.74777
1168.203, 18.56744
1168.685, 21.85120
1169.167, 18.24203
1169.649, 11.85468
1170.131, 9.552582
1170.614, 11.75848
1171.096, 16.50943
1171.578, 26.32733
1172.060, 28.63321
1172.542, 10.43610
1173.024, 1.744019
1173.506, 5.786163
1173.988, 15.81873
1174.470, 17.39014
1174.953, 15.49454
1175.435, 18.18393
1175.917, 25.09024
1176.399, 31.19455
1176.881, 37.35410
1177.363, 35.76163
1177.845, 24.86566
1178.327, 18.32962
1178.809, 20.80258
1179.292, 21.58243
1179.774, 11.50327
1180.256, 0.2543030
1180.738, 8.162659
1181.220, 24.95572
1181.702, 21.72369
1182.184, 8.522247
1182.666, 13.65118
1183.149, 32.80035
1183.631, 38.03452
1184.113, 21.58743
1184.595, 5.444641
1185.077, 1.674774
1185.559, 3.124603
1186.041, 10.40625
1186.523, 16.37665
1187.005, 15.10687
1187.488, 10.40399
1187.970, 5.844879
1188.452, 2.105743
1188.934, 0.3285220
1189.416, 0.8530580
1189.898, 1.886414
1190.380, 1.899689
1190.862, 7.045898
1191.344, 21.78613
1191.827, 30.86633
1192.309, 25.56873
1192.791, 15.96588
1193.273, 13.90201
1193.755, 16.23306
1194.237, 11.13312
1194.719, 1.524200
1195.201, 5.786102
1195.684, 20.48801
1196.166, 25.42395
1196.648, 18.40341
1197.130, 13.12085
1197.612, 16.34030
1198.094, 20.31454
1198.576, 16.67111
1199.058, 13.06238
1199.541, 18.78925
1200.023, 25.04480
1200.505, 20.41043
1200.987, 11.49564
1201.469, 11.05530
1201.951, 18.80249
1202.433, 22.24515
1202.915, 16.26425
1203.397, 13.80170
1203.880, 21.03882
1204.362, 20.77631
1204.844, 2.605896
1205.326, 8.992523
1205.808, 4.206268
1206.290, 23.81784
1206.772, 21.82019
1207.254, 4.039337
1207.736, 2.710022
1208.219, 0.4012450
1208.701, 4.559021
1209.183, 9.172607
1209.665, 16.25705
1210.147, 25.32440
1210.629, 29.16483
1211.111, 23.06247
1211.593, 17.05875
1212.076, 21.19690
1212.558, 28.73611
1213.040, 38.63113
1213.522, 44.16629
1214.004, 33.35901
1214.486, 15.14120
1214.968, 6.964630
1215.450, 9.950928
1215.932, 12.36829
1216.415, 10.39560
1216.897, 11.20636
1217.379, 13.69211
1217.861, 21.14041
1218.343, 42.51901
1218.825, 55.60211
1219.307, 43.47159
1219.789, 21.38031
1220.271, 11.13879
1220.754, 10.91229
1221.236, 15.69778
1221.718, 23.68561
1222.200, 25.30417
1222.682, 21.11368
1223.164, 15.67148
1223.646, 11.03256
1224.128, 8.778656
1224.611, 9.793732
1225.093, 13.42575
1225.575, 22.99350
1226.057, 30.29724
1226.539, 25.38904
1227.021, 19.54865
1227.503, 25.44983
1227.985, 35.98068
1228.468, 38.23843
1228.950, 32.43906
1229.432, 30.16730
1229.914, 34.87839
1230.396, 33.04340
1230.878, 21.16125
1231.360, 14.81253
1231.842, 18.59003
1232.324, 22.89600
1232.807, 22.74673
1233.289, 18.98087
1233.771, 11.26587
1234.253, 3.194855
1234.735, 4.176178
1235.217, 10.73630
1235.699, 16.94928
1236.181, 21.10233
1236.663, 19.60172
1237.146, 13.09756
1237.628, 5.295959
1238.110, 2.763245
1238.592, 7.075012
1239.074, 2.484131
1239.556, 0.4622800
1240.038, 0.7079770
1240.520, 2.458893
1241.003, 0.9296570
1241.485, 1.837158
1241.967, 3.395233
1242.449, 5.050629
1242.931, 11.06033
1243.413, 21.66803
1243.895, 32.09851
1244.377, 42.38385
1244.859, 43.89041
1245.342, 36.49323
1245.824, 35.49277
1246.306, 46.14828
1246.788, 56.15225
1247.270, 55.90906
1247.752, 51.63412
1248.234, 52.40607
1248.716, 50.22394
1249.198, 29.30203
1249.681, 6.556305
1250.163, 2.980194
1250.645, 14.44507
1251.127, 30.03873
1251.609, 48.19461
1252.091, 58.87744
1252.573, 61.70215
1253.055, 55.20346
1253.538, 32.19904
1254.020, 20.64218
1254.502, 31.33542
1254.984, 41.23395
1255.466, 34.79135
1255.948, 22.04919
1256.430, 26.08820
1256.912, 37.22516
1257.395, 33.54276
1257.877, 22.68448
1258.359, 25.44934
1258.841, 35.21573
1259.323, 29.71985
1259.805, 10.56796
1260.287, 2.660156
1260.769, 16.02719
1261.251, 27.93140
1261.734, 25.25092
1262.216, 26.09271
1262.698, 42.36749
1263.180, 54.23785
1263.662, 52.20975
1264.144, 42.56415
1264.626, 29.29208
1265.108, 15.67865
1265.590, 10.26636
1266.073, 12.29099
1266.555, 11.69394
1267.037, 9.520172
1267.519, 16.84735
1268.001, 31.94736
1268.483, 42.58264
1268.965, 44.80511
1269.447, 41.02676
1269.930, 31.59006
1270.412, 21.00308
1270.894, 7.038147
1271.376, 0.4291990
1271.858, 9.738007
1272.340, 9.170624
1272.822, 0.0000000E+00
##END=



