##NAMES=Gotzenite
##RRUFFID=R070449
##IDEAL CHEMISTRY=Ca_4_NaCa_2_Ti^4+^(Si_2_O_7_)_2_(OF)F_2_
##LOCALITY=Mont Saint-Hilaire, Rouville County, Quebec, Canada
##OWNER=RRUFF
##SOURCE=Michael Scott
##DESCRIPTION=Sprays of yellowish bladed crystals with green or colorless vesuvianite, white thick prismatic pectolite and brown phlogopite mica.
##STATUS=The identification of this mineral has been confirmed by single-crystal X-ray diffraction.
##URL=rruff.info/R070449
98.46130, 0.0000000E+00
98.94342, 0.3685000
99.42554, 0.5188900
99.90765, 0.6448670
100.3898, 1.238373
100.8719, 1.613464
101.3540, 1.375214
101.8361, 1.207123
102.3182, 0.4898380
102.8004, 0.1366580
103.2825, 0.2668150
103.7646, 0.2399900
104.2467, 0.2061160
104.7288, 0.6618040
105.2109, 0.1287230
105.6931, 1.786713
106.1752, 4.111755
106.6573, 6.528503
107.1394, 9.525818
107.6215, 11.83643
108.1036, 13.00525
108.5858, 13.34726
109.0679, 14.49069
109.5500, 17.64087
110.0321, 20.75110
110.5142, 22.71686
110.9963, 21.74396
111.4785, 21.66776
111.9606, 23.24445
112.4427, 26.40598
112.9248, 29.34439
113.4069, 31.71548
113.8890, 33.81729
114.3712, 35.92572
114.8533, 38.57382
115.3354, 40.78635
115.8175, 42.19608
116.2996, 42.78745
116.7817, 43.02420
117.2639, 42.75641
117.7460, 42.32382
118.2281, 42.15817
118.7102, 42.71729
119.1923, 43.37354
119.6744, 43.71771
120.1566, 43.65326
120.6387, 43.49554
121.1208, 43.40494
121.6029, 43.34415
122.0850, 43.24051
122.5671, 42.88092
123.0493, 42.51462
123.5314, 42.45975
124.0135, 42.88208
124.4956, 43.28754
124.9777, 43.05615
125.4598, 42.32904
125.9420, 41.66678
126.4241, 41.56375
126.9062, 41.74612
127.3883, 41.67661
127.8704, 41.09747
128.3525, 40.39746
128.8347, 40.30963
129.3168, 40.79642
129.7989, 41.16406
130.2810, 40.68732
130.7631, 39.57153
131.2452, 38.69177
131.7274, 38.39923
132.2095, 38.42963
132.6916, 38.08170
133.1737, 37.33990
133.6558, 36.35773
134.1379, 35.11243
134.6201, 33.61682
135.1022, 32.46844
135.5843, 31.98819
136.0664, 32.06439
136.5485, 31.80493
137.0306, 31.12280
137.5128, 30.31268
137.9949, 29.65829
138.4770, 29.12292
138.9591, 28.94180
139.4412, 29.43073
139.9233, 30.68430
140.4055, 30.96106
140.8876, 29.87497
141.3697, 28.18600
141.8518, 27.20392
142.3339, 27.23624
142.8160, 27.27069
143.2982, 26.91364
143.7803, 25.98984
144.2624, 25.28693
144.7445, 24.80637
145.2266, 24.52954
145.7087, 24.37106
146.1909, 24.53378
146.6730, 24.58252
147.1551, 24.38303
147.6372, 23.84415
148.1193, 23.22064
148.6014, 22.30933
149.0836, 21.29138
149.5657, 20.79016
150.0478, 21.52698
150.5299, 22.20203
151.0120, 22.25171
151.4941, 20.72601
151.9763, 19.67926
152.4584, 19.37311
152.9405, 19.66016
153.4226, 19.80865
153.9047, 19.80389
154.3868, 19.61407
154.8690, 19.22076
155.3511, 18.64337
155.8332, 17.83600
156.3153, 16.41064
156.7974, 14.54547
157.2795, 13.34460
157.7617, 13.80450
158.2438, 14.62354
158.7259, 14.86383
159.2080, 13.71387
159.6901, 12.54285
160.1722, 11.65295
160.6544, 11.06513
161.1365, 10.88116
161.6186, 11.67493
162.1007, 12.62256
162.5828, 13.00610
163.0649, 11.82684
163.5471, 10.71863
164.0292, 10.66901
164.5113, 11.70746
164.9934, 12.48029
165.4755, 12.16510
165.9576, 11.22699
166.4398, 10.24341
166.9219, 9.275757
167.4040, 8.435547
167.8861, 7.796143
168.3682, 7.359802
168.8503, 7.102173
169.3325, 7.158081
169.8146, 7.372559
170.2967, 7.485168
170.7788, 7.587158
171.2609, 7.439392
171.7430, 6.620483
172.2252, 5.018860
172.7073, 3.564880
173.1894, 3.159302
173.6715, 3.477173
174.1536, 3.777283
174.6357, 3.544800
175.1179, 3.172913
175.6000, 3.235596
176.0821, 3.852844
176.5642, 4.457886
177.0463, 4.546387
177.5284, 4.177307
178.0106, 3.528564
178.4927, 2.402039
178.9748, 1.125061
179.4569, 0.2851560
179.9390, 2.3193000E-02
180.4211, 4.2725001E-02
180.9033, 5.8166999E-02
181.3854, 0.2514040
181.8675, 0.3755490
182.3496, 0.1583860
182.8317, 0.1852420
183.3138, 2.1970000E-03
183.7960, 0.9470210
184.2781, 1.966248
184.7602, 1.851990
185.2423, 0.7379150
185.7244, 0.2640990
186.2065, 0.2907710
186.6887, 0.3818970
187.1708, 0.7109380
187.6529, 0.5267330
188.1350, 6.5734997E-02
188.6171, 0.4025880
189.0992, 0.8729250
189.5814, 1.101257
190.0635, 0.7711790
190.5456, 2.8870000E-02
191.0277, 0.6322630
191.5098, 0.9932250
191.9919, 1.098938
192.4741, 0.7409670
192.9562, 0.1083370
193.4383, 0.8259280
193.9204, 0.9037480
194.4025, 0.3810420
194.8846, 5.5481002E-02
195.3668, 0.2566530
195.8489, 0.4154050
196.3310, 1.161438
196.8131, 2.578552
197.2952, 3.691284
197.7773, 3.613403
198.2595, 2.297180
198.7416, 1.675903
199.2237, 2.167419
199.7058, 3.341675
200.1879, 3.939087
200.6700, 3.848694
201.1522, 3.747437
201.6343, 4.239807
202.1164, 5.428650
202.5985, 6.149231
203.0806, 6.116028
203.5627, 5.594360
204.0449, 5.487061
204.5270, 5.926453
205.0091, 6.332520
205.4912, 6.108032
205.9733, 5.026428
206.4554, 4.718567
206.9376, 5.600037
207.4197, 7.319519
207.9018, 8.618835
208.3839, 9.458008
208.8660, 9.991516
209.3481, 10.21997
209.8303, 10.03394
210.3124, 10.10742
210.7945, 10.62274
211.2766, 11.44232
211.7587, 11.99786
212.2408, 12.20184
212.7230, 12.33795
213.2051, 12.62543
213.6872, 13.14624
214.1693, 13.47754
214.6514, 13.39667
215.1335, 13.07733
215.6157, 13.46332
216.0978, 14.97327
216.5799, 16.39276
217.0620, 16.85516
217.5441, 15.97241
218.0262, 15.22095
218.5084, 14.70447
218.9905, 14.42371
219.4726, 14.47192
219.9547, 15.18536
220.4368, 15.68347
220.9189, 15.29742
221.4011, 13.58380
221.8832, 12.15680
222.3653, 11.02252
222.8474, 10.27673
223.3295, 10.53656
223.8116, 12.66327
224.2938, 14.42938
224.7759, 14.21033
225.2580, 10.66229
225.7401, 8.437927
226.2222, 8.344910
226.7043, 9.813416
227.1865, 10.46240
227.6686, 9.942444
228.1507, 9.134033
228.6328, 8.389160
229.1149, 7.802490
229.5970, 7.227722
230.0792, 6.687927
230.5613, 6.158936
231.0434, 5.496643
231.5255, 4.484375
232.0076, 3.681030
232.4897, 3.516968
232.9719, 4.626099
233.4540, 4.915710
233.9361, 3.865417
234.4182, 1.977905
234.9003, 1.065979
235.3824, 1.660706
235.8646, 2.495544
236.3467, 2.874451
236.8288, 2.299683
237.3109, 2.369751
237.7930, 3.464966
238.2751, 5.170227
238.7573, 6.112061
239.2394, 5.996033
239.7215, 5.526550
240.2036, 4.982544
240.6857, 4.207214
241.1678, 3.631226
241.6500, 3.324341
242.1321, 3.212830
242.6142, 3.079712
243.0963, 2.833618
243.5784, 2.599243
244.0605, 2.439941
244.5427, 2.359985
245.0248, 2.434814
245.5069, 2.821899
245.9890, 3.352600
246.4711, 3.598633
246.9532, 3.445435
247.4354, 3.130005
247.9175, 2.727844
248.3996, 2.141846
248.8817, 1.888062
249.3638, 2.150818
249.8459, 2.603516
250.3281, 2.651794
250.8102, 2.132019
251.2923, 1.535095
251.7744, 1.047119
252.2565, 0.7301030
252.7386, 0.2988890
253.2208, 0.4710690
253.7029, 1.193665
254.1850, 1.201538
254.6671, 0.1319580
255.1492, 0.9351200
255.6313, 1.650269
256.1135, 1.950317
256.5956, 2.242920
257.0777, 2.542114
257.5598, 2.789307
258.0419, 2.912781
258.5240, 2.908752
259.0062, 2.746399
259.4883, 2.350037
259.9704, 1.690552
260.4525, 1.207214
260.9346, 0.8952640
261.4167, 0.7691040
261.8989, 0.8902590
262.3810, 1.362915
262.8631, 1.832703
263.3452, 2.289612
263.8273, 2.748474
264.3094, 2.760071
264.7916, 2.098755
265.2737, 1.389648
265.7558, 1.338623
266.2379, 2.233521
266.7200, 2.846069
267.2021, 2.867126
267.6843, 2.363708
268.1664, 2.014893
268.6485, 1.837341
269.1306, 1.765015
269.6127, 1.684937
270.0948, 1.512756
270.5770, 1.667297
271.0591, 2.242676
271.5412, 3.173767
272.0233, 4.358032
272.5054, 5.973755
272.9875, 7.256409
273.4697, 7.472961
273.9518, 6.423950
274.4339, 5.650269
274.9160, 5.408569
275.3981, 5.515869
275.8802, 5.388733
276.3624, 4.960999
276.8445, 4.568665
277.3266, 4.480408
277.8087, 4.728577
278.2908, 4.836060
278.7729, 4.727173
279.2551, 4.511597
279.7372, 4.495544
280.2193, 4.736694
280.7014, 4.821289
281.1835, 2.386108
281.6656, 4.067200
282.1478, 4.866089
282.6299, 4.830017
283.1120, 1.457947
283.5941, 2.394531
284.0762, 1.604736
284.5583, 0.7445070
285.0405, 2.288208
285.5226, 0.5971680
286.0047, 0.9086300
286.4868, 2.074280
286.9689, 3.603638
287.4510, 3.690857
287.9332, 2.407959
288.4153, 1.276123
288.8974, 1.033142
289.3795, 1.423767
289.8616, 1.472778
290.3438, 1.141113
290.8259, 0.7280880
291.3080, 0.5972900
291.7901, 0.6962280
292.2722, 0.7160640
292.7543, 0.4855350
293.2365, 0.1395870
293.7186, 4.7363002E-02
294.2007, 7.7271000E-02
294.6828, 9.8999001E-02
295.1649, 0.8472900
295.6470, 1.893555
296.1292, 2.315613
296.6113, 1.646240
297.0934, 0.4793700
297.5755, 0.2683720
298.0576, 0.6253660
298.5397, 0.8948360
299.0219, 1.418518
299.5040, 2.005005
299.9861, 2.197205
300.4682, 1.787292
300.9503, 1.187256
301.4324, 0.7875370
301.9146, 0.5891110
302.3967, 0.5817260
302.8788, 0.9923710
303.3609, 1.518677
303.8430, 1.676086
304.3251, 1.326904
304.8073, 0.8844600
305.2894, 0.8099370
305.7715, 0.9528200
306.2536, 0.9279790
306.7357, 0.4088130
307.2178, 0.2911990
307.7000, 0.8168330
308.1821, 1.112305
308.6642, 1.415161
309.1463, 1.775574
309.6284, 2.263672
310.1105, 3.007629
310.5927, 4.615845
311.0748, 6.065308
311.5569, 6.388611
312.0390, 5.605347
312.5211, 5.084167
313.0032, 6.206726
313.4854, 7.720825
313.9675, 8.280273
314.4496, 6.207703
314.9317, 4.208618
315.4138, 3.717957
315.8959, 4.539856
316.3781, 5.410645
316.8602, 5.767700
317.3423, 5.975281
317.8244, 6.329224
318.3065, 7.278076
318.7886, 7.837341
319.2708, 7.137939
319.7529, 5.718262
320.2350, 5.095459
320.7171, 6.606750
321.1992, 8.348633
321.6813, 9.318420
322.1635, 8.970215
322.6456, 8.780579
323.1277, 9.348450
323.6098, 10.18958
324.0919, 10.50085
324.5740, 9.580139
325.0562, 8.621765
325.5383, 7.893677
326.0204, 7.333496
326.5025, 7.328125
326.9846, 8.270691
327.4667, 9.639099
327.9489, 10.90051
328.4310, 12.51929
328.9131, 13.52533
329.3952, 13.60632
329.8773, 12.74231
330.3594, 12.00702
330.8416, 11.16083
331.3237, 10.65417
331.8058, 10.87341
332.2879, 12.51947
332.7700, 13.67487
333.2521, 13.95581
333.7343, 13.59106
334.2164, 13.75122
334.6985, 14.75488
335.1806, 15.76227
335.6627, 16.25641
336.1448, 15.93738
336.6270, 16.03931
337.1091, 16.81238
337.5912, 17.84912
338.0733, 18.22736
338.5554, 17.69885
339.0375, 17.31537
339.5197, 17.68652
340.0018, 18.88770
340.4839, 19.21637
340.9660, 18.36139
341.4481, 17.28656
341.9302, 17.38177
342.4124, 18.74426
342.8945, 19.95093
343.3766, 20.51978
343.8587, 20.64355
344.3408, 20.70947
344.8229, 20.70544
345.3051, 20.69708
345.7872, 20.74469
346.2693, 20.84052
346.7514, 20.94171
347.2335, 21.02502
347.7156, 21.13208
348.1978, 21.37555
348.6799, 21.74774
349.1620, 22.08881
349.6441, 22.23486
350.1262, 22.28833
350.6083, 22.54541
351.0905, 23.11646
351.5726, 23.62030
352.0547, 23.30933
352.5368, 22.51801
353.0189, 22.24420
353.5010, 23.44916
353.9832, 25.18170
354.4653, 26.25055
354.9474, 26.58026
355.4295, 26.71576
355.9116, 26.99133
356.3937, 27.40973
356.8759, 27.94208
357.3580, 28.54907
357.8401, 29.31940
358.3222, 30.58496
358.8043, 32.24127
359.2864, 33.48260
359.7686, 33.31995
360.2507, 32.83679
360.7328, 32.97644
361.2149, 34.31439
361.6970, 35.69220
362.1791, 36.72174
362.6613, 37.47247
363.1434, 38.07764
363.6255, 38.20679
364.1076, 38.47729
364.5897, 39.28992
365.0718, 40.86145
365.5540, 42.27698
366.0361, 43.36359
366.5182, 44.19922
367.0003, 44.87885
367.4824, 45.42010
367.9645, 45.80756
368.4467, 45.86359
368.9288, 45.55585
369.4109, 45.83759
369.8930, 47.29669
370.3751, 48.91650
370.8572, 50.01471
371.3394, 50.26312
371.8215, 50.54834
372.3036, 51.03058
372.7857, 51.59009
373.2678, 51.76410
373.7499, 51.30237
374.2321, 50.91211
374.7142, 50.96857
375.1963, 51.59784
375.6784, 51.83075
376.1605, 51.58026
376.6426, 51.23560
377.1248, 51.27863
377.6069, 51.69440
378.0890, 51.92236
378.5711, 51.84009
379.0532, 51.50592
379.5353, 51.04370
380.0175, 50.44531
380.4996, 49.75543
380.9817, 48.96857
381.4638, 48.07971
381.9459, 47.16064
382.4280, 46.22003
382.9102, 45.29517
383.3923, 44.59961
383.8744, 44.07507
384.3565, 43.21027
384.8386, 41.31689
385.3207, 38.94708
385.8029, 37.29608
386.2850, 36.54340
386.7671, 36.05963
387.2492, 35.20862
387.7313, 34.08441
388.2134, 32.97644
388.6956, 32.24384
389.1777, 31.51007
389.6598, 30.30371
390.1419, 28.66956
390.6240, 27.13263
391.1061, 26.08801
391.5883, 25.26288
392.0704, 24.39166
392.5525, 23.59247
393.0346, 22.49176
393.5167, 20.45441
393.9988, 17.92023
394.4810, 16.09552
394.9631, 15.85559
395.4452, 16.07434
395.9273, 16.22888
396.4094, 16.25244
396.8915, 16.22382
397.3737, 16.37799
397.8558, 16.40393
398.3379, 15.91931
398.8200, 14.32385
399.3021, 12.78290
399.7842, 11.19904
400.2664, 9.569946
400.7485, 9.218628
401.2306, 11.23785
401.7127, 13.45056
402.1948, 14.42310
402.6769, 13.48608
403.1591, 12.74872
403.6412, 12.41986
404.1233, 12.31329
404.6054, 11.89148
405.0875, 10.97064
405.5696, 10.29626
406.0518, 10.33685
406.5339, 11.13263
407.0160, 11.44434
407.4981, 11.26129
407.9802, 10.65277
408.4623, 9.443237
408.9445, 7.657959
409.4266, 6.353394
409.9087, 5.864197
410.3908, 5.994629
410.8729, 6.409485
411.3550, 7.109985
411.8372, 7.818298
412.3193, 8.478760
412.8014, 8.997620
413.2835, 9.036255
413.7656, 8.419922
414.2477, 7.836121
414.7299, 8.135986
415.2120, 9.042480
415.6941, 9.883240
416.1762, 10.16730
416.6583, 10.34528
417.1404, 10.78040
417.6226, 11.47534
418.1047, 12.34509
418.5868, 13.78442
419.0689, 15.15698
419.5510, 15.86542
420.0331, 15.43329
420.5153, 14.71466
420.9974, 13.99121
421.4795, 13.22748
421.9616, 12.34430
422.4437, 11.31586
422.9258, 10.18335
423.4080, 8.932129
423.8901, 7.494019
424.3722, 6.216003
424.8543, 4.946167
425.3364, 3.961487
425.8185, 3.571045
426.3007, 4.464294
426.7828, 4.952515
427.2649, 4.665405
427.7470, 3.731934
428.2291, 2.970276
428.7112, 2.358337
429.1934, 1.948608
429.6755, 1.876465
430.1576, 2.287720
430.6397, 2.152466
431.1218, 1.233215
431.6039, 8.5998997E-02
432.0861, 0.2172240
432.5682, 0.4064330
433.0503, 0.5382690
433.5324, 0.7102660
434.0145, 2.744690
434.4966, 3.274109
434.9788, 2.249939
435.4609, 1.009460
435.9430, 0.6539920
436.4251, 0.9486690
436.9072, 1.294189
437.3893, 1.647156
437.8715, 1.841248
438.3536, 1.601318
438.8357, 1.036804
439.3178, 0.4526980
439.7999, 9.3018003E-02
440.2820, 0.5150150
440.7642, 0.7319950
441.2463, 0.7348630
441.7284, 0.5244750
442.2105, 9.9547997E-02
442.6926, 0.8582760
443.1747, 1.490601
443.6569, 2.077942
444.1390, 2.363953
444.6211, 2.074097
445.1032, 1.397217
445.5853, 0.8973390
446.0674, 1.094421
446.5496, 1.098145
447.0317, 0.4502560
447.5138, 1.225098
447.9959, 2.428284
448.4780, 3.269836
448.9601, 3.608154
449.4423, 3.185486
449.9244, 1.335449
450.4065, 0.1961060
450.8886, 0.3580320
451.3707, 1.455811
451.8528, 1.892029
452.3350, 1.475952
452.8171, 0.9552610
453.2992, 0.6340330
453.7813, 0.5017700
454.2634, 0.8363650
454.7455, 1.747009
455.2277, 2.748962
455.7098, 3.032288
456.1919, 2.732910
456.6740, 2.927917
457.1561, 4.293213
457.6382, 6.063843
458.1204, 6.768555
458.6025, 6.541199
459.0846, 6.260254
459.5667, 6.730164
460.0488, 7.434448
460.5309, 7.689758
461.0131, 7.362488
461.4952, 6.793396
461.9773, 5.886963
462.4594, 4.967163
462.9415, 4.501282
463.4236, 4.941895
463.9058, 5.614380
464.3879, 6.492310
464.8700, 7.471680
465.3521, 7.874878
465.8342, 6.872070
466.3163, 5.731750
466.7985, 5.170166
467.2806, 5.602966
467.7627, 5.953186
468.2448, 6.197998
468.7269, 6.341858
469.2090, 6.401672
469.6912, 6.394653
470.1733, 6.274170
470.6554, 6.040100
471.1375, 5.686218
471.6196, 5.109558
472.1017, 4.211792
472.5839, 3.357483
473.0660, 2.783875
473.5481, 2.495422
474.0302, 2.381226
474.5123, 2.500000
474.9944, 2.633057
475.4766, 2.436401
475.9587, 1.955078
476.4408, 1.420898
476.9229, 0.8356930
477.4050, 0.3281250
477.8871, 0.1823730
478.3693, 0.3712160
478.8514, 0.5897830
479.3335, 0.5925290
479.8156, 0.5213620
480.2977, 0.5310670
480.7798, 0.6391600
481.2620, 0.8391720
481.7441, 1.078735
482.2262, 1.404419
482.7083, 1.887878
483.1904, 2.793274
483.6725, 3.606995
484.1547, 4.067383
484.6368, 4.188110
485.1189, 4.350037
485.6010, 4.535767
486.0831, 4.822815
486.5652, 5.270996
487.0474, 6.092224
487.5295, 6.612183
488.0116, 6.721436
488.4937, 6.599609
488.9758, 6.480896
489.4579, 6.324829
489.9401, 6.199158
490.4222, 6.134766
490.9043, 6.138367
491.3864, 6.470398
491.8685, 7.178589
492.3506, 7.560852
492.8328, 6.956970
493.3149, 5.622620
493.7970, 4.582336
494.2791, 3.883972
494.7612, 3.437561
495.2433, 3.221802
495.7255, 3.196045
496.2076, 3.253784
496.6897, 3.400146
497.1718, 3.610046
497.6539, 3.799438
498.1360, 3.988403
498.6182, 4.325256
499.1003, 5.395386
499.5824, 6.298096
500.0645, 6.211426
500.5466, 4.773987
501.0287, 3.490906
501.5109, 2.726624
501.9930, 2.367310
502.4751, 2.322815
502.9572, 3.077271
503.4393, 3.569580
503.9214, 3.461487
504.4036, 2.959656
504.8857, 2.826965
505.3678, 3.303589
505.8499, 3.683105
506.3320, 3.671509
506.8141, 3.244873
507.2963, 2.737976
507.7784, 2.017883
508.2605, 1.582031
508.7426, 2.298035
509.2247, 4.045654
509.7068, 4.857239
510.1890, 4.074402
510.6711, 2.743164
511.1532, 2.720093
511.6353, 3.767517
512.1174, 4.747314
512.5995, 4.852173
513.0817, 4.682617
513.5638, 5.090027
514.0459, 6.055786
514.5280, 6.820129
515.0101, 6.743225
515.4922, 6.327881
515.9744, 6.092468
516.4565, 6.448853
516.9386, 6.413208
517.4207, 4.934753
517.9028, 3.012512
518.3849, 2.279846
518.8671, 4.406250
519.3492, 6.239563
519.8313, 7.042908
520.3134, 6.870239
520.7955, 6.663635
521.2776, 6.390808
521.7598, 6.116516
522.2419, 5.720642
522.7240, 4.992615
523.2061, 5.449829
523.6882, 7.577820
524.1703, 9.904907
524.6525, 10.13501
525.1346, 8.432861
525.6167, 7.395508
526.0988, 7.992188
526.5809, 9.360779
527.0630, 9.970642
527.5452, 9.923401
528.0273, 9.795105
528.5094, 9.905518
528.9915, 10.14008
529.4736, 10.33594
529.9557, 10.47534
530.4379, 10.75836
530.9200, 11.49921
531.4021, 12.34363
531.8842, 12.93909
532.3663, 13.02216
532.8484, 13.07971
533.3306, 13.32550
533.8127, 13.60748
534.2948, 13.59381
534.7769, 12.69757
535.2590, 12.16815
535.7411, 12.49695
536.2233, 13.64606
536.7054, 14.10675
537.1875, 13.55469
537.6696, 12.96271
538.1517, 13.03687
538.6339, 13.84534
539.1160, 14.50018
539.5981, 14.97473
540.0802, 15.24323
540.5623, 15.08380
541.0444, 14.61438
541.5266, 14.53802
542.0087, 15.27570
542.4908, 16.26910
542.9729, 16.62158
543.4550, 16.47913
543.9371, 16.45905
544.4193, 17.16321
544.9014, 17.96265
545.3835, 18.25952
545.8656, 17.97363
546.3477, 17.75201
546.8298, 17.69867
547.3120, 17.91003
547.7941, 18.48071
548.2762, 20.23865
548.7583, 21.22693
549.2404, 20.91205
549.7225, 19.85889
550.2047, 18.99738
550.6868, 18.36670
551.1689, 17.85907
551.6510, 17.51562
552.1331, 17.29175
552.6152, 16.90289
553.0974, 16.36517
553.5795, 15.63745
554.0616, 14.55804
554.5437, 13.23248
555.0258, 12.29590
555.5079, 11.83661
555.9901, 11.44727
556.4722, 10.42078
556.9543, 9.174866
557.4364, 8.696838
557.9185, 9.900024
558.4006, 10.92914
558.8828, 9.755554
559.3649, 7.259766
559.8470, 5.473022
560.3291, 5.698608
560.8112, 6.345093
561.2933, 6.710754
561.7755, 6.773560
562.2576, 7.027100
562.7397, 8.004700
563.2218, 8.705261
563.7039, 8.590576
564.1860, 7.337036
564.6682, 6.201782
565.1503, 5.174988
565.6324, 4.252808
566.1145, 3.357971
566.5966, 2.482849
567.0787, 2.230896
567.5609, 2.920410
568.0430, 4.077148
568.5251, 4.608704
569.0072, 4.591675
569.4893, 4.634949
569.9714, 5.243713
570.4536, 6.077271
570.9357, 6.508972
571.4178, 6.545654
571.8999, 6.804626
572.3820, 8.324890
572.8641, 9.893616
573.3463, 10.20349
573.8284, 8.328186
574.3105, 7.129272
574.7926, 7.851563
575.2747, 9.567993
575.7568, 11.11920
576.2390, 12.63751
576.7211, 13.66046
577.2032, 13.86322
577.6853, 13.55920
578.1674, 13.79309
578.6495, 14.63519
579.1317, 15.83807
579.6138, 17.49835
580.0959, 19.50702
580.5780, 20.90558
581.0601, 21.68573
581.5422, 22.15735
582.0244, 22.56781
582.5065, 22.88245
582.9886, 22.75879
583.4707, 21.96289
583.9528, 21.79828
584.4349, 24.03485
584.9171, 27.50488
585.3992, 30.48383
585.8813, 32.83136
586.3634, 34.06110
586.8455, 33.21106
587.3276, 31.01062
587.8098, 29.48297
588.2919, 29.28204
588.7740, 29.53284
589.2561, 30.00787
589.7382, 30.70392
590.2203, 31.72028
590.7025, 33.53296
591.1846, 34.78510
591.6667, 34.19647
592.1488, 31.56207
592.6309, 30.20355
593.1130, 30.41534
593.5952, 31.22491
594.0773, 31.80853
594.5594, 32.06561
595.0415, 31.48431
595.5236, 29.64673
596.0057, 27.50397
596.4879, 26.12628
596.9700, 25.27966
597.4521, 24.42450
597.9342, 22.96454
598.4163, 21.73022
598.8984, 21.41199
599.3806, 21.88983
599.8627, 22.00476
600.3448, 21.04462
600.8269, 20.03693
601.3090, 19.59399
601.7911, 20.08850
602.2733, 19.58862
602.7554, 17.72687
603.2375, 15.38635
603.7196, 13.21320
604.2017, 11.12598
604.6838, 10.05011
605.1660, 10.32422
605.6481, 11.10602
606.1302, 11.03009
606.6123, 10.24896
607.0944, 9.453674
607.5765, 8.846802
608.0587, 8.397827
608.5408, 8.215027
609.0229, 8.187866
609.5050, 7.927795
609.9871, 6.907410
610.4692, 5.844360
610.9514, 5.096497
611.4335, 4.678589
611.9156, 4.642151
612.3977, 5.581848
612.8798, 6.450500
613.3619, 6.625305
613.8441, 5.870422
614.3262, 4.953918
614.8083, 3.750671
615.2904, 2.562683
615.7725, 1.773560
616.2546, 1.399536
616.7368, 1.343262
617.2189, 1.760620
617.7010, 2.203430
618.1831, 1.682739
618.6652, 0.4224240
619.1473, 0.6918950
619.6295, 1.260986
620.1116, 1.446167
620.5937, 1.203735
621.0758, 0.6467900
621.5579, 0.3171390
622.0400, 0.8706670
622.5222, 1.438599
623.0043, 1.397278
623.4864, 0.5067140
623.9685, 9.5092997E-02
624.4506, 0.7211300
624.9327, 1.509583
625.4149, 1.907593
625.8970, 1.846863
626.3791, 1.553467
626.8612, 0.9213870
627.3433, 0.2536620
627.8254, 8.7769002E-02
628.3076, 0.3893430
628.7897, 0.4125370
629.2718, 1.0681000E-02
629.7539, 0.6873780
630.2360, 1.793518
630.7181, 3.111755
631.2003, 3.819824
631.6824, 2.996155
632.1645, 1.884827
632.6466, 1.323669
633.1287, 1.364868
633.6108, 1.637756
634.0930, 2.241882
634.5751, 2.940125
635.0572, 3.648193
635.5393, 4.341492
636.0214, 5.063416
636.5035, 5.812988
636.9857, 6.684143
637.4678, 7.726929
637.9499, 9.128235
638.4320, 10.18475
638.9141, 10.77527
639.3962, 11.13263
639.8784, 11.02429
640.3605, 10.69769
640.8426, 11.17010
641.3247, 13.23071
641.8068, 15.42072
642.2889, 16.05780
642.7711, 15.71893
643.2532, 15.49060
643.7353, 15.59503
644.2174, 15.99768
644.6995, 16.88550
645.1816, 18.20404
645.6638, 19.38312
646.1459, 20.01276
646.6280, 20.98999
647.1101, 22.77649
647.5922, 25.40656
648.0743, 26.72748
648.5565, 26.22205
649.0386, 25.71906
649.5207, 26.83765
650.0028, 29.40106
650.4849, 31.43225
650.9670, 32.63885
651.4492, 33.69720
651.9313, 35.34393
652.4134, 37.39136
652.8955, 39.29816
653.3776, 40.93665
653.8597, 42.37012
654.3419, 43.81232
654.8240, 45.10156
655.3061, 45.93842
655.7882, 45.34546
656.2703, 45.31421
656.7524, 46.52692
657.2346, 48.61639
657.7167, 50.61200
658.1988, 52.77551
658.6809, 54.40540
659.1630, 55.08405
659.6451, 55.01160
660.1273, 55.33221
660.6094, 56.04376
661.0915, 57.01196
661.5736, 58.48413
662.0557, 60.04462
662.5378, 60.64642
663.0200, 60.25085
663.5021, 60.09851
663.9842, 62.04492
664.4663, 64.08777
664.9484, 64.03418
665.4305, 60.52002
665.9127, 57.86731
666.3948, 57.94623
666.8769, 58.95959
667.3590, 59.10498
667.8411, 58.23090
668.3232, 56.80176
668.8054, 54.82422
669.2875, 52.36212
669.7696, 49.27289
670.2517, 45.53223
670.7338, 42.35663
671.2159, 40.26831
671.6981, 38.74896
672.1802, 36.87433
672.6623, 34.79822
673.1444, 33.01593
673.6265, 32.52271
674.1086, 31.82843
674.5908, 29.44019
675.0729, 25.66260
675.5550, 22.45624
676.0371, 20.49957
676.5192, 19.19574
677.0013, 18.40662
677.4835, 18.21179
677.9656, 17.65277
678.4477, 16.67542
678.9298, 15.53137
679.4119, 14.25171
679.8940, 12.76544
680.3762, 11.70227
680.8583, 11.16211
681.3404, 10.76984
681.8225, 9.970093
682.3046, 8.901428
682.7867, 7.977722
683.2689, 7.326233
683.7510, 6.837036
684.2331, 6.570923
684.7152, 6.398438
685.1973, 6.121765
685.6794, 5.626099
686.1616, 3.317444
686.6437, 4.153992
687.1258, 4.509216
687.6079, 4.408020
688.0900, 2.418030
688.5721, 2.895081
689.0543, 2.391357
689.5364, 1.837708
690.0185, 2.639832
690.5006, 0.9061890
690.9827, 1.673401
691.4648, 1.441956
691.9470, 1.672668
692.4291, 0.9183350
692.9112, 0.4730220
693.3933, 1.020874
693.8754, 1.023315
694.3575, 0.1659550
694.8397, 0.4430540
695.3218, 1.303833
695.8039, 1.275452
696.2860, 0.4832760
696.7681, 1.296448
697.2502, 1.010559
697.7324, 1.147339
698.2145, 1.2820000E-03
698.6966, 0.9370730
699.1787, 1.268494
699.6608, 0.3136600
700.1429, 1.544250
700.6251, 2.313232
701.1072, 1.629944
701.5893, 0.4827270
702.0714, 0.6235960
702.5535, 1.406067
703.0356, 1.357788
703.5178, 0.3839720
703.9999, 1.749329
704.4820, 1.751526
704.9641, 0.9562380
705.4462, 0.2011110
705.9283, 0.8020630
706.4105, 1.159790
706.8926, 0.3952030
707.3747, 0.8556520
707.8568, 0.8310550
708.3389, 0.6138920
708.8210, 1.434021
709.3032, 0.6458130
709.7853, 0.9044800
710.2674, 1.482361
710.7495, 1.275940
711.2316, 1.083252
711.7137, 1.462463
712.1959, 1.920349
712.6780, 2.159058
713.1601, 2.169739
713.6422, 1.979431
714.1243, 1.583984
714.6064, 0.9783330
715.0886, 2.6611000E-02
715.5707, 1.476685
716.0528, 1.986633
716.5349, 1.278992
717.0170, 0.3713380
717.4991, 0.1080320
717.9813, 0.2020870
718.4634, 0.2684330
718.9455, 0.3188480
719.4276, 0.2436520
719.9097, 0.1577150
720.3918, 0.6975100
720.8740, 1.112366
721.3561, 1.365417
721.8382, 1.521179
722.3203, 1.369995
722.8024, 1.271973
723.2845, 1.589355
723.7667, 3.082825
724.2488, 3.631226
724.7309, 2.754700
725.2130, 1.443176
725.6951, 0.8597410
726.1772, 1.045959
726.6594, 1.321472
727.1415, 1.587708
727.6236, 1.873413
728.1057, 2.526978
728.5878, 3.239624
729.0699, 3.134705
729.5521, 1.309692
730.0342, 0.4138790
730.5163, 0.6709590
730.9984, 4.6999999E-03
731.4805, 0.6598510
731.9626, 1.326172
732.4448, 1.617798
732.9269, 1.238647
733.4090, 0.5067140
733.8911, 0.3203740
734.3732, 0.8026120
734.8553, 1.331055
735.3375, 1.775696
735.8196, 2.087402
736.3017, 2.026428
736.7838, 1.659912
737.2659, 1.397217
737.7480, 1.106445
738.2302, 1.284607
738.7123, 3.086365
739.1944, 6.020386
739.6765, 7.700684
740.1586, 5.572021
740.6407, 3.591736
741.1229, 3.909241
741.6050, 6.393433
742.0871, 7.566345
742.5692, 6.888855
743.0513, 6.205261
743.5334, 6.596436
744.0156, 7.877441
744.4977, 8.730286
744.9798, 9.154236
745.4619, 9.405457
745.9440, 9.490417
746.4261, 9.602112
746.9083, 9.951660
747.3904, 10.55688
747.8725, 11.13690
748.3546, 11.20001
748.8367, 11.35760
749.3188, 11.94580
749.8010, 13.04755
750.2831, 14.36359
750.7652, 16.36981
751.2473, 17.89697
751.7294, 17.58301
752.2115, 15.41956
752.6937, 14.26947
753.1758, 14.22040
753.6579, 14.90869
754.1400, 16.60010
754.6221, 18.43707
755.1042, 19.11133
755.5864, 18.05042
756.0685, 17.04303
756.5506, 17.14789
757.0327, 17.62213
757.5148, 17.66766
757.9969, 15.93329
758.4791, 15.78265
758.9612, 18.29535
759.4433, 21.40808
759.9254, 22.19232
760.4075, 20.47333
760.8896, 19.56836
761.3718, 19.95300
761.8539, 21.04419
762.3360, 22.78369
762.8181, 24.71814
763.3002, 25.72998
763.7823, 25.11554
764.2645, 24.19843
764.7466, 23.27618
765.2287, 22.57703
765.7108, 22.59497
766.1929, 24.40839
766.6750, 25.63715
767.1572, 25.79657
767.6393, 25.37494
768.1214, 25.42712
768.6035, 26.02441
769.0856, 26.88593
769.5677, 28.02496
770.0499, 29.14148
770.5320, 29.88727
771.0141, 30.26068
771.4962, 30.23846
771.9783, 29.16394
772.4604, 28.39246
772.9426, 29.17401
773.4247, 30.71631
773.9068, 31.20831
774.3889, 29.23810
774.8710, 27.94177
775.3531, 27.99969
775.8353, 29.00848
776.3174, 29.79449
776.7995, 30.33948
777.2816, 31.09894
777.7637, 32.46600
778.2458, 33.91290
778.7280, 34.63062
779.2101, 34.70416
779.6922, 34.38062
780.1743, 33.39703
780.6564, 32.43427
781.1385, 31.83844
781.6207, 31.55951
782.1028, 31.35156
782.5849, 31.00568
783.0670, 30.99976
783.5491, 31.50171
784.0313, 32.41461
784.5134, 33.65057
784.9955, 35.23071
785.4776, 35.96979
785.9597, 34.68994
786.4418, 32.68817
786.9240, 32.11047
787.4061, 32.63892
787.8882, 33.11389
788.3703, 32.97772
788.8524, 32.62701
789.3345, 31.98297
789.8167, 31.17816
790.2988, 31.08246
790.7809, 32.04504
791.2630, 33.17792
791.7451, 34.50293
792.2272, 35.71710
792.7094, 35.19672
793.1915, 33.01752
793.6736, 31.00159
794.1557, 30.42792
794.6378, 30.46460
795.1199, 29.82678
795.6021, 28.77307
796.0842, 28.51886
796.5663, 30.94989
797.0484, 32.98444
797.5305, 32.43524
798.0126, 29.78455
798.4948, 29.56018
798.9769, 32.74823
799.4590, 35.97784
799.9411, 37.85382
800.4232, 38.66931
800.9053, 39.23639
801.3875, 39.59192
801.8696, 40.05011
802.3517, 40.81104
802.8338, 41.77844
803.3159, 42.77155
803.7980, 43.84033
804.2802, 45.27887
804.7623, 47.37433
805.2444, 49.64355
805.7265, 51.89050
806.2086, 54.11749
806.6907, 56.48242
807.1729, 59.05219
807.6550, 61.43195
808.1371, 63.40875
808.6192, 65.08752
809.1013, 66.76440
809.5834, 68.42133
810.0656, 69.97052
810.5477, 71.29285
811.0298, 72.59436
811.5119, 73.74420
811.9940, 74.90381
812.4761, 77.04602
812.9583, 81.60150
813.4404, 85.51758
813.9225, 87.55389
814.4046, 88.16217
814.8867, 90.22278
815.3688, 93.75140
815.8510, 97.50269
816.3331, 101.1217
816.8152, 104.4634
817.2973, 106.7680
817.7794, 108.3776
818.2615, 110.6594
818.7437, 114.9859
819.2258, 119.3786
819.7079, 122.8705
820.1900, 125.5789
820.6721, 128.5608
821.1542, 132.2885
821.6364, 135.1741
822.1185, 136.4190
822.6006, 136.5674
823.0827, 137.5394
823.5648, 139.2600
824.0469, 141.0839
824.5291, 142.4821
825.0112, 143.9119
825.4933, 146.4106
825.9754, 149.4763
826.4575, 151.4052
826.9396, 150.6432
827.4218, 149.8275
827.9039, 149.4862
828.3860, 149.6432
828.8681, 150.6266
829.3502, 152.7155
829.8323, 154.0155
830.3145, 153.7738
830.7966, 152.5067
831.2787, 150.9103
831.7608, 149.0858
832.2429, 147.4069
832.7250, 146.0466
833.2072, 144.8453
833.6893, 143.8608
834.1714, 142.9661
834.6535, 141.8372
835.1356, 140.6240
835.6177, 138.9167
836.0999, 136.5741
836.5820, 133.7532
837.0641, 130.4939
837.5462, 126.8862
838.0283, 124.0894
838.5104, 122.8882
838.9926, 121.8666
839.4747, 119.5009
839.9568, 116.1959
840.4389, 112.6223
840.9210, 108.7246
841.4031, 104.9244
841.8853, 101.2551
842.3674, 97.77234
842.8495, 94.68127
843.3316, 92.10773
843.8137, 89.27295
844.2958, 86.08972
844.7780, 82.48828
845.2601, 77.75952
845.7422, 72.58972
846.2243, 68.62854
846.7064, 66.70898
847.1885, 65.10278
847.6707, 63.01501
848.1528, 60.61743
848.6349, 58.12769
849.1170, 56.13757
849.5991, 52.92627
850.0812, 47.74878
850.5634, 42.52124
851.0455, 39.68604
851.5276, 38.91528
852.0097, 37.58447
852.4918, 35.31335
852.9739, 32.79504
853.4561, 30.31250
853.9382, 28.11963
854.4203, 26.58032
854.9024, 25.93494
855.3845, 25.30884
855.8666, 24.88904
856.3488, 24.05920
856.8309, 22.17126
857.3130, 18.91028
857.7951, 16.83179
858.2772, 16.03455
858.7593, 15.77087
859.2415, 15.74426
859.7236, 15.67017
860.2057, 15.06177
860.6878, 13.87830
861.1699, 12.37354
861.6520, 10.26257
862.1342, 8.207642
862.6163, 6.570190
863.0984, 5.361450
863.5805, 4.567139
864.0626, 4.247559
864.5447, 4.259521
865.0269, 4.909912
865.5090, 5.808960
865.9911, 5.462402
866.4732, 3.994751
866.9553, 2.154663
867.4374, 0.4938960
867.9196, 2.566162
868.4017, 2.716797
868.8838, 1.198730
869.3659, 9.3989996E-03
869.8480, 0.7512210
870.3301, 1.102417
870.8123, 1.087646
871.2944, 0.6640630
871.7765, 0.7233890
872.2586, 2.915039
872.7407, 4.130188
873.2228, 2.911621
873.7050, 1.117676
874.1871, 0.6049800
874.6692, 0.9775390
875.1513, 1.373413
875.6334, 1.639648
876.1155, 1.708374
876.5977, 1.396606
877.0798, 0.9761960
877.5619, 1.033203
878.0440, 1.610474
878.5261, 1.920288
879.0082, 1.759888
879.4904, 1.396973
879.9725, 1.004761
880.4546, 0.7059330
880.9367, 0.8024900
881.4188, 1.787720
881.9009, 2.277588
882.3831, 1.351318
882.8652, 4.1138001E-02
883.3473, 0.9053960
883.8294, 1.074219
884.3115, 1.453979
884.7936, 2.148315
885.2758, 2.817261
885.7579, 2.933960
886.2400, 2.809326
886.7221, 3.137329
887.2042, 4.013916
887.6863, 5.161011
888.1685, 6.534790
888.6506, 8.034058
889.1327, 9.680054
889.6148, 11.54248
890.0969, 12.82935
890.5790, 13.29785
891.0612, 13.78479
891.5433, 14.93311
892.0254, 16.47095
892.5075, 17.19727
892.9896, 17.23511
893.4717, 17.64526
893.9539, 19.47681
894.4360, 21.55383
894.9181, 23.07617
895.4002, 24.12488
895.8823, 25.33801
896.3644, 27.03247
896.8466, 28.43103
897.3287, 29.28918
897.8108, 29.80249
898.2929, 30.33691
898.7750, 30.95898
899.2571, 32.03894
899.7393, 33.88330
900.2214, 35.99487
900.7035, 38.11066
901.1856, 40.15253
901.6677, 41.95074
902.1498, 43.48901
902.6320, 44.67621
903.1141, 45.28577
903.5962, 45.95660
904.0783, 47.72748
904.5604, 50.42883
905.0425, 51.96454
905.5247, 51.84637
906.0068, 51.63055
906.4889, 53.03027
906.9710, 55.06689
907.4531, 56.70032
907.9352, 57.79529
908.4174, 58.53192
908.8995, 58.45032
909.3816, 58.53857
909.8637, 59.52539
910.3458, 61.52045
910.8279, 62.65527
911.3101, 63.00708
911.7922, 62.85999
912.2743, 62.06598
912.7564, 61.07709
913.2385, 60.61304
913.7206, 60.54999
914.2028, 59.82922
914.6849, 56.90283
915.1670, 54.57532
915.6491, 53.83051
916.1312, 54.29846
916.6133, 54.66937
917.0955, 54.96246
917.5776, 54.65729
918.0597, 53.38623
918.5418, 51.72424
919.0239, 50.47156
919.5060, 49.31586
919.9882, 47.70282
920.4703, 44.62732
920.9524, 42.22711
921.4345, 41.20258
921.9166, 40.69104
922.3987, 39.65735
922.8809, 38.07538
923.3630, 36.38965
923.8451, 34.59265
924.3272, 32.94873
924.8093, 31.73004
925.2914, 30.88812
925.7736, 30.42322
926.2557, 30.48236
926.7378, 30.53223
927.2199, 30.58313
927.7020, 30.28119
928.1841, 29.50226
928.6663, 28.29755
929.1484, 26.77472
929.6305, 24.88513
930.1126, 23.10010
930.5947, 22.02368
931.0768, 21.15393
931.5590, 19.44244
932.0411, 17.15289
932.5232, 15.66272
933.0053, 15.98566
933.4874, 16.50598
933.9695, 16.99036
934.4517, 17.31555
934.9338, 17.08807
935.4159, 16.27991
935.8980, 15.42303
936.3801, 14.73724
936.8622, 14.07318
937.3444, 12.90161
937.8265, 11.76825
938.3086, 11.53625
938.7907, 13.15485
939.2728, 14.19666
939.7549, 14.04877
940.2371, 13.48486
940.7192, 12.93390
941.2013, 12.34033
941.6834, 12.39948
942.1655, 13.15930
942.6476, 13.89801
943.1298, 13.67743
943.6119, 13.31354
944.0940, 13.85437
944.5761, 15.31793
945.0582, 16.40710
945.5403, 16.56000
946.0225, 16.62061
946.5046, 16.93787
946.9867, 17.34680
947.4688, 16.97028
947.9509, 15.87933
948.4330, 15.04822
948.9152, 14.90155
949.3973, 15.17157
949.8794, 16.08618
950.3615, 17.12231
950.8436, 17.35406
951.3257, 15.41736
951.8079, 14.39929
952.2900, 15.13873
952.7721, 15.94470
953.2542, 14.25220
953.7363, 10.51324
954.2184, 8.269775
954.7006, 8.002808
955.1827, 8.206238
955.6648, 7.814331
956.1469, 7.233704
956.6290, 6.924622
957.1111, 7.013062
957.5933, 6.494934
958.0754, 4.962280
958.5575, 3.610046
959.0396, 3.246216
959.5217, 3.421753
960.0038, 2.274902
960.4860, 9.0209998E-02
960.9681, 1.654846
961.4502, 2.120178
961.9323, 1.956970
962.4144, 1.267151
962.8965, 0.2644650
963.3787, 0.6196900
963.8608, 1.551514
964.3429, 1.856384
964.8250, 1.376465
965.3071, 0.4274290
965.7892, 1.158936
966.2714, 2.785400
966.7535, 2.502930
967.2356, 0.3757930
967.7177, 2.393188
968.1998, 0.4066160
968.6819, 2.158203
969.1641, 2.571594
969.6462, 0.5744020
970.1283, 0.2707520
970.6104, 1.977173
971.0925, 3.610474
971.5746, 4.045837
972.0568, 3.587219
972.5389, 2.404907
973.0210, 0.7626950
973.5031, 0.4429930
973.9852, 0.5612180
974.4673, 0.5120240
974.9495, 0.5794070
975.4316, 0.6433720
975.9137, 0.3750610
976.3958, 0.2667850
976.8779, 0.2673950
977.3600, 0.7051390
977.8422, 1.691345
978.3243, 1.411438
978.8064, 0.6713260
979.2885, 0.6349490
979.7706, 1.763123
980.2527, 2.176147
980.7349, 0.8841550
981.2170, 0.2364500
981.6991, 6.2987998E-02
982.1812, 1.192078
982.6633, 2.103149
983.1454, 2.646179
983.6276, 2.678528
984.1097, 1.059265
984.5918, 0.1604000
985.0739, 1.269775
985.5560, 4.292419
986.0381, 6.007263
986.5203, 5.632385
987.0024, 5.116760
987.4845, 4.564453
987.9666, 4.244690
988.4487, 4.902710
988.9308, 6.108398
989.4130, 6.440430
989.8951, 5.536804
990.3772, 4.815613
990.8593, 5.760803
991.3414, 6.675415
991.8235, 5.892578
992.3057, 3.247192
992.7878, 2.823975
993.2699, 4.960999
993.7520, 7.169495
994.2341, 8.146484
994.7162, 8.327087
995.1984, 8.103027
995.6805, 7.683411
996.1626, 7.643250
996.6447, 8.723389
997.1268, 9.537109
997.6089, 9.831421
998.0911, 9.700134
998.5732, 8.943298
999.0553, 7.569580
999.5374, 7.579224
1000.020, 9.341125
1000.502, 11.33929
1000.984, 12.68274
1001.466, 13.22046
1001.948, 12.32043
1002.430, 9.719666
1002.912, 8.674133
1003.394, 10.13800
1003.876, 11.66913
1004.359, 12.29248
1004.841, 12.24609
1005.323, 12.12299
1005.805, 11.94220
1006.287, 11.77167
1006.769, 11.69244
1007.251, 11.57257
1007.733, 11.07593
1008.216, 10.63861
1008.698, 10.87549
1009.180, 11.98676
1009.662, 13.08130
1010.144, 14.15314
1010.626, 14.98431
1011.108, 15.14087
1011.590, 14.99371
1012.072, 15.09290
1012.555, 15.46649
1013.037, 15.84894
1013.519, 16.27472
1014.001, 16.51782
1014.483, 16.42828
1014.965, 16.13812
1015.447, 16.16858
1015.929, 16.47699
1016.411, 16.53101
1016.894, 15.99481
1017.376, 15.54626
1017.858, 15.90851
1018.340, 16.57568
1018.822, 16.96637
1019.304, 17.03229
1019.786, 17.17444
1020.268, 17.63257
1020.751, 17.69312
1021.233, 16.06189
1021.715, 13.74188
1022.197, 13.75964
1022.679, 15.78705
1023.161, 17.70349
1023.643, 18.64844
1024.125, 18.92517
1024.607, 18.44916
1025.090, 17.76501
1025.572, 17.46857
1026.054, 17.41748
1026.536, 17.95490
1027.018, 19.46814
1027.500, 20.97687
1027.982, 21.16376
1028.464, 20.45984
1028.947, 19.30042
1029.429, 17.62482
1029.911, 16.94214
1030.393, 17.87085
1030.875, 18.93170
1031.357, 19.27606
1031.839, 19.12073
1032.321, 19.29333
1032.803, 19.78625
1033.286, 20.52020
1033.768, 21.98846
1034.250, 23.03271
1034.732, 22.67847
1035.214, 21.92780
1035.696, 22.24622
1036.178, 23.89984
1036.660, 24.79596
1037.143, 24.74207
1037.625, 24.39648
1038.107, 24.06628
1038.589, 23.86688
1039.071, 24.13788
1039.553, 24.90088
1040.035, 25.36053
1040.517, 25.43829
1041.000, 24.88190
1041.482, 23.25488
1041.964, 21.28625
1042.446, 21.04675
1042.928, 22.26050
1043.410, 23.39294
1043.892, 24.02423
1044.374, 24.29852
1044.856, 24.17426
1045.339, 23.81726
1045.821, 23.34857
1046.303, 22.75446
1046.785, 22.23914
1047.267, 21.76501
1047.749, 21.68878
1048.231, 22.63641
1048.713, 23.83813
1049.195, 24.34686
1049.677, 24.26959
1050.160, 23.91034
1050.642, 23.08698
1051.124, 22.37213
1051.606, 21.72815
1052.088, 21.29517
1052.570, 21.49707
1053.052, 22.09088
1053.534, 22.02856
1054.017, 21.16327
1054.499, 20.30304
1054.981, 19.45026
1055.463, 19.23157
1055.945, 20.55475
1056.427, 22.98700
1056.909, 23.94318
1057.391, 23.31519
1057.874, 22.55005
1058.356, 22.11981
1058.838, 21.83661
1059.320, 21.53522
1059.802, 21.21490
1060.284, 20.82544
1060.766, 20.12994
1061.248, 19.94940
1061.730, 20.31079
1062.213, 21.17401
1062.695, 23.00128
1063.177, 25.26239
1063.659, 25.94861
1064.141, 25.27271
1064.623, 24.26575
1065.105, 22.71881
1065.587, 21.74573
1066.070, 22.26373
1066.552, 23.33759
1067.034, 23.45349
1067.516, 22.55328
1067.998, 22.48499
1068.480, 23.52521
1068.962, 24.70703
1069.444, 25.46924
1069.927, 25.77368
1070.409, 25.48364
1070.891, 24.43274
1071.373, 23.58643
1071.855, 22.90485
1072.337, 22.77954
1072.819, 23.60522
1073.301, 24.69592
1073.783, 24.77686
1074.266, 24.17908
1074.748, 23.58942
1075.230, 23.10498
1075.712, 23.09589
1076.194, 24.01526
1076.676, 24.85767
1077.158, 25.14935
1077.640, 24.91730
1078.122, 24.18884
1078.604, 23.06940
1079.087, 22.44135
1079.569, 23.30841
1080.051, 23.97565
1080.533, 22.96350
1081.015, 21.33319
1081.497, 21.10254
1081.979, 22.84528
1082.461, 23.99200
1082.944, 24.06854
1083.426, 23.63379
1083.908, 22.96405
1084.390, 22.40527
1084.872, 22.64429
1085.354, 23.60052
1085.836, 23.77771
1086.318, 22.61609
1086.801, 21.31128
1087.283, 20.00616
1087.765, 18.92853
1088.247, 18.59790
1088.729, 18.81885
1089.211, 19.12299
1089.693, 19.44177
1090.175, 19.68945
1090.657, 19.89630
1091.140, 19.92554
1091.622, 19.60858
1092.104, 19.04730
1092.586, 19.16162
1093.068, 19.84814
1093.550, 19.99536
1094.032, 18.67554
1094.514, 17.23132
1094.997, 16.64020
1095.479, 16.50214
1095.961, 16.22412
1096.443, 15.63562
1096.925, 15.47278
1097.407, 15.81927
1097.889, 16.05029
1098.371, 15.34833
1098.854, 14.47455
1099.336, 14.71667
1099.818, 15.69843
1100.300, 15.86121
1100.782, 14.30023
1101.264, 12.76392
1101.746, 11.27307
1102.228, 10.27386
1102.710, 11.00446
1103.193, 12.61597
1103.675, 12.54907
1104.157, 10.46204
1104.639, 9.281067
1105.121, 11.45905
1105.603, 13.48163
1106.085, 14.01685
1106.567, 13.44086
1107.049, 12.79291
1107.531, 12.12042
1108.014, 11.37012
1108.496, 10.33002
1108.978, 9.525452
1109.460, 9.078735
1109.942, 9.164673
1110.424, 10.28479
1110.906, 12.51935
1111.388, 12.78717
1111.871, 10.98395
1112.353, 9.214172
1112.835, 8.195435
1113.317, 7.764526
1113.799, 8.281067
1114.281, 9.071594
1114.763, 8.938171
1115.245, 6.678162
1115.728, 5.792786
1116.210, 6.605408
1116.692, 7.776978
1117.174, 8.412415
1117.656, 8.559509
1118.138, 7.944153
1118.620, 6.819214
1119.102, 6.192322
1119.584, 6.927673
1120.067, 7.416321
1120.549, 7.180542
1121.031, 6.891541
1121.513, 7.986694
1121.995, 9.772034
1122.477, 9.485840
1122.959, 6.913574
1123.441, 4.694031
1123.924, 4.707764
1124.406, 4.830811
1124.888, 4.010315
1125.370, 2.697937
1125.852, 2.398193
1126.334, 2.972046
1126.816, 2.415833
1127.298, 0.1050420
1127.781, 1.824646
1128.263, 0.8918460
1128.745, 4.049194
1129.227, 3.912170
1129.709, 0.6478880
1130.191, 1.244202
1130.673, 1.721558
1131.155, 1.678467
1131.637, 1.284058
1132.120, 0.9039310
1132.602, 1.325134
1133.084, 1.837646
1133.566, 1.283020
1134.048, 1.099243
1134.530, 2.325745
1135.012, 2.252441
1135.494, 1.548462
1135.976, 1.2634000E-02
1136.458, 1.464050
1136.941, 0.9392090
1137.423, 0.7891850
1137.905, 1.752686
1138.387, 1.073242
1138.869, 0.1586300
1139.351, 2.535278
1139.833, 4.034912
1140.315, 1.672729
1140.798, 2.788940
1141.280, 5.352905
1141.762, 5.978943
1142.244, 5.560669
1142.726, 3.002441
1143.208, 1.382202
1143.690, 1.503052
1144.172, 2.658691
1144.655, 4.304932
1145.137, 6.099426
1145.619, 6.652161
1146.101, 5.783936
1146.583, 4.513794
1147.065, 2.984558
1147.547, 1.679443
1148.029, 0.8543090
1148.511, 0.3852540
1148.994, 0.1063230
1149.476, 0.5947270
1149.958, 0.9210210
1150.440, 1.085693
1150.922, 0.9412840
1151.404, 5.2855998E-02
1151.886, 1.018860
1152.368, 1.147339
1152.851, 0.5521850
1153.333, 0.3811040
1153.815, 0.6208500
1154.297, 1.181885
1154.779, 2.055176
1155.261, 3.148438
1155.743, 5.031250
1156.225, 6.682495
1156.708, 6.635254
1157.190, 4.596985
1157.672, 3.188293
1158.154, 2.451965
1158.636, 2.017029
1159.118, 1.951050
1159.600, 1.839966
1160.082, 1.000366
1160.564, 0.1134030
1161.047, 0.7067870
1161.529, 0.4772340
1162.011, 0.1724850
1162.493, 0.2487180
1162.975, 0.6736450
1163.457, 1.214417
1163.939, 1.568970
1164.421, 0.8164670
1164.903, 0.5012210
1165.385, 0.6936650
1165.868, 1.684631
1166.350, 3.094055
1166.832, 3.024963
1167.314, 2.547668
1167.796, 3.118774
1168.278, 3.884766
1168.760, 2.777954
1169.242, 0.1314700
1169.725, 1.273071
1170.207, 0.2649540
1170.689, 1.890808
1171.171, 3.388184
1171.653, 4.480957
1172.135, 4.455933
1172.617, 3.773621
1173.099, 3.783020
1173.582, 4.617065
1174.064, 4.837952
1174.546, 2.390564
1175.028, 1.300903
1175.510, 3.272400
1175.992, 6.325989
1176.474, 6.033936
1176.956, 3.583557
1177.438, 2.371094
1177.921, 3.044312
1178.403, 3.675110
1178.885, 3.544250
1179.367, 3.337646
1179.849, 3.342651
1180.331, 3.468384
1180.813, 3.401978
1181.295, 3.195435
1181.778, 2.987305
1182.260, 2.738525
1182.742, 2.792053
1183.224, 3.487549
1183.706, 4.375793
1184.188, 5.399475
1184.670, 6.384338
1185.152, 5.876526
1185.635, 4.192078
1186.117, 3.565491
1186.599, 5.191406
1187.081, 6.858826
1187.563, 7.646240
1188.045, 7.810486
1188.527, 7.603943
1189.009, 7.060791
1189.491, 5.712585
1189.974, 3.795227
1190.456, 2.995544
1190.938, 5.308716
1191.420, 7.465637
1191.902, 7.622498
1192.384, 6.963867
1192.866, 6.777649
1193.348, 7.078613
1193.830, 6.655151
1194.313, 5.519531
1194.795, 4.785767
1195.277, 5.799805
1195.759, 6.536316
1196.241, 5.395569
1196.723, 3.632507
1197.205, 2.719421
1197.687, 2.733154
1198.169, 3.248535
1198.652, 4.179199
1199.134, 4.701904
1199.616, 3.851929
1200.098, 2.943115
1200.580, 2.955688
1201.062, 2.241699
1201.544, 2.995605
1202.026, 1.915771
1202.509, 1.655884
1202.991, 2.352661
1203.473, 3.329468
1203.955, 4.526489
1204.437, 5.405640
1204.919, 5.454468
1205.401, 4.951538
1205.883, 4.507568
1206.365, 4.112915
1206.848, 3.277588
1207.330, 1.855835
1207.812, 0.9837650
1208.294, 2.123901
1208.776, 3.592773
1209.258, 4.293945
1209.740, 4.366333
1210.222, 4.247070
1210.705, 3.936646
1211.187, 3.686157
1211.669, 3.564453
1212.151, 3.456665
1212.633, 3.206787
1213.115, 3.016724
1213.597, 3.183838
1214.079, 3.544556
1214.562, 3.283691
1215.044, 2.430298
1215.526, 2.575195
1216.008, 4.332153
1216.490, 5.767212
1216.972, 5.059082
1217.454, 3.650146
1217.936, 2.209351
1218.418, 0.9616700
1218.901, 1.691406
1219.383, 4.315063
1219.865, 5.806763
1220.347, 5.016235
1220.829, 4.050171
1221.311, 4.903564
1221.793, 5.810059
1222.275, 5.300293
1222.757, 3.561401
1223.240, 2.351929
1223.722, 1.759399
1224.204, 1.622192
1224.686, 2.104004
1225.168, 2.501343
1225.650, 2.264160
1226.132, 1.703369
1226.614, 0.8712160
1227.096, 0.1428220
1227.579, 9.0576001E-02
1228.061, 1.040649
1228.543, 1.583252
1229.025, 0.5461430
1229.507, 0.4139400
1229.989, 0.1370850
1230.471, 0.4024660
1230.953, 0.2923580
1231.436, 0.3177490
1231.918, 0.4271240
1232.400, 2.236206
1232.882, 3.212646
1233.364, 2.292603
1233.846, 0.9941410
1234.328, 0.6972660
1234.810, 1.783936
1235.292, 1.259888
1235.775, 0.6197510
1236.257, 1.680420
1236.739, 2.037231
1237.221, 2.332886
1237.703, 3.038086
1238.185, 3.438477
1238.667, 3.013184
1239.149, 2.412598
1239.632, 2.041870
1240.114, 1.884766
1240.596, 1.890747
1241.078, 2.028442
1241.560, 2.165771
1242.042, 2.246338
1242.524, 2.299072
1243.006, 2.288574
1243.489, 2.285889
1243.971, 2.160767
1244.453, 2.096802
1244.935, 3.250977
1245.417, 5.200073
1245.899, 6.390625
1246.381, 5.283691
1246.863, 4.738892
1247.345, 5.492310
1247.828, 6.228882
1248.310, 5.382568
1248.792, 3.796509
1249.274, 3.989258
1249.756, 5.476074
1250.238, 6.591187
1250.720, 6.385010
1251.202, 6.306641
1251.684, 6.560791
1252.167, 6.752808
1252.649, 6.340942
1253.131, 5.726074
1253.613, 5.828491
1254.095, 6.359985
1254.577, 6.376953
1255.059, 5.263794
1255.541, 4.196045
1256.023, 3.048218
1256.506, 2.522949
1256.988, 3.672974
1257.470, 5.555664
1257.952, 7.255371
1258.434, 8.553833
1258.916, 8.701782
1259.398, 7.171997
1259.880, 6.119995
1260.363, 5.688232
1260.845, 5.557373
1261.327, 5.934937
1261.809, 6.005615
1262.291, 4.276367
1262.773, 1.671631
1263.255, 0.7817380
1263.737, 2.219116
1264.219, 2.630859
1264.702, 1.663940
1265.184, 1.019775
1265.666, 2.789185
1266.148, 4.506470
1266.630, 4.137695
1267.112, 2.542725
1267.594, 1.927368
1268.076, 2.254883
1268.559, 2.642456
1269.041, 3.486084
1269.523, 4.360596
1270.005, 4.927490
1270.487, 5.150513
1270.969, 4.723022
1271.451, 4.077026
1271.933, 3.838989
1272.416, 3.957153
1272.898, 3.781860
1273.380, 3.294189
1273.862, 2.906372
1274.344, 2.733887
1274.826, 2.868774
1275.308, 3.439575
1275.790, 4.199585
1276.272, 5.142334
1276.755, 6.009277
1277.237, 5.605957
1277.719, 4.038574
1278.201, 2.482300
1278.683, 1.211670
1279.165, 0.3937990
1279.647, 9.8879999E-03
1280.129, 0.1147460
1280.611, 1.583862
1281.094, 3.388184
1281.576, 2.703247
1282.058, 0.1093750
1282.540, 0.8605960
1283.022, 2.029663
1283.504, 4.086792
1283.986, 4.824219
1284.468, 4.687134
1284.950, 3.435669
1285.433, 2.034302
1285.915, 1.933838
1286.397, 2.841675
1286.879, 3.520020
1287.361, 3.976807
1287.843, 3.609253
1288.325, 2.230957
1288.807, 1.188354
1289.290, 2.012573
1289.772, 3.340576
1290.254, 4.455688
1290.736, 4.979248
1291.218, 3.890625
1291.700, 0.9174800
1292.182, 0.7283940
1292.664, 3.389160
1293.146, 5.878906
1293.629, 4.973877
1294.111, 3.632813
1294.593, 3.711548
1295.075, 4.197021
1295.557, 3.590454
1296.039, 2.130615
1296.521, 2.142578
1297.003, 3.501465
1297.486, 4.232056
1297.968, 2.663208
1298.450, 1.359619
1298.932, 1.134644
1299.414, 1.253906
1299.896, 0.8226320
1300.378, 0.1541750
1300.860, 2.1118000E-02
1301.343, 0.3894040
1301.825, 0.0000000E+00
##END=



