##NAMES=Graeserite
##RRUFFID=R110054
##IDEAL CHEMISTRY=Fe^3+^_4_Ti^4+^_3_As^3+^O_13_(OH)
##LOCALITY=Binntal, Wallis, Switzerland
##OWNER=RRUFF
##SOURCE=Bob Jenkins
##DESCRIPTION=Black prismatic crystals, associated with brown rutile, yellow muscovite, green clinochlore and colorless orthoclase
##STATUS=The identification of this mineral has been confirmed by single-crystal X-ray diffraction.
##URL=rruff.info/R110054
197.6692, 0.0000000E+00
198.1513, 1.1559000E-02
198.6334, 0.1283650
199.1155, 0.5772090
199.5977, 1.032890
200.0798, 1.448128
200.5619, 1.748657
201.0440, 1.796753
201.5261, 1.512344
202.0082, 1.431061
202.4904, 2.132629
202.9725, 2.695961
203.4546, 2.404266
203.9367, 1.291901
204.4188, 0.1695020
204.9009, 0.1921310
205.3831, 1.897438
205.8652, 3.061630
206.3473, 3.362373
206.8294, 3.348335
207.3115, 3.202988
207.7936, 3.012939
208.2758, 2.875450
208.7579, 2.959389
209.2400, 3.474335
209.7221, 3.788872
210.2042, 3.933647
210.6863, 3.852928
211.1685, 3.509422
211.6506, 3.045975
212.1327, 3.049263
212.6148, 3.096405
213.0969, 3.666992
213.5790, 3.982056
214.0612, 3.941010
214.5433, 3.759277
215.0254, 3.565674
215.5075, 3.402672
215.9896, 3.292755
216.4717, 3.149635
216.9539, 3.078712
217.4360, 2.937042
217.9181, 2.575775
218.4002, 2.189934
218.8823, 2.026596
219.3644, 2.140221
219.8466, 2.297684
220.3287, 2.226082
220.8108, 2.057312
221.2929, 1.965652
221.7750, 1.289238
222.2571, 0.6129230
222.7393, 0.3374710
223.2214, 0.5866850
223.7035, 0.9882810
224.1856, 1.117485
224.6677, 0.9927900
225.1498, 0.7259670
225.6320, 0.1019900
226.1141, 0.5977780
226.5962, 0.8006900
227.0783, 0.3102260
227.5604, 0.3728640
228.0425, 0.7887190
228.5247, 0.9845050
229.0068, 1.095436
229.4889, 1.156792
229.9710, 1.169250
230.4531, 1.120987
230.9352, 0.9832920
231.4174, 0.8426740
231.8995, 0.7846910
232.3816, 0.7800830
232.8637, 0.7484210
233.3458, 0.5116200
233.8279, 0.2037810
234.3101, 0.3339540
234.7922, 1.237549
235.2743, 2.025093
235.7564, 2.110123
236.2385, 1.730179
236.7206, 1.355301
237.2028, 1.255783
237.6849, 1.374069
238.1670, 1.471535
238.6491, 1.580727
239.1312, 1.610023
239.6133, 1.418709
240.0955, 1.146263
240.5776, 1.044502
241.0597, 1.332329
241.5418, 1.890038
242.0239, 2.139572
242.5060, 2.016769
242.9882, 1.623955
243.4703, 0.5570070
243.9524, 0.6464690
244.4345, 1.155815
244.9166, 0.3968580
245.3987, 1.308640
245.8809, 2.424484
246.3630, 2.530693
246.8451, 2.529358
247.3272, 2.617531
247.8093, 2.714455
248.2914, 2.686981
248.7736, 2.455040
249.2557, 2.077965
249.7378, 1.793518
250.2199, 1.521416
250.7020, 1.468430
251.1841, 1.953979
251.6663, 2.571999
252.1484, 2.755997
252.6305, 2.222420
253.1126, 1.287109
253.5947, 0.9379580
254.0768, 1.694298
254.5590, 2.481636
255.0411, 3.486931
255.5232, 4.418457
256.0053, 4.828636
256.4874, 4.551285
256.9695, 3.876686
257.4517, 3.512184
257.9338, 3.776939
258.4159, 3.997490
258.8980, 4.130989
259.3801, 4.234016
259.8622, 4.357056
260.3444, 4.518341
260.8265, 4.722168
261.3086, 4.982140
261.7907, 5.419434
262.2728, 5.710045
262.7549, 5.811234
263.2371, 5.784889
263.7192, 5.644066
264.2013, 5.399284
264.6834, 5.149567
265.1655, 5.035965
265.6476, 5.087708
266.1298, 5.246452
266.6119, 5.734222
267.0940, 6.206764
267.5761, 6.179726
268.0582, 5.588570
268.5403, 5.063705
269.0225, 5.424530
269.5046, 6.976982
269.9867, 8.094650
270.4688, 8.504112
270.9509, 8.636856
271.4330, 8.855621
271.9152, 9.201469
272.3973, 9.480156
272.8794, 9.472542
273.3615, 9.151451
273.8436, 8.953445
274.3257, 8.940895
274.8079, 9.013123
275.2900, 9.123680
275.7721, 9.262085
276.2542, 9.377472
276.7363, 9.447227
277.2184, 9.454636
277.7006, 9.363480
278.1827, 9.041595
278.6648, 8.769127
279.1469, 8.764099
279.6290, 8.989471
280.1111, 9.185913
280.5933, 9.182579
281.0754, 9.079384
281.5575, 9.155151
282.0396, 9.666794
282.5217, 10.04555
283.0038, 9.768288
283.4860, 8.957031
283.9681, 8.328514
284.4502, 8.346909
284.9323, 8.745201
285.4144, 8.849274
285.8965, 8.548424
286.3787, 8.151909
286.8608, 7.751823
287.3429, 7.378662
287.8250, 7.152649
288.3071, 7.164101
288.7892, 7.274696
289.2714, 7.273094
289.7535, 7.147621
290.2356, 7.034172
290.7177, 7.052132
291.1998, 7.128113
291.6819, 7.057487
292.1641, 6.770508
292.6462, 6.404533
293.1283, 6.068199
293.6104, 5.757698
294.0925, 5.514473
294.5746, 5.331306
295.0568, 5.233788
295.5389, 5.333961
296.0210, 5.730934
296.5031, 6.066696
296.9852, 5.896011
297.4673, 5.393814
297.9495, 5.033501
298.4316, 5.161118
298.9137, 5.447578
299.3958, 5.306572
299.8779, 4.614052
300.3600, 4.027199
300.8422, 4.141869
301.3243, 4.635963
301.8064, 4.940460
302.2885, 4.958748
302.7706, 4.849281
303.2527, 4.638908
303.7349, 4.273888
304.2170, 3.967239
304.6991, 3.896248
305.1812, 3.904785
305.6633, 3.775208
306.1454, 3.446907
306.6276, 3.067467
307.1097, 2.747383
307.5918, 2.486488
308.0739, 2.260056
308.5560, 2.025482
309.0381, 1.871819
309.5203, 1.904602
310.0024, 2.140335
310.4845, 2.403259
310.9666, 2.658501
311.4487, 2.869438
311.9308, 2.801758
312.4130, 2.215210
312.8951, 1.615555
313.3772, 1.516724
313.8593, 1.849106
314.3414, 2.184464
314.8235, 2.333954
315.3057, 2.330025
315.7878, 2.232468
316.2699, 2.006798
316.7520, 1.773346
317.2341, 1.604500
317.7162, 1.497162
318.1984, 1.475113
318.6805, 1.576729
319.1626, 1.689194
319.6447, 1.819267
320.1268, 1.995483
320.6089, 2.063118
321.0911, 1.786072
321.5732, 1.385986
322.0553, 1.184265
322.5374, 1.298164
323.0195, 1.537605
323.5016, 1.783623
323.9838, 2.035637
324.4659, 2.075974
324.9480, 1.729897
325.4301, 1.184151
325.9122, 0.5985110
326.3943, 8.0825999E-02
326.8765, 0.4978410
327.3586, 0.1705170
327.8407, 0.7355040
328.3228, 1.254501
328.8049, 0.9990390
329.2870, 0.5155790
329.7692, 0.3831940
330.2513, 0.5711590
330.7334, 0.7571950
331.2155, 0.7338870
331.6976, 0.6024930
332.1797, 0.6295320
332.6619, 0.9009320
333.1440, 1.166100
333.6261, 1.268646
334.1082, 1.216850
334.5903, 0.9721980
335.0724, 0.2859950
335.5546, 0.4797970
336.0367, 0.8302610
336.5188, 0.7350920
337.0009, 0.5051880
337.4830, 0.2033840
337.9651, 8.1955001E-02
338.4473, 0.1698380
338.9294, 7.7324003E-02
339.4115, 0.3380130
339.8936, 0.3730620
340.3757, 0.1964570
340.8578, 0.1231160
341.3400, 0.6873400
341.8221, 1.248955
342.3042, 1.403435
342.7863, 1.076874
343.2684, 0.7874300
343.7505, 0.8778690
344.2327, 1.189491
344.7148, 1.322510
345.1969, 1.157448
345.6790, 0.8944630
346.1611, 0.7739640
346.6432, 0.7707210
347.1254, 0.7181240
347.6075, 0.4523540
348.0896, 0.1727910
348.5717, 0.1836170
349.0538, 0.5202330
349.5359, 0.8534240
350.0181, 0.8748630
350.5002, 0.6865460
350.9823, 0.7484890
351.4644, 1.462479
351.9465, 2.109924
352.4286, 2.086624
352.9108, 1.523560
353.3929, 1.044785
353.8750, 0.9534380
354.3571, 1.135910
354.8392, 1.317825
355.3214, 1.544930
355.8035, 1.677666
356.2856, 1.619194
356.7677, 1.440903
357.2498, 1.252998
357.7319, 1.078804
358.2141, 0.9445500
358.6962, 0.8983990
359.1783, 0.9558940
359.6604, 1.001366
360.1425, 1.047043
360.6246, 1.059891
361.1068, 0.9576190
361.5889, 0.7490230
362.0710, 0.6156770
362.5531, 0.7337720
363.0352, 1.100311
363.5173, 1.348541
363.9995, 1.438744
364.4816, 1.464417
364.9637, 1.483345
365.4458, 1.473961
365.9279, 1.336655
366.4100, 0.9872890
366.8922, 0.5506820
367.3743, 0.4573900
367.8564, 1.118706
368.3385, 1.517563
368.8206, 1.295242
369.3027, 0.8409650
369.7849, 0.6199110
370.2670, 0.7578960
370.7491, 1.036476
371.2312, 1.165558
371.7133, 1.121178
372.1954, 0.9645390
372.6776, 0.4602280
373.1597, 4.7775000E-02
373.6418, 0.1552510
374.1239, 0.6606220
374.6060, 0.9906010
375.0881, 0.6290890
375.5703, 0.3867870
376.0524, 0.8091430
376.5345, 1.0895000E-02
377.0166, 0.6458890
377.4987, 0.8319170
377.9808, 0.6938780
378.4630, 0.4314350
378.9451, 0.1351170
379.4272, 0.1504290
379.9093, 0.3215710
380.3914, 0.3667070
380.8735, 0.2978820
381.3557, 0.1333850
381.8378, 0.1399990
382.3199, 0.6418150
382.8020, 1.326691
383.2841, 1.913994
383.7662, 2.048912
384.2484, 1.641235
384.7305, 1.329498
385.2126, 1.151459
385.6947, 1.129967
386.1768, 1.383362
386.6589, 1.778183
387.1411, 2.064102
387.6232, 2.080452
388.1053, 1.901848
388.5874, 1.793617
389.0695, 1.802567
389.5516, 1.791725
390.0338, 1.714218
390.5159, 1.615715
390.9980, 1.523094
391.4801, 1.443970
391.9622, 1.407791
392.4443, 1.487198
392.9265, 1.703835
393.4086, 1.773407
393.8907, 1.535736
394.3728, 1.315865
394.8549, 1.330040
395.3370, 1.536728
395.8192, 1.731133
396.3013, 1.718254
396.7834, 1.575897
397.2655, 1.617645
397.7476, 1.972313
398.2297, 2.239235
398.7119, 2.002846
399.1940, 1.599876
399.6761, 1.522934
400.1582, 2.013916
400.6403, 2.590012
401.1224, 2.720497
401.6046, 2.433731
402.0867, 2.183357
402.5688, 2.125862
403.0509, 2.134506
403.5330, 2.017639
404.0151, 1.769035
404.4973, 1.631729
404.9794, 1.853516
405.4615, 2.214462
405.9436, 2.257957
406.4257, 1.888268
406.9078, 1.575447
407.3900, 1.775620
407.8721, 2.384209
408.3542, 2.817474
408.8363, 2.969917
409.3184, 2.998817
409.8005, 2.975891
410.2827, 2.906013
410.7648, 2.768532
411.2469, 2.512596
411.7290, 2.266747
412.2111, 2.386017
412.6932, 3.078087
413.1754, 3.553719
413.6575, 3.546944
414.1396, 3.334099
414.6217, 3.193504
415.1038, 3.174164
415.5859, 3.170052
416.0681, 3.057785
416.5502, 2.812622
417.0323, 2.764359
417.5144, 3.125893
417.9965, 3.425735
418.4786, 3.480080
418.9608, 3.375702
419.4429, 3.298256
419.9250, 3.346390
420.4071, 3.455185
420.8892, 3.433434
421.3713, 3.075287
421.8535, 2.905869
422.3356, 3.117073
422.8177, 3.382599
423.2998, 3.379044
423.7819, 3.114113
424.2640, 2.918739
424.7462, 3.201172
425.2283, 4.019142
425.7104, 4.434975
426.1925, 4.019341
426.6746, 3.642921
427.1567, 3.621742
427.6389, 3.786697
428.1210, 3.853996
428.6031, 3.676651
429.0852, 3.377167
429.5673, 3.213394
430.0494, 3.230034
430.5316, 3.221146
431.0137, 3.136322
431.4958, 3.014488
431.9779, 2.774521
432.4600, 2.447769
432.9421, 2.342529
433.4243, 2.876701
433.9064, 3.847961
434.3885, 4.434441
434.8706, 4.424889
435.3527, 4.295006
435.8348, 4.416229
436.3170, 4.612770
436.7991, 4.551346
437.2812, 3.974312
437.7633, 3.359680
438.2454, 3.291702
438.7275, 3.647636
439.2097, 3.725075
439.6918, 3.142708
440.1739, 2.433098
440.6560, 2.479134
441.1381, 3.318161
441.6202, 3.960281
442.1024, 4.055450
442.5845, 3.855240
443.0666, 3.577278
443.5487, 3.268661
444.0308, 3.030434
444.5129, 2.875519
444.9951, 2.780930
445.4772, 2.760567
445.9593, 2.791420
446.4414, 2.915260
446.9235, 3.302376
447.4056, 3.745667
447.8878, 3.913727
448.3699, 3.696426
448.8520, 3.266930
449.3341, 2.858780
449.8162, 2.382637
450.2983, 2.218445
450.7805, 2.764427
451.2626, 3.250412
451.7447, 3.134941
452.2268, 2.513290
452.7089, 1.881165
453.1910, 1.580536
453.6732, 1.572029
454.1553, 1.710701
454.6374, 2.139488
455.1195, 2.471237
455.6016, 2.706680
456.0837, 2.795464
456.5659, 2.607018
457.0480, 2.152481
457.5301, 1.715828
458.0122, 1.654938
458.4943, 1.960968
458.9764, 2.079651
459.4586, 1.901115
459.9407, 1.661110
460.4228, 1.415321
460.9049, 1.212990
461.3870, 1.165848
461.8691, 1.396317
462.3513, 1.657455
462.8334, 1.568832
463.3155, 1.149124
463.7976, 0.9252620
464.2797, 1.181160
464.7618, 1.561890
465.2440, 1.550514
465.7261, 1.136253
466.2082, 0.8742370
466.6903, 1.080994
467.1724, 1.476059
467.6545, 1.798492
468.1367, 2.011681
468.6188, 1.960251
469.1009, 1.399620
469.5830, 0.5322110
470.0651, 0.2102130
470.5472, 0.9259490
471.0294, 1.492020
471.5115, 1.473873
471.9936, 1.193821
472.4757, 1.118065
472.9578, 1.346111
473.4399, 1.519466
473.9221, 1.146122
474.4042, 4.1023001E-02
474.8863, 0.4900930
475.3684, 8.7081999E-02
475.8505, 0.3974650
476.3326, 0.7010150
476.8148, 0.8610730
477.2969, 0.9942020
477.7790, 1.176842
478.2611, 1.336758
478.7432, 1.272057
479.2253, 0.8352740
479.7075, 0.6007080
480.1896, 0.8733330
480.6717, 1.167412
481.1538, 1.117329
481.6359, 0.8076290
482.1180, 0.6649970
482.6002, 1.151108
483.0823, 1.959641
483.5644, 2.141384
484.0465, 1.529110
484.5286, 0.9687160
485.0107, 0.8302270
485.4929, 0.9182620
485.9750, 1.028564
486.4571, 1.157677
486.9392, 1.226910
487.4213, 1.171413
487.9034, 1.023399
488.3856, 0.8077740
488.8677, 0.5041280
489.3498, 0.3190270
489.8319, 0.4802860
490.3140, 0.9630620
490.7961, 1.311462
491.2783, 1.558311
491.7604, 1.641705
492.2425, 1.388126
492.7246, 0.9771610
493.2067, 0.7959210
493.6888, 0.9819790
494.1710, 1.230850
494.6531, 1.039257
495.1352, 0.1486660
495.6173, 0.3546370
496.0994, 0.2074240
496.5815, 1.2749000E-02
497.0637, 4.7286998E-02
497.5458, 0.2490040
498.0279, 0.2028270
498.5100, 0.3402750
498.9921, 1.109596
499.4742, 1.407417
499.9564, 1.071884
500.4385, 0.6642380
500.9206, 5.3966999E-02
501.4027, 0.5722010
501.8848, 0.4264600
502.3669, 0.2930560
502.8491, 1.012600
503.3312, 1.358173
503.8133, 1.415150
504.2954, 1.373844
504.7775, 1.207130
505.2596, 1.071831
505.7418, 1.031769
506.2239, 1.074654
506.7060, 1.261272
507.1881, 1.705479
507.6702, 1.819016
508.1523, 0.8659590
508.6345, 0.4659610
509.1166, 0.9199680
509.5987, 0.3095020
510.0808, 0.5204470
510.5629, 0.9165760
511.0450, 0.9073330
511.5272, 0.9051740
512.0093, 0.8816760
512.4914, 0.8968160
512.9735, 0.9894790
513.4556, 1.121674
513.9377, 1.282074
514.4199, 1.453239
514.9020, 1.535229
515.3841, 1.360260
515.8662, 0.8505360
516.3483, 0.6227340
516.8304, 1.084915
517.3126, 1.400303
517.7947, 1.221992
518.2768, 0.7835080
518.7589, 0.4156070
519.2410, 0.2463000
519.7231, 0.2269820
520.2053, 0.3523250
520.6874, 0.6429520
521.1695, 0.7526360
521.6516, 0.4952960
522.1337, 0.2263830
522.6158, 0.2491530
523.0980, 0.4577980
523.5801, 0.5448190
524.0622, 0.3398400
524.5443, 2.8991999E-02
525.0264, 0.3010140
525.5085, 0.6078110
525.9907, 0.5515630
526.4728, 0.1049690
526.9549, 0.9101300
527.4370, 1.137985
527.9191, 0.6837160
528.4012, 0.3906250
528.8834, 0.4238050
529.3655, 0.5672760
529.8476, 0.7732090
530.3297, 0.9680020
530.8118, 0.9599950
531.2939, 0.6317600
531.7761, 0.1308210
532.2582, 0.1694220
532.7403, 0.1854740
533.2224, 0.1620330
533.7045, 0.2075650
534.1866, 0.1700060
534.6688, 0.1518480
535.1509, 0.6512450
535.6330, 1.008015
536.1151, 0.9913940
536.5972, 0.7178310
537.0793, 0.4553600
537.5615, 0.1677970
538.0436, 5.6286000E-02
538.5257, 0.3287090
539.0078, 0.6902010
539.4899, 0.9425580
539.9720, 1.071201
540.4542, 1.000103
540.9363, 0.4527820
541.4184, 0.2012180
541.9005, 0.3707350
542.3826, 5.9932999E-02
542.8647, 0.2642710
543.3469, 0.3550870
543.8290, 0.3105580
544.3111, 0.3859210
544.7932, 0.6186750
545.2753, 0.8582730
545.7574, 1.181427
546.2396, 1.433289
546.7217, 1.453995
547.2038, 1.263226
547.6859, 0.9860920
548.1680, 0.6952360
548.6501, 0.4161190
549.1323, 0.2738720
549.6144, 0.3870930
550.0965, 0.4337430
550.5786, 0.2702330
551.0607, 0.1165890
551.5428, 0.1456450
552.0250, 0.3548320
552.5071, 0.6109090
552.9892, 0.7699660
553.4713, 0.8943140
553.9534, 1.400326
554.4355, 2.444988
554.9177, 3.052525
555.3998, 2.541592
555.8819, 1.604393
556.3640, 1.180145
556.8461, 1.311211
557.3282, 1.557831
557.8104, 1.916847
558.2925, 2.201397
558.7746, 2.061310
559.2567, 1.524685
559.7388, 1.137650
560.2209, 1.251900
560.7031, 1.684517
561.1852, 1.943596
561.6673, 1.799503
562.1494, 1.803841
562.6315, 2.195072
563.1136, 2.555050
563.5958, 2.522999
564.0779, 2.156887
564.5600, 1.752079
565.0421, 1.487118
565.5242, 1.385399
566.0063, 1.632122
566.4885, 2.469944
566.9706, 2.804695
567.4527, 1.792122
567.9348, 0.7280770
568.4169, 0.6007420
568.8990, 1.336189
569.3812, 2.017365
569.8633, 2.078228
570.3454, 1.850327
570.8275, 1.744987
571.3096, 1.771008
571.7917, 2.027435
572.2739, 2.671341
572.7560, 3.386997
573.2381, 3.581490
573.7202, 3.147118
574.2023, 2.658360
574.6844, 1.921413
575.1666, 1.362381
575.6487, 1.404724
576.1308, 1.869038
576.6129, 2.249081
577.0950, 2.276421
577.5771, 2.142700
578.0593, 2.316685
578.5414, 3.024918
579.0235, 3.419388
579.5056, 3.314758
579.9877, 3.010456
580.4698, 2.339336
580.9520, 1.591675
581.4341, 1.435749
581.9162, 2.373978
582.3983, 3.594055
582.8804, 3.963272
583.3625, 3.554054
583.8447, 3.122475
584.3268, 2.862286
584.8089, 2.649361
585.2910, 2.306347
585.7731, 1.870201
586.2552, 1.778477
586.7374, 2.597988
587.2195, 3.222309
587.7016, 2.735069
588.1837, 1.750175
588.6658, 1.399632
589.1479, 2.005112
589.6301, 2.972355
590.1122, 3.607746
590.5943, 3.921970
591.0764, 3.938480
591.5585, 3.133621
592.0406, 2.642555
592.5228, 3.037411
593.0049, 3.748920
593.4870, 4.105324
593.9691, 3.937176
594.4512, 3.594421
594.9333, 3.349861
595.4155, 3.199905
595.8976, 3.122768
596.3797, 3.106537
596.8618, 3.260777
597.3439, 3.836647
597.8260, 4.550369
598.3082, 4.721943
598.7903, 4.165699
599.2724, 3.517082
599.7545, 2.769855
600.2366, 2.210224
600.7188, 2.224945
601.2009, 2.744759
601.6830, 3.309391
602.1651, 3.627335
602.6472, 3.716885
603.1293, 3.618668
603.6115, 3.120152
604.0936, 2.826565
604.5757, 3.020500
605.0578, 3.197762
605.5399, 2.926361
606.0220, 2.348904
606.5042, 1.988335
606.9863, 2.190842
607.4684, 2.660145
607.9505, 2.986790
608.4326, 3.169441
608.9147, 3.119247
609.3969, 2.677834
609.8790, 2.255974
610.3611, 2.429745
610.8432, 3.133301
611.3253, 3.512207
611.8074, 3.350449
612.2896, 2.979164
612.7717, 2.326172
613.2538, 1.642303
613.7359, 1.451744
614.2180, 1.884331
614.7001, 2.465622
615.1823, 2.651245
615.6644, 2.429111
616.1465, 2.028679
616.6286, 0.9765320
617.1107, 0.4250720
617.5928, 1.031967
618.0750, 2.036362
618.5571, 2.702827
619.0392, 2.884197
619.5213, 2.803776
620.0034, 2.477036
620.4855, 2.046619
620.9677, 1.830433
621.4498, 1.845280
621.9319, 2.014977
622.4140, 2.395859
622.8961, 2.810162
623.3782, 2.842632
623.8604, 2.379948
624.3425, 1.951817
624.8246, 1.414997
625.3067, 1.110626
625.7888, 1.543385
626.2709, 2.383160
626.7531, 2.776348
627.2352, 2.291420
627.7173, 1.454800
628.1994, 1.299503
628.6815, 2.007874
629.1636, 2.367393
629.6458, 2.053795
630.1279, 1.726360
630.6100, 1.801498
631.0921, 2.055088
631.5742, 2.094727
632.0563, 1.771915
632.5385, 1.384026
633.0206, 1.107746
633.5027, 0.9196590
633.9848, 0.7923740
634.4669, 0.7152750
634.9490, 0.6997380
635.4312, 0.7634620
635.9133, 0.9050940
636.3954, 1.123047
636.8775, 1.410835
637.3596, 1.780251
637.8417, 2.658741
638.3239, 3.269779
638.8060, 2.731106
639.2881, 1.383812
639.7702, 0.4253770
640.2523, 0.6042290
640.7344, 1.387699
641.2166, 1.849037
641.6987, 1.983059
642.1808, 1.917435
642.6629, 1.581154
643.1450, 1.205013
643.6271, 0.9719620
644.1093, 0.8824960
644.5914, 0.9661560
645.0735, 1.389332
645.5556, 1.779240
646.0377, 2.021057
646.5198, 2.042545
647.0020, 1.708096
647.4841, 1.055496
647.9662, 0.5385090
648.4483, 0.5960390
648.9304, 1.131962
649.4125, 1.467300
649.8947, 1.509640
650.3768, 1.444115
650.8589, 1.256786
651.3410, 1.021442
651.8231, 0.6977500
652.3052, 0.3464970
652.7874, 0.2141530
653.2695, 0.5441440
653.7516, 1.038738
654.2337, 1.335030
654.7158, 1.470638
655.1979, 1.672565
655.6801, 2.043255
656.1622, 2.295284
656.6443, 2.052078
657.1264, 1.273880
657.6085, 0.7869570
658.0906, 0.6608540
658.5728, 0.6934810
659.0549, 0.9736820
659.5370, 1.306183
660.0191, 1.501240
660.5012, 1.530518
660.9833, 1.482086
661.4655, 1.443195
661.9476, 1.373657
662.4297, 1.096607
662.9118, 0.5742450
663.3939, 0.1724740
663.8760, 6.3860002E-03
664.3582, 1.5986999E-02
664.8403, 0.1895600
665.3224, 0.5111010
665.8045, 0.7682000
666.2866, 0.8393630
666.7687, 0.9299050
667.2509, 1.314667
667.7330, 1.741756
668.2151, 1.726803
668.6972, 1.178253
669.1793, 0.5008510
669.6614, 7.8925997E-02
670.1436, 8.8032000E-02
670.6257, 1.2470000E-02
671.1078, 0.5709720
671.5899, 1.003170
672.0720, 1.052727
672.5541, 0.9804080
673.0363, 1.010300
673.5184, 1.136227
674.0005, 1.158112
674.4826, 0.8390460
674.9647, 0.4980960
675.4468, 0.4758990
675.9290, 0.6977960
676.4111, 0.9692340
676.8932, 1.232574
677.3753, 1.400291
677.8574, 1.342106
678.3395, 1.043831
678.8217, 0.8907390
679.3038, 1.003353
679.7859, 1.113293
680.2680, 1.213848
680.7501, 1.267479
681.2322, 1.225945
681.7144, 1.095848
682.1965, 0.9442860
682.6786, 0.7999380
683.1607, 0.6724050
683.6428, 0.5690650
684.1249, 0.4930190
684.6071, 0.5013120
685.0892, 0.6409420
685.5713, 0.7541350
686.0534, 0.6334530
686.5355, 0.2582210
687.0176, 2.3651000E-02
687.4998, 4.7782999E-02
687.9819, 2.2419000E-02
688.4640, 0.2579690
688.9461, 0.5175900
689.4282, 0.3949580
689.9103, 8.6254001E-02
690.3925, 0.5264890
690.8746, 0.6328740
691.3567, 0.4775510
691.8388, 0.1398740
692.3209, 0.3974150
692.8030, 0.6605420
693.2852, 0.4012760
693.7673, 6.4425997E-02
694.2494, 0.1724170
694.7315, 0.6847880
695.2136, 0.9381680
695.6957, 0.7622950
696.1779, 0.5027470
696.6600, 0.1249120
697.1421, 0.1852260
697.6242, 0.1556930
698.1063, 0.1918490
698.5884, 0.5731470
699.0706, 0.7994000
699.5527, 0.8570630
700.0348, 0.6609230
700.5169, 0.1637500
700.9990, 0.2954560
701.4811, 0.6961360
701.9633, 0.9813160
702.4454, 1.153458
702.9275, 1.181435
703.4096, 0.9074330
703.8917, 3.4889001E-02
704.3738, 0.8066140
704.8560, 1.038738
705.3381, 0.9264910
705.8202, 0.5452800
706.3023, 1.8444000E-02
706.7844, 0.2723200
707.2665, 4.0194999E-02
707.7487, 0.5153500
708.2308, 0.8663520
708.7129, 0.9988780
709.1950, 0.9814340
709.6771, 0.7371250
710.1592, 0.4545250
710.6414, 0.2149510
711.1235, 3.1925000E-02
711.6056, 6.8378001E-02
712.0877, 0.1042060
712.5698, 3.2160000E-03
713.0519, 0.4523890
713.5341, 0.9531590
714.0162, 1.078053
714.4983, 0.8637200
714.9804, 0.6444130
715.4625, 0.6088370
715.9446, 0.6871190
716.4268, 0.7362100
716.9089, 0.7533950
717.3910, 0.7583960
717.8731, 0.7949140
718.3552, 0.7564130
718.8373, 0.5155980
719.3195, 0.2048530
719.8016, 1.7391000E-02
720.2837, 0.1512530
720.7658, 6.6200003E-02
721.2479, 0.5167080
721.7300, 1.189564
722.2122, 1.564648
722.6943, 1.644428
723.1764, 1.493114
723.6585, 1.137020
724.1406, 0.7105980
724.6227, 0.4035260
725.1049, 0.2090950
725.5870, 0.2023890
726.0691, 0.5892490
726.5512, 0.8278730
727.0333, 0.5281680
727.5154, 0.1197430
727.9976, 3.4878001E-02
728.4797, 0.3220750
728.9618, 0.7190440
729.4439, 1.323078
729.9260, 1.799290
730.4081, 1.758873
730.8903, 1.357227
731.3724, 0.9144060
731.8545, 0.5385550
732.3366, 0.3259700
732.8187, 0.4065780
733.3008, 0.7502630
733.7830, 1.002670
734.2651, 1.190392
734.7472, 1.228249
735.2293, 0.8906210
735.7114, 0.5663030
736.1935, 0.6221310
736.6757, 0.9610370
737.1578, 1.110065
737.6399, 0.7888340
738.1220, 0.4152530
738.6041, 0.2123600
739.0862, 0.1617240
739.5684, 0.3013880
740.0505, 0.5964740
740.5326, 0.8349110
741.0147, 0.8500710
741.4968, 0.7345770
741.9789, 0.8064610
742.4611, 1.174889
742.9432, 1.316315
743.4253, 1.016418
743.9074, 0.6878430
744.3895, 0.5978200
744.8716, 0.6283380
745.3538, 0.5482250
745.8359, 0.2593350
746.3180, 9.4214998E-02
746.8001, 0.3699950
747.2822, 0.7054250
747.7643, 0.5656970
748.2465, 9.2579000E-02
748.7286, 6.6119999E-02
749.2107, 0.3923340
749.6928, 1.047066
750.1749, 1.220135
750.6570, 0.8697470
751.1392, 0.6137960
751.6213, 0.4552800
752.1034, 0.3781200
752.5855, 0.3624230
753.0676, 0.4315720
753.5497, 0.6998790
754.0319, 1.179600
754.5140, 1.369171
754.9961, 0.7870290
755.4782, 0.2459300
755.9603, 0.2959520
756.4424, 0.6768680
756.9246, 1.015709
757.4067, 1.222145
757.8888, 1.388866
758.3709, 1.604763
758.8530, 1.815704
759.3351, 1.911392
759.8173, 1.898262
760.2994, 1.758408
760.7815, 1.415417
761.2636, 1.115562
761.7457, 1.131401
762.2278, 1.351410
762.7100, 1.465931
763.1921, 1.445831
763.6742, 1.356445
764.1563, 1.127815
764.6384, 0.8894620
765.1205, 0.8442150
765.6027, 0.9072880
766.0848, 0.8121950
766.5669, 0.4252780
767.0490, 2.9808000E-02
767.5311, 6.7149997E-02
768.0132, 0.4463620
768.4954, 0.6390340
768.9775, 0.5909840
769.4596, 0.5464060
769.9417, 0.6236530
770.4238, 0.7851030
770.9059, 0.9594380
771.3881, 1.154404
771.8702, 1.319633
772.3523, 1.337902
772.8344, 1.466301
773.3165, 2.075302
773.7986, 2.673512
774.2808, 2.573395
774.7629, 1.781361
775.2450, 1.075893
775.7271, 1.005253
776.2092, 1.289883
776.6913, 1.612103
777.1735, 1.941059
777.6556, 2.150745
778.1377, 2.209404
778.6198, 2.113945
779.1019, 1.801052
779.5840, 1.359520
780.0662, 1.280060
780.5483, 1.847061
781.0304, 2.236256
781.5125, 2.306480
781.9946, 2.283421
782.4767, 2.185966
782.9589, 2.095734
783.4410, 2.193310
783.9231, 2.576717
784.4052, 2.870171
784.8873, 2.778625
785.3694, 2.520119
785.8516, 2.345718
786.3337, 2.249706
786.8158, 2.135666
787.2979, 1.965637
787.7800, 1.786587
788.2621, 1.606865
788.7443, 1.440441
789.2264, 1.757500
789.7085, 2.810562
790.1906, 3.658360
790.6727, 4.155556
791.1548, 4.213348
791.6370, 3.461464
792.1191, 2.068802
792.6012, 1.278412
793.0833, 1.662952
793.5654, 2.185745
794.0475, 2.485298
794.5297, 2.713852
795.0118, 3.015827
795.4939, 3.403522
795.9760, 3.879295
796.4581, 4.475296
796.9402, 4.957157
797.4224, 4.845650
797.9045, 4.251873
798.3866, 3.957272
798.8687, 4.055717
799.3508, 4.173813
799.8329, 4.098270
800.3151, 3.970577
800.7972, 4.081146
801.2793, 4.553467
801.7614, 4.773563
802.2435, 4.489220
802.7256, 4.287697
803.2078, 4.424778
803.6899, 4.673214
804.1720, 4.819210
804.6541, 4.831127
805.1362, 4.749554
805.6183, 4.505924
806.1005, 4.285519
806.5826, 4.266674
807.0647, 4.423191
807.5468, 4.791496
808.0289, 5.334473
808.5110, 5.690205
808.9932, 5.585114
809.4753, 5.177296
809.9574, 4.854935
810.4395, 4.595543
810.9216, 4.521015
811.4037, 4.673016
811.8859, 4.954418
812.3680, 5.565186
812.8501, 6.159184
813.3322, 6.126183
813.8143, 5.320957
814.2964, 4.779568
814.7786, 4.915939
815.2607, 5.189373
815.7428, 5.336853
816.2249, 5.399754
816.7070, 5.457237
817.1891, 5.523682
817.6713, 5.558319
818.1534, 5.504997
818.6355, 5.439205
819.1176, 5.596382
819.5997, 5.919312
820.0818, 5.893742
820.5640, 5.389400
821.0461, 4.886868
821.5282, 4.716068
822.0103, 4.804180
822.4924, 4.939575
822.9745, 5.173515
823.4567, 5.341007
823.9388, 5.527954
824.4209, 5.551933
824.9030, 5.124866
825.3851, 4.613075
825.8672, 4.530403
826.3494, 4.941494
826.8315, 5.358776
827.3136, 5.703506
827.7957, 5.822552
828.2778, 5.365589
828.7599, 4.662552
829.2421, 4.335487
829.7242, 4.476341
830.2063, 4.764427
830.6884, 4.987659
831.1705, 5.102341
831.6526, 4.901184
832.1348, 4.364372
832.6169, 4.200241
833.0990, 4.602734
833.5811, 5.022011
834.0632, 5.156265
834.5453, 5.077065
835.0275, 4.955170
835.5096, 4.773506
835.9917, 4.599442
836.4738, 4.433022
836.9559, 4.273045
837.4380, 4.076565
837.9202, 3.911564
838.4023, 3.852303
838.8844, 3.905338
839.3665, 4.036804
839.8486, 4.377045
840.3307, 4.603043
840.8129, 4.289803
841.2950, 3.694935
841.7771, 3.238342
842.2592, 2.965775
842.7413, 2.812702
843.2234, 2.768097
843.7056, 2.825230
844.1877, 2.977802
844.6698, 3.250526
845.1519, 3.267841
845.6340, 2.901264
846.1161, 2.642521
846.5983, 2.717220
847.0804, 2.947292
847.5625, 3.140625
848.0446, 3.309116
848.5267, 3.362728
849.0089, 3.198997
849.4910, 2.991611
849.9731, 2.748726
850.4552, 2.523312
850.9373, 2.318436
851.4194, 2.152401
851.9016, 2.105526
852.3837, 2.257076
852.8658, 2.443291
853.3479, 2.475174
853.8300, 2.455856
854.3121, 2.599960
854.7943, 2.881996
855.2764, 3.116749
855.7585, 3.223770
856.2406, 3.253536
856.7227, 3.309193
857.2048, 3.355900
857.6870, 2.945824
858.1691, 1.899734
858.6512, 1.109413
859.1333, 0.8355290
859.6154, 0.8248410
860.0975, 0.8978540
860.5797, 1.050705
861.0618, 1.264439
861.5439, 1.833584
862.0260, 1.974239
862.5081, 1.103569
862.9902, 0.2863960
863.4724, 0.2168080
863.9545, 0.6104740
864.4366, 1.011333
864.9187, 1.303829
865.4008, 1.441357
865.8829, 1.091026
866.3651, 0.6983950
866.8472, 0.9558180
867.3293, 1.573128
867.8114, 1.745762
868.2935, 1.359440
868.7756, 1.066792
869.2578, 1.405537
869.7399, 1.149784
870.2220, 1.169788
870.7041, 1.400078
871.1862, 1.218655
871.6683, 1.805191
872.1505, 2.114479
872.6326, 1.419292
873.1147, 0.3708000
873.5968, 6.9968998E-02
874.0789, 0.7035680
874.5610, 1.114052
875.0432, 1.107967
875.5253, 1.142517
876.0074, 1.482971
876.4895, 1.772449
876.9716, 1.602139
877.4537, 1.095253
877.9359, 0.7781140
878.4180, 0.8817060
878.9001, 1.067749
879.3822, 1.190517
879.8643, 1.238991
880.3464, 1.192894
880.8286, 1.062454
881.3107, 0.8264470
881.7928, 0.4949000
882.2749, 0.2573510
882.7570, 0.3824420
883.2391, 0.7292370
883.7213, 0.8468970
884.2034, 0.7504350
884.6855, 0.6248590
885.1676, 0.4990310
885.6497, 0.4723890
886.1318, 0.6634790
886.6140, 0.9661030
887.0961, 1.001839
887.5782, 0.6239280
888.0603, 0.3555830
888.5424, 0.1882780
889.0245, 0.1455760
889.5067, 0.4090080
889.9888, 0.7000050
890.4709, 0.6237910
890.9530, 0.1720200
891.4351, 0.1022190
891.9172, 2.2507001E-02
892.3994, 0.2091670
892.8815, 0.4044420
893.3636, 0.5342030
893.8457, 0.4443660
894.3278, 0.2295230
894.8099, 0.1788790
895.2921, 0.4297070
895.7742, 0.7450940
896.2563, 1.010525
896.7384, 1.137878
897.2205, 0.9019320
897.7026, 0.3739360
898.1848, 0.2186130
898.6669, 0.7900890
899.1490, 1.116360
899.6311, 0.9420890
900.1132, 0.4016880
900.5953, 2.7752001E-02
901.0775, 0.3513830
901.5596, 0.4940640
902.0417, 0.4055940
902.5238, 0.2365490
903.0059, 3.0781001E-02
903.4880, 0.1304510
903.9702, 4.4247001E-02
904.4523, 0.4316790
904.9344, 0.5777090
905.4165, 5.7498999E-02
905.8986, 0.3570020
906.3807, 0.4442410
906.8629, 0.4016000
907.3450, 0.4136730
907.8271, 0.4558070
908.3092, 0.3805690
908.7913, 0.1330110
909.2734, 0.2012600
909.7556, 0.7080230
910.2377, 1.179413
910.7198, 1.452503
911.2019, 1.540359
911.6840, 1.480602
912.1661, 1.291599
912.6483, 1.011932
913.1304, 0.5968440
913.6125, 0.1772040
914.0946, 1.8524000E-02
914.5767, 3.4256000E-02
915.0588, 7.8619998E-03
915.5410, 3.8654000E-02
916.0231, 0.1700940
916.5052, 0.4411740
916.9873, 0.7429280
917.4694, 0.8548620
917.9515, 0.7701110
918.4337, 0.6704140
918.9158, 0.5389100
919.3979, 0.4863200
919.8800, 0.5321390
920.3621, 0.6666790
920.8442, 0.9948620
921.3264, 1.460888
921.8085, 1.431759
922.2906, 0.3068010
922.7727, 0.3278120
923.2548, 9.3379997E-02
923.7369, 0.2905960
924.2191, 0.5325050
924.7012, 0.6749800
925.1833, 0.9225500
925.6654, 1.268299
926.1475, 1.459690
926.6296, 1.150486
927.1118, 0.9482040
927.5939, 1.392097
928.0760, 1.980400
928.5581, 2.204800
929.0402, 2.039650
929.5223, 1.584034
930.0045, 0.8105810
930.4866, 0.2381900
930.9687, 0.5832410
931.4508, 1.276413
931.9329, 1.399685
932.4150, 1.077095
932.8972, 0.8075490
933.3793, 0.7373540
933.8614, 0.7717020
934.3435, 0.8499600
934.8256, 0.9304540
935.3077, 0.8681490
935.7899, 0.6786800
936.2720, 0.6416930
936.7541, 0.8037950
937.2362, 0.9338260
937.7183, 0.9190250
938.2004, 0.8068620
938.6826, 0.6493450
939.1647, 0.4446370
939.6468, 0.3554340
940.1289, 0.3866840
940.6110, 0.5251770
941.0931, 0.8957820
941.5753, 1.205986
942.0574, 1.208809
942.5395, 1.003910
943.0216, 0.8525890
943.5037, 0.7442740
943.9858, 0.7199940
944.4680, 0.8855900
944.9501, 1.011494
945.4322, 0.8889730
945.9143, 0.7730060
946.3964, 1.047916
946.8785, 1.609280
947.3607, 1.863976
947.8428, 1.457054
948.3249, 1.059975
948.8070, 1.096481
949.2891, 1.245647
949.7712, 1.196884
950.2534, 1.038902
950.7355, 1.025639
951.2176, 1.206097
951.6997, 1.361519
952.1818, 1.236500
952.6639, 1.114346
953.1461, 1.547756
953.6282, 2.255932
954.1103, 2.470036
954.5924, 2.181793
955.0745, 1.860817
955.5566, 1.736294
956.0388, 1.682938
956.5209, 1.542645
957.0030, 1.337326
957.4851, 1.126087
957.9672, 0.9310380
958.4493, 0.6926570
958.9315, 0.3426360
959.4136, 0.2027130
959.8957, 0.5595510
960.3778, 1.201408
960.8599, 1.580750
961.3420, 1.651920
961.8242, 1.656204
962.3063, 1.546490
962.7884, 1.495132
963.2705, 1.569572
963.7526, 1.686260
964.2347, 1.870037
964.7169, 2.089062
965.1990, 2.043697
965.6811, 1.295971
966.1632, 0.9619980
966.6453, 1.549278
967.1274, 1.994381
967.6096, 1.681580
968.0917, 1.050110
968.5738, 0.6366840
969.0559, 0.4787900
969.5380, 0.3928720
970.0201, 0.3353460
970.5023, 0.3369670
970.9844, 0.4318350
971.4665, 0.5636630
971.9486, 0.7268790
972.4307, 0.8862270
972.9128, 0.9590640
973.3950, 0.9263150
973.8771, 0.8968200
974.3592, 1.006908
974.8413, 1.067440
975.3234, 0.8650780
975.8055, 0.5351370
976.2877, 0.1892090
976.7698, 8.7275997E-02
977.2519, 6.9812998E-02
977.7340, 0.3613010
978.2161, 0.8230320
978.6982, 0.8466530
979.1804, 1.031296
979.6625, 0.6735190
980.1446, 0.8260540
980.6267, 0.6235620
981.1088, 7.5370997E-02
981.5909, 0.2360340
982.0731, 0.1091460
982.5552, 0.2042050
983.0373, 0.5810130
983.5194, 5.0156001E-02
984.0015, 0.1849250
984.4836, 0.2053450
984.9658, 0.5703050
985.4479, 0.7396320
985.9300, 0.8249890
986.4121, 0.9381450
986.8942, 1.043995
987.3763, 0.9317700
987.8585, 0.5363160
988.3406, 0.3910750
988.8227, 0.6182480
989.3048, 0.8348770
989.7869, 0.8791350
990.2690, 0.8575970
990.7512, 0.9163280
991.2333, 1.035881
991.7154, 0.9617000
992.1975, 0.4955020
992.6796, 0.2648580
993.1617, 0.4271160
993.6439, 0.6692010
994.1260, 0.9436230
994.6081, 1.159779
995.0902, 1.163368
995.5723, 0.9470600
996.0544, 0.7350540
996.5366, 0.3074190
997.0187, 0.2069930
997.5008, 0.9313050
997.9829, 1.594189
998.4650, 1.601231
998.9471, 1.204521
999.4293, 0.8041230
999.9114, 0.4434780
1000.393, 0.2444420
1000.876, 0.2708320
1001.358, 0.4305080
1001.840, 0.9057120
1002.322, 1.314766
1002.804, 1.210060
1003.286, 0.7672000
1003.768, 0.5760800
1004.250, 0.8153040
1004.733, 0.9840160
1005.215, 0.6706500
1005.697, 0.3409270
1006.179, 0.3627590
1006.661, 0.5645410
1007.143, 0.7557490
1007.625, 0.8967550
1008.107, 0.9979440
1008.589, 1.065697
1009.072, 1.068176
1009.554, 0.9905660
1010.036, 0.8209190
1010.518, 0.3164560
1011.000, 0.2012560
1011.482, 0.1237490
1011.964, 1.182404
1012.446, 1.772934
1012.929, 1.190460
1013.411, 0.4054450
1013.893, 0.8146900
1014.375, 1.747421
1014.857, 1.728146
1015.339, 1.000118
1015.821, 0.5193100
1016.303, 0.4975090
1016.785, 0.6367420
1017.268, 0.7406120
1017.750, 0.8856160
1018.232, 1.292591
1018.714, 1.829777
1019.196, 1.875454
1019.678, 1.476124
1020.160, 1.224995
1020.642, 1.283831
1021.125, 1.374886
1021.607, 1.271051
1022.089, 1.064457
1022.571, 0.9736540
1023.053, 0.9899810
1023.535, 0.8962150
1024.017, 0.6690600
1024.499, 0.8437500
1024.981, 1.667427
1025.464, 2.302288
1025.946, 1.915295
1026.428, 0.8809190
1026.910, 0.3893180
1027.392, 0.4942320
1027.874, 0.6488700
1028.356, 0.8558180
1028.838, 1.023464
1029.321, 1.131662
1029.803, 1.153225
1030.285, 1.035627
1030.767, 0.8030570
1031.249, 0.6649950
1031.731, 0.6628650
1032.213, 0.6557390
1032.695, 0.5610710
1033.177, 0.4209790
1033.660, 0.1303840
1034.142, 1.1909000E-02
1034.624, 0.4355660
1035.106, 1.313635
1035.588, 1.503403
1036.070, 0.5195730
1036.552, 1.5024000E-02
1037.034, 9.4847001E-02
1037.516, 0.3773460
1037.999, 0.7727300
1038.481, 1.145512
1038.963, 1.355019
1039.445, 1.395599
1039.927, 1.360264
1040.409, 1.058321
1040.891, 0.9597820
1041.373, 1.218054
1041.855, 1.420816
1042.338, 1.520805
1042.820, 1.445637
1043.302, 1.001619
1043.784, 0.2682340
1044.266, 0.1526050
1044.748, 5.0469998E-02
1045.230, 4.1779000E-02
1045.712, 4.6363998E-02
1046.195, 0.1008280
1046.677, 0.3781030
1047.159, 0.6401230
1047.641, 0.5012170
1048.123, 6.3268997E-02
1048.605, 5.9778001E-02
1049.087, 0.9665180
1049.569, 1.584856
1050.052, 1.523520
1050.534, 1.396036
1051.016, 1.477505
1051.498, 1.645182
1051.980, 1.774630
1052.462, 1.848490
1052.944, 1.872030
1053.426, 1.900913
1053.908, 1.774332
1054.391, 1.302109
1054.873, 0.8418030
1055.355, 0.5614190
1055.837, 0.3994810
1056.319, 0.2696340
1056.801, 0.1800560
1057.283, 0.2176930
1057.765, 0.5018330
1058.248, 0.7067150
1058.730, 0.7694570
1059.212, 0.6860100
1059.694, 0.1448970
1060.176, 0.3381210
1060.658, 2.6070001E-03
1061.140, 0.9763850
1061.622, 1.609783
1062.104, 1.522825
1062.587, 1.387419
1063.069, 1.490057
1063.551, 1.558519
1064.033, 1.371695
1064.515, 1.112091
1064.997, 1.041109
1065.479, 1.104555
1065.961, 0.9702570
1066.443, 0.4264320
1066.926, 0.1570300
1067.408, 0.6942010
1067.890, 1.309801
1068.372, 1.649960
1068.854, 1.752197
1069.336, 1.669737
1069.818, 1.444914
1070.300, 1.170200
1070.782, 0.8363190
1071.265, 0.6294780
1071.747, 0.6820240
1072.229, 0.8301160
1072.711, 1.048706
1073.193, 1.252281
1073.675, 1.341167
1074.157, 1.335413
1074.639, 1.318008
1075.122, 1.313538
1075.604, 1.280710
1076.086, 1.138626
1076.568, 1.036449
1077.050, 1.135080
1077.532, 1.259172
1078.014, 1.168385
1078.496, 0.9572910
1078.979, 0.9104100
1079.461, 1.107630
1079.943, 1.321814
1080.425, 1.638857
1080.907, 1.711159
1081.389, 0.8469960
1081.871, 7.4606001E-02
1082.353, 0.7132550
1082.835, 2.128006
1083.318, 2.834970
1083.800, 2.502253
1084.282, 1.950085
1084.764, 1.268877
1085.246, 0.7879910
1085.728, 0.9176790
1086.210, 1.089521
1086.692, 0.6336960
1087.175, 7.2554000E-02
1087.657, 0.1868110
1088.139, 0.3853440
1088.621, 0.6843760
1089.103, 0.1264840
1089.585, 0.6476500
1090.067, 0.1270770
1090.549, 1.020662
1091.031, 1.081722
1091.514, 0.6777400
1091.996, 0.3925590
1092.478, 0.3211770
1092.960, 0.3540120
1093.442, 0.5380840
1093.924, 0.6622580
1094.406, 0.5845360
1094.888, 0.4914230
1095.370, 0.5187190
1095.853, 0.5913240
1096.335, 0.6119840
1096.817, 0.5763720
1097.299, 0.5100780
1097.781, 0.3402040
1098.263, 0.3474660
1098.745, 0.8289340
1099.227, 1.262676
1099.709, 1.394680
1100.192, 1.324627
1100.674, 1.094456
1101.156, 0.7712150
1101.638, 0.5303460
1102.120, 0.4223650
1102.602, 0.3090060
1103.084, 7.7297002E-02
1103.566, 7.9535998E-02
1104.049, 0.1138520
1104.531, 1.5728001E-02
1105.013, 0.3204590
1105.495, 0.7731190
1105.977, 1.067104
1106.459, 1.101091
1106.941, 1.086813
1107.423, 1.118200
1107.906, 1.015305
1108.388, 0.5613250
1108.870, 0.1325450
1109.352, 5.4667000E-02
1109.834, 3.4421999E-02
1110.316, 0.1894190
1110.798, 0.6336000
1111.280, 0.8723770
1111.762, 0.7134280
1112.245, 0.5898090
1112.727, 0.6229480
1113.209, 0.6239220
1113.691, 0.4783820
1114.173, 0.2641530
1114.655, 5.5999998E-03
1115.137, 0.2730310
1115.619, 0.2514500
1116.102, 0.2944980
1116.584, 0.7462600
1117.066, 1.165417
1117.548, 1.379080
1118.030, 1.181108
1118.512, 0.9095500
1118.994, 0.8171310
1119.476, 0.8746150
1119.958, 0.9906690
1120.441, 1.255131
1120.923, 1.270617
1121.405, 0.8717120
1121.887, 0.6043470
1122.369, 0.7177470
1122.851, 0.7751830
1123.333, 0.3366510
1123.815, 0.2529600
1124.297, 0.1575760
1124.780, 0.7135940
1125.262, 1.031342
1125.744, 0.5903340
1126.226, 0.3477780
1126.708, 0.4858280
1127.190, 0.8159220
1127.672, 1.337393
1128.154, 1.718668
1128.636, 1.376852
1129.119, 0.4539620
1129.601, 0.2203750
1130.083, 0.7621750
1130.565, 0.9738600
1131.047, 0.6966610
1131.529, 0.5629840
1132.011, 0.8422220
1132.493, 1.249088
1132.976, 1.519003
1133.458, 1.642126
1133.940, 1.559118
1134.422, 1.285736
1134.904, 0.9509470
1135.386, 0.5782700
1135.868, 0.5753650
1136.350, 1.041876
1136.833, 1.391346
1137.315, 1.192770
1137.797, 0.7517680
1138.279, 0.5671460
1138.761, 0.5731850
1139.243, 0.4879230
1139.725, 0.3707810
1140.207, 0.6008610
1140.689, 1.154531
1141.172, 1.463089
1141.654, 1.260126
1142.136, 0.9185430
1142.618, 0.7867220
1143.100, 0.8239800
1143.582, 1.118059
1144.064, 1.461309
1144.546, 1.329004
1145.029, 0.8352550
1145.511, 0.4599760
1145.993, 0.3679450
1146.475, 0.4401840
1146.957, 0.6352940
1147.439, 0.8288880
1147.921, 1.045940
1148.403, 1.197527
1148.885, 1.232861
1149.368, 1.169428
1149.850, 0.8214740
1150.332, 0.3329490
1150.814, 0.2638340
1151.296, 0.9324840
1151.778, 1.497129
1152.260, 1.385288
1152.742, 1.075151
1153.224, 0.7663650
1153.707, 0.5298560
1154.189, 0.4624560
1154.671, 0.5062010
1155.153, 0.4945660
1155.635, 0.4057540
1156.117, 0.4736520
1156.599, 1.091932
1157.081, 1.489838
1157.563, 1.104406
1158.046, 0.7814520
1158.528, 1.257599
1159.010, 1.971109
1159.492, 2.106396
1159.974, 1.702375
1160.456, 1.475937
1160.938, 1.709389
1161.420, 1.674568
1161.903, 1.171194
1162.385, 0.6438880
1162.867, 5.9680998E-02
1163.349, 0.4218310
1163.831, 0.2140520
1164.313, 1.365005
1164.795, 1.754599
1165.277, 1.290028
1165.760, 1.139095
1166.242, 1.445633
1166.724, 1.693691
1167.206, 1.813908
1167.688, 1.946966
1168.170, 2.213972
1168.652, 2.343718
1169.134, 1.926880
1169.616, 1.127962
1170.099, 0.7493270
1170.581, 0.7956640
1171.063, 0.8548760
1171.545, 0.9016530
1172.027, 0.9437730
1172.509, 0.9827080
1172.991, 1.098709
1173.473, 1.412659
1173.956, 1.695745
1174.438, 1.378445
1174.920, 0.7053930
1175.402, 0.4970000
1175.884, 0.6497970
1176.366, 0.7704520
1176.848, 0.8129010
1177.330, 0.9253410
1177.813, 1.158316
1178.295, 1.402908
1178.777, 1.610975
1179.259, 1.715115
1179.741, 1.517441
1180.223, 1.244274
1180.705, 1.272154
1181.187, 1.473520
1181.669, 1.507481
1182.151, 1.359312
1182.634, 1.239990
1183.116, 1.244514
1183.598, 1.234570
1184.080, 1.149933
1184.562, 0.9999050
1185.044, 0.5816040
1185.526, 0.2731440
1186.008, 0.6257130
1186.490, 1.363390
1186.973, 1.770042
1187.455, 1.711021
1187.937, 1.653109
1188.419, 1.835464
1188.901, 1.801971
1189.383, 1.054472
1189.865, 0.5507680
1190.347, 1.084843
1190.830, 1.864740
1191.312, 2.042116
1191.794, 1.721489
1192.276, 1.403223
1192.758, 1.018412
1193.240, 0.8794860
1193.722, 1.049307
1194.204, 1.331987
1194.687, 1.812763
1195.169, 1.913675
1195.651, 1.125193
1196.133, 0.1653630
1196.615, 0.2649990
1197.097, 1.194214
1197.579, 1.489883
1198.061, 1.194363
1198.543, 1.100180
1199.026, 1.267498
1199.508, 1.359055
1199.990, 1.270708
1200.472, 1.328686
1200.954, 1.835869
1201.436, 2.407881
1201.918, 2.405497
1202.400, 2.077129
1202.883, 1.847088
1203.365, 1.740021
1203.847, 1.836767
1204.329, 2.045549
1204.811, 2.216820
1205.293, 2.276184
1205.775, 1.994419
1206.257, 0.7405820
1206.740, 0.2493040
1207.222, 0.2184010
1207.704, 1.064529
1208.186, 1.411837
1208.668, 1.416235
1209.150, 1.319746
1209.632, 1.209587
1210.114, 1.310946
1210.596, 1.850758
1211.078, 2.020897
1211.561, 1.390141
1212.043, 0.7483020
1212.525, 6.6099003E-02
1213.007, 0.2535900
1213.489, 0.3463100
1213.971, 1.227049
1214.453, 1.336800
1214.935, 0.7300990
1215.417, 0.4207360
1215.900, 0.4727540
1216.382, 0.5856990
1216.864, 0.7506580
1217.346, 0.9473110
1217.828, 1.168440
1218.310, 1.444294
1218.792, 1.824789
1219.274, 2.183205
1219.757, 2.366377
1220.239, 2.310787
1220.721, 1.381556
1221.203, 0.1264130
1221.685, 0.3723450
1222.167, 0.5498290
1222.649, 0.8902240
1223.131, 0.1019820
1223.614, 0.5828040
1224.096, 0.1735360
1224.578, 0.5581530
1225.060, 0.8713070
1225.542, 0.9325470
1226.024, 0.7965600
1226.506, 0.6359600
1226.988, 0.7228910
1227.470, 0.9989170
1227.953, 1.185961
1228.435, 1.214369
1228.917, 1.300449
1229.399, 1.674158
1229.881, 1.911753
1230.363, 1.852547
1230.845, 1.643158
1231.327, 1.281727
1231.810, 0.8840980
1232.292, 0.5552140
1232.774, 0.3028450
1233.256, 0.1653820
1233.738, 0.1710660
1234.220, 0.1482180
1234.702, 4.4559999E-03
1235.184, 0.1920490
1235.667, 0.9276620
1236.149, 1.439899
1236.631, 1.283430
1237.113, 0.9069610
1237.595, 0.8172210
1238.077, 0.9780690
1238.559, 1.369614
1239.041, 1.918121
1239.523, 2.288080
1240.005, 2.456316
1240.488, 2.309874
1240.970, 1.894938
1241.452, 1.636919
1241.934, 1.746784
1242.416, 1.801004
1242.898, 1.228710
1243.380, 0.6233020
1243.862, 0.5505280
1244.344, 0.7951450
1244.827, 1.271431
1245.309, 1.796457
1245.791, 2.158131
1246.273, 2.278507
1246.755, 2.181942
1247.237, 1.752211
1247.719, 1.360062
1248.201, 0.9422910
1248.684, 0.7781770
1249.166, 1.219915
1249.648, 1.587450
1250.130, 1.544542
1250.612, 1.293024
1251.094, 1.140800
1251.576, 1.079380
1252.058, 1.031292
1252.541, 0.9966130
1253.023, 0.9339200
1253.505, 0.7930030
1253.987, 1.011702
1254.469, 1.786514
1254.951, 2.061419
1255.433, 1.512302
1255.915, 0.7638050
1256.397, 0.7313330
1256.880, 1.065294
1257.362, 1.159346
1257.844, 1.060759
1258.326, 0.7270680
1258.808, 0.3264830
1259.290, 0.3090080
1259.772, 0.6323180
1260.254, 0.6476020
1260.737, 3.3617001E-02
1261.219, 0.1690330
1261.701, 1.246458
1262.183, 2.317640
1262.665, 1.686687
1263.147, 0.7999190
1263.629, 0.7365440
1264.111, 1.063635
1264.594, 1.162060
1265.076, 1.028490
1265.558, 0.7642210
1266.040, 0.2697320
1266.522, 3.2919999E-03
1267.004, 2.5915001E-02
1267.486, 6.4537004E-02
1267.968, 0.2409250
1268.450, 0.5852490
1268.932, 1.176443
1269.415, 1.703365
1269.897, 1.794680
1270.379, 1.631781
1270.861, 1.664904
1271.343, 1.800352
1271.825, 1.693213
1272.307, 1.444862
1272.789, 1.516945
1273.271, 1.836077
1273.754, 1.695328
1274.236, 0.9987660
1274.718, 0.5489010
1275.200, 1.210501
1275.682, 1.840662
1276.164, 1.694483
1276.646, 1.282333
1277.128, 0.9286020
1277.611, 0.6207520
1278.093, 0.2773020
1278.575, 2.1410000E-02
1279.057, 4.1228998E-02
1279.539, 0.5373400
1280.021, 0.8373130
1280.503, 0.7846220
1280.985, 0.9999890
1281.468, 1.722683
1281.950, 2.056467
1282.432, 1.536516
1282.914, 0.8733390
1283.396, 0.3322090
1283.878, 6.5040002E-03
1284.360, 0.1555520
1284.842, 0.3052520
1285.324, 0.0000000E+00
##END=



