##NAMES=Gudmundite
##RRUFFID=R060741
##IDEAL CHEMISTRY=Fe^3+^(SbS)^3-^
##LOCALITY=Pezinok, Czechoslovakia
##OWNER=RRUFF
##SOURCE=Michael Scott
##DESCRIPTION=Silver metallic blebs with a blue surface tarnish associated with quartz, stibnite and kermesite, R060742
##STATUS=The identification of this mineral is confirmed by single-crystal X-ray diffraction and chemical analysis.
##URL=rruff.info/R060741
##MEASURED CHEMISTRY=Fe_1.00_Sb_1.00_S_1.00_ ; trace amounts of As
150.6375, 0.0000000E+00
151.1196, 75.21228
151.6017, 261.7601
152.0838, 396.8038
152.5659, 436.3448
153.0480, 350.1006
153.5302, 274.0975
154.0123, 195.8529
154.4944, 127.6603
154.9765, 73.19617
155.4586, 27.66382
155.9408, 1.109497
156.4229, 5.534546
156.9050, 23.22827
157.3871, 37.80725
157.8692, 38.91101
158.3513, 32.74890
158.8335, 18.30603
159.3156, 8.751709
159.7977, 4.934570
160.2798, 8.037476
160.7619, 27.47668
161.2440, 41.40173
161.7262, 39.67957
162.2083, 25.93311
162.6904, 14.74280
163.1725, 15.92737
163.6546, 19.66638
164.1367, 18.41626
164.6189, 1.055298
165.1010, 13.94812
165.5831, 17.59973
166.0652, 10.60547
166.5473, 1.0990000E-03
167.0294, 10.61340
167.5116, 22.43848
167.9937, 36.74561
168.4758, 60.99585
168.9579, 82.90869
169.4400, 90.89648
169.9221, 83.76038
170.4043, 78.46875
170.8864, 91.37158
171.3685, 113.4363
171.8506, 129.5165
172.3327, 125.8927
172.8148, 116.4125
173.2970, 114.4478
173.7791, 121.8414
174.2612, 132.7749
174.7433, 147.0413
175.2254, 161.5134
175.7076, 168.3607
176.1897, 158.5371
176.6718, 140.2306
177.1539, 123.2672
177.6360, 107.6656
178.1181, 96.97314
178.6003, 95.71582
179.0824, 103.0859
179.5645, 114.8456
180.0466, 135.6228
180.5287, 158.5502
181.0108, 167.3180
181.4930, 153.3832
181.9751, 132.9465
182.4572, 128.5494
182.9393, 139.5624
183.4214, 159.7363
183.9035, 189.0540
184.3857, 224.2358
184.8678, 256.9120
185.3499, 287.8263
185.8320, 312.6395
186.3141, 315.5635
186.7962, 295.9987
187.2784, 278.0032
187.7605, 284.6085
188.2426, 312.5338
188.7247, 345.6560
189.2068, 382.1738
189.6889, 419.3513
190.1711, 454.4800
190.6532, 489.2412
191.1353, 508.8118
191.6174, 492.3478
192.0995, 441.9785
192.5816, 380.3973
193.0638, 306.2300
193.5459, 225.1880
194.0280, 173.4170
194.5101, 154.8567
194.9922, 150.3052
195.4743, 133.7043
195.9565, 104.9891
196.4386, 79.25244
196.9207, 61.28369
197.4028, 51.14905
197.8849, 53.53088
198.3670, 72.86707
198.8492, 96.14368
199.3313, 98.92969
199.8134, 78.29675
200.2955, 58.93311
200.7776, 53.78540
201.2597, 63.50085
201.7419, 69.47327
202.2240, 69.73645
202.7061, 67.78552
203.1882, 72.82532
203.6703, 87.27905
204.1524, 98.31738
204.6346, 98.07922
205.1167, 85.10168
205.5988, 71.88977
206.0809, 57.23816
206.5630, 44.04614
207.0451, 41.41223
207.5273, 51.95972
208.0094, 65.40552
208.4915, 75.47266
208.9736, 81.68762
209.4557, 89.82104
209.9378, 103.3738
210.4200, 118.3690
210.9021, 117.7334
211.3842, 95.30566
211.8663, 71.10510
212.3484, 59.38318
212.8305, 63.02698
213.3127, 68.31494
213.7948, 75.37231
214.2769, 82.78284
214.7590, 83.03894
215.2411, 72.85193
215.7233, 60.53723
216.2054, 52.10645
216.6875, 47.59546
217.1696, 47.21472
217.6517, 51.59692
218.1338, 60.57495
218.6160, 67.75635
219.0981, 73.92175
219.5802, 77.46826
220.0623, 75.10583
220.5444, 59.63049
221.0265, 56.00232
221.5087, 76.69556
221.9908, 120.2501
222.4729, 128.5980
222.9550, 78.94519
223.4371, 19.34888
223.9192, 2.344238
224.4014, 32.73242
224.8835, 64.58569
225.3656, 81.22974
225.8477, 82.70532
226.3298, 80.20020
226.8119, 71.25452
227.2941, 60.99084
227.7762, 53.99963
228.2583, 51.05408
228.7404, 50.43726
229.2225, 53.93970
229.7046, 62.74426
230.1868, 60.58899
230.6689, 40.67212
231.1510, 15.86597
231.6331, 1.258789
232.1152, 0.5343020
232.5973, 3.660645
233.0795, 10.27466
233.5616, 21.82739
234.0437, 24.95557
234.5258, 12.83313
235.0079, 2.041992
235.4900, 1.661865
235.9722, 27.04626
236.4543, 47.76392
236.9364, 47.24854
237.4185, 19.12524
237.9006, 6.442871
238.3827, 15.41479
238.8649, 35.16248
239.3470, 51.00635
239.8291, 61.83118
240.3112, 70.10474
240.7933, 74.29871
241.2754, 71.22522
241.7576, 80.47571
242.2397, 111.4681
242.7218, 148.4336
243.2039, 165.4094
243.6860, 148.2695
244.1681, 135.0400
244.6503, 138.2253
245.1324, 161.9359
245.6145, 183.6334
246.0966, 199.0714
246.5787, 215.2839
247.0608, 234.0980
247.5430, 275.0187
248.0251, 310.8450
248.5072, 341.8564
248.9893, 353.6206
249.4714, 390.2490
249.9535, 416.9189
250.4357, 443.1897
250.9178, 483.3301
251.3999, 497.9143
251.8820, 523.9348
252.3641, 549.6349
252.8462, 585.0520
253.3284, 631.7673
253.8105, 695.2969
254.2926, 765.8657
254.7747, 832.3182
255.2568, 915.1072
255.7389, 955.4636
256.2211, 928.3137
256.7032, 820.4774
257.1853, 699.4492
257.6674, 552.8141
258.1495, 403.4626
258.6317, 293.0000
259.1138, 234.1244
259.5959, 189.4486
260.0780, 145.0968
260.5601, 96.11462
261.0422, 71.04919
261.5244, 79.91443
262.0065, 104.0247
262.4886, 110.2855
262.9707, 91.04590
263.4528, 72.07605
263.9349, 62.56360
264.4171, 64.25208
264.8992, 67.10278
265.3813, 73.22827
265.8634, 78.51123
266.3455, 76.48621
266.8276, 62.43286
267.3098, 46.85938
267.7919, 32.22437
268.2740, 17.92151
268.7561, 10.16589
269.2382, 11.05957
269.7203, 16.14758
270.2025, 11.42578
270.6846, 17.44226
271.1667, 19.82507
271.6488, 18.77051
272.1309, 3.969604
272.6130, 6.930542
273.0952, 2.780640
273.5773, 1.609985
274.0594, 3.863647
274.5415, 8.916382
275.0236, 3.594360
275.5057, 5.493530
275.9879, 1.607056
276.4700, 1.286743
276.9521, 2.155396
277.4342, 9.572876
277.9163, 3.301147
278.3984, 5.182007
278.8806, 8.238525
279.3627, 1.213379
279.8448, 12.26550
280.3269, 5.044678
280.8090, 4.867310
281.2911, 1.203125
281.7733, 4.539185
282.2554, 5.464233
282.7375, 0.9498290
283.2196, 3.577026
283.7017, 0.1505130
284.1838, 5.098022
284.6660, 4.417358
285.1481, 0.9073490
285.6302, 8.325073
286.1123, 6.150513
286.5944, 12.12134
287.0765, 15.23621
287.5587, 4.744263
288.0408, 18.40833
288.5229, 21.88147
289.0050, 14.88586
289.4871, 28.26416
289.9692, 23.09387
290.4514, 24.78833
290.9335, 31.69067
291.4156, 33.52820
291.8977, 43.81250
292.3798, 46.31067
292.8619, 48.25476
293.3441, 53.49255
293.8262, 50.12866
294.3083, 63.27246
294.7904, 65.44214
295.2725, 73.33350
295.7546, 82.66162
296.2368, 82.54688
296.7189, 102.4893
297.2010, 117.1455
297.6831, 126.4307
298.1652, 128.5361
298.6473, 118.9587
299.1295, 105.6118
299.6116, 99.37354
300.0937, 100.2029
300.5758, 107.1060
301.0579, 119.6348
301.5400, 137.5557
302.0222, 161.0635
302.5043, 191.2227
302.9864, 225.3796
303.4685, 260.6326
303.9506, 297.1631
304.4327, 334.1160
304.9149, 376.4604
305.3970, 417.2822
305.8791, 445.9495
306.3612, 454.7700
306.8433, 459.5781
307.3254, 472.5295
307.8076, 493.0271
308.2897, 519.4392
308.7718, 553.6035
309.2539, 591.7031
309.7360, 633.3613
310.2181, 686.3186
310.7003, 723.9072
311.1824, 733.2209
311.6645, 712.6648
312.1466, 658.5059
312.6287, 533.0593
313.1108, 394.0691
313.5930, 284.4697
314.0751, 212.0833
314.5572, 161.6973
315.0393, 134.4963
315.5214, 122.9531
316.0035, 113.1582
316.4857, 98.18359
316.9678, 84.32227
317.4499, 77.01514
317.9320, 79.47827
318.4141, 76.54712
318.8962, 54.48511
319.3784, 25.68896
319.8605, 6.847900
320.3426, 6.435547
320.8247, 14.19043
321.3068, 31.93994
321.7889, 63.42749
322.2711, 77.90771
322.7532, 49.61499
323.2353, 7.736816
323.7174, 16.73438
324.1995, 0.4865720
324.6816, 16.21973
325.1638, 22.46436
325.6459, 17.19116
326.1280, 12.92334
326.6101, 7.417480
327.0922, 5.206055
327.5743, 9.944580
328.0565, 37.92505
328.5386, 54.96118
329.0207, 52.41821
329.5028, 31.53784
329.9849, 16.82300
330.4670, 7.395752
330.9492, 4.959961
331.4313, 11.73267
331.9134, 42.71118
332.3955, 58.85718
332.8776, 53.00928
333.3597, 29.48584
333.8419, 7.777100
334.3240, 17.13794
334.8061, 33.74023
335.2882, 35.05347
335.7703, 14.35229
336.2524, 7.192383
336.7346, 32.49170
337.2167, 56.98584
337.6988, 65.59302
338.1809, 54.58252
338.6630, 39.96118
339.1452, 28.67529
339.6273, 20.31030
340.1094, 14.74976
340.5915, 11.13940
341.0736, 11.90845
341.5558, 24.88452
342.0379, 52.78442
342.5200, 75.65039
343.0021, 85.46826
343.4842, 82.70410
343.9663, 75.80566
344.4485, 63.65942
344.9306, 51.31226
345.4127, 44.93994
345.8948, 44.39648
346.3769, 48.00366
346.8590, 56.23828
347.3412, 68.07495
347.8233, 80.71094
348.3054, 94.23633
348.7875, 106.7483
349.2696, 114.9211
349.7517, 120.0081
350.2339, 127.1028
350.7160, 139.6660
351.1981, 153.9414
351.6802, 161.4353
352.1623, 162.8047
352.6444, 167.2422
353.1266, 180.2317
353.6087, 200.6084
354.0908, 227.9888
354.5729, 267.2537
355.0550, 304.9619
355.5371, 321.6062
356.0193, 322.5476
356.5014, 328.0872
356.9835, 353.8076
357.4656, 387.6609
357.9477, 417.6812
358.4298, 440.7358
358.9120, 464.7849
359.3941, 497.1196
359.8762, 533.8325
360.3583, 568.6216
360.8404, 596.8054
361.3225, 621.2937
361.8047, 645.4836
362.2868, 669.8730
362.7689, 691.5874
363.2510, 719.6228
363.7331, 740.8591
364.2152, 740.3418
364.6974, 698.1599
365.1795, 648.9619
365.6616, 600.5667
366.1437, 553.3191
366.6258, 509.4370
367.1079, 474.1079
367.5901, 437.2009
368.0722, 394.2429
368.5543, 332.0012
369.0364, 278.3276
369.5185, 235.4858
370.0006, 203.0220
370.4828, 180.2705
370.9649, 175.2307
371.4470, 172.2412
371.9291, 162.4836
372.4112, 132.4343
372.8933, 122.5107
373.3755, 143.9641
373.8576, 181.3074
374.3397, 199.9309
374.8218, 190.2051
375.3039, 175.9788
375.7860, 168.1057
376.2682, 167.8044
376.7503, 164.4441
377.2324, 156.8828
377.7145, 148.0574
378.1966, 143.2632
378.6787, 143.7092
379.1609, 139.4377
379.6430, 126.4775
380.1251, 106.2327
380.6072, 83.26001
381.0893, 56.27783
381.5714, 33.84985
382.0536, 31.21240
382.5357, 45.01343
383.0178, 55.67505
383.4999, 58.86670
383.9820, 56.68896
384.4641, 50.70776
384.9463, 41.33569
385.4284, 35.00439
385.9105, 40.01001
386.3926, 50.36133
386.8747, 52.88940
387.3568, 43.50049
387.8390, 32.43213
388.3211, 30.06421
388.8032, 34.50781
389.2853, 40.89795
389.7674, 53.43213
390.2495, 62.80103
390.7317, 55.69702
391.2138, 29.24805
391.6959, 8.092529
392.1780, 10.03345
392.6601, 24.20972
393.1422, 36.55225
393.6244, 46.39551
394.1065, 51.58813
394.5886, 46.89624
395.0707, 33.32178
395.5528, 23.35669
396.0349, 24.35010
396.5171, 28.43359
396.9992, 30.11133
397.4813, 26.17993
397.9634, 22.34448
398.4455, 16.58008
398.9276, 10.91724
399.4098, 12.05713
399.8919, 28.81616
400.3740, 45.18579
400.8561, 56.10083
401.3382, 62.59473
401.8203, 60.34351
402.3025, 43.11401
402.7846, 20.63867
403.2667, 7.460449
403.7488, 6.436279
404.2309, 9.234863
404.7130, 13.80176
405.1952, 20.11670
405.6773, 32.69580
406.1594, 57.36475
406.6415, 76.11157
407.1236, 65.58813
407.6057, 21.71582
408.0879, 8.979980
408.5700, 17.07422
409.0521, 7.477783
409.5342, 12.17700
410.0163, 42.61646
410.4984, 63.74170
410.9806, 54.82715
411.4627, 23.45483
411.9448, 1.026855
412.4269, 9.729980
412.9090, 10.43335
413.3911, 1.675293
413.8733, 23.26270
414.3554, 42.96802
414.8375, 59.34766
415.3196, 68.71338
415.8017, 62.68506
416.2838, 41.09399
416.7660, 18.37158
417.2481, 0.1386720
417.7302, 10.87598
418.2123, 10.37964
418.6944, 15.23608
419.1765, 40.17725
419.6587, 47.50537
420.1408, 40.81323
420.6229, 34.37451
421.1050, 34.46606
421.5871, 36.46362
422.0692, 38.39917
422.5514, 43.04492
423.0335, 40.95972
423.5156, 17.95923
423.9977, 10.89355
424.4798, 20.80273
424.9619, 13.62744
425.4441, 45.32251
425.9262, 63.07812
426.4083, 65.53003
426.8904, 62.04614
427.3725, 44.69238
427.8546, 28.17871
428.3368, 26.61963
428.8189, 49.67041
429.3010, 66.43457
429.7831, 74.56958
430.2652, 73.55640
430.7473, 55.78198
431.2295, 13.20190
431.7116, 20.32642
432.1937, 19.14795
432.6758, 17.59155
433.1579, 43.49731
433.6400, 54.87524
434.1222, 58.64868
434.6043, 63.59131
435.0864, 69.67651
435.5685, 77.08447
436.0506, 87.93896
436.5327, 99.52515
437.0149, 104.9192
437.4970, 104.1528
437.9791, 101.1692
438.4612, 98.84766
438.9434, 96.66235
439.4255, 93.23828
439.9076, 86.21802
440.3897, 81.14111
440.8718, 82.59741
441.3539, 89.97217
441.8361, 101.6003
442.3182, 123.9468
442.8003, 145.3889
443.2824, 156.9766
443.7645, 155.7463
444.2466, 153.6367
444.7288, 156.7534
445.2109, 160.7869
445.6930, 160.5916
446.1751, 145.2917
446.6572, 135.8579
447.1393, 139.0801
447.6215, 154.7080
448.1036, 169.7205
448.5857, 183.0479
449.0678, 196.3521
449.5499, 211.4275
450.0320, 233.7585
450.5142, 245.9724
450.9963, 242.2839
451.4784, 231.2700
451.9605, 233.2632
452.4426, 254.0762
452.9247, 270.1448
453.4069, 272.9829
453.8890, 262.9136
454.3711, 247.4673
454.8532, 225.6414
455.3353, 203.2603
455.8174, 187.3982
456.2996, 177.0593
456.7817, 165.3333
457.2638, 149.1504
457.7459, 132.6333
458.2280, 121.1057
458.7101, 114.8206
459.1923, 114.9099
459.6744, 127.0864
460.1565, 144.3618
460.6386, 157.2825
461.1207, 165.2068
461.6028, 168.4463
462.0850, 163.5911
462.5671, 155.2104
463.0492, 150.0925
463.5313, 158.8254
464.0134, 164.2922
464.4955, 153.6506
464.9777, 129.2434
465.4598, 112.2520
465.9419, 113.6938
466.4240, 120.1294
466.9061, 124.7593
467.3882, 127.8123
467.8704, 126.4932
468.3525, 116.4438
468.8346, 102.8030
469.3167, 94.21802
469.7988, 92.83423
470.2809, 92.18091
470.7631, 91.78149
471.2452, 92.53882
471.7273, 92.60864
472.2094, 92.06982
472.6915, 88.30811
473.1736, 77.48950
473.6558, 58.58008
474.1379, 50.72412
474.6200, 59.63940
475.1021, 76.68042
475.5842, 84.88379
476.0663, 85.18628
476.5485, 81.61792
477.0306, 68.21802
477.5127, 52.69702
477.9948, 57.14478
478.4769, 83.54932
478.9590, 107.1106
479.4412, 99.11060
479.9233, 74.50342
480.4054, 58.66162
480.8875, 66.74365
481.3696, 77.35205
481.8517, 74.55859
482.3339, 61.70117
482.8160, 51.18066
483.2981, 43.76416
483.7802, 40.28027
484.2623, 42.03223
484.7444, 50.53906
485.2266, 59.08179
485.7087, 70.33911
486.1908, 79.54224
486.6729, 80.86841
487.1550, 65.38818
487.6371, 54.18188
488.1193, 52.08301
488.6014, 57.28809
489.0835, 58.40308
489.5656, 52.71826
490.0477, 45.82983
490.5298, 41.57227
491.0120, 39.30444
491.4941, 32.75049
491.9762, 18.85742
492.4583, 7.006104
492.9404, 16.00879
493.4225, 44.10498
493.9047, 62.00415
494.3868, 52.42285
494.8689, 31.60205
495.3510, 38.92285
495.8331, 71.41943
496.3152, 96.54321
496.7974, 80.31665
497.2795, 46.48291
497.7616, 28.46387
498.2437, 34.42432
498.7258, 45.40186
499.2079, 51.53320
499.6901, 53.46704
500.1722, 52.35571
500.6543, 46.52417
501.1364, 39.80615
501.6185, 32.83838
502.1006, 25.87891
502.5828, 21.20386
503.0649, 20.09302
503.5470, 20.82739
504.0291, 22.88550
504.5112, 30.88232
504.9933, 31.14478
505.4755, 16.42700
505.9576, 1.597656
506.4397, 0.8967290
506.9218, 28.51294
507.4039, 47.92261
507.8860, 42.71313
508.3682, 17.45532
508.8503, 4.628662
509.3324, 5.733154
509.8145, 9.377441
510.2966, 4.376465
510.7787, 6.465332
511.2609, 9.171875
511.7430, 0.8706050
512.2251, 11.75659
512.7072, 22.94653
513.1893, 32.10352
513.6714, 37.69116
514.1536, 39.24512
514.6357, 36.96436
515.1178, 27.92065
515.5999, 12.00049
516.0820, 1.477539
516.5641, 5.531982
517.0463, 16.06567
517.5284, 28.64014
518.0105, 47.77124
518.4926, 57.73071
518.9747, 48.47021
519.4568, 29.71484
519.9390, 16.50586
520.4211, 12.34180
520.9032, 9.543213
521.3853, 6.034668
521.8674, 2.199219
522.3495, 4.049072
522.8317, 15.43921
523.3138, 24.90649
523.7959, 23.10962
524.2780, 9.073730
524.7601, 2.090820
525.2422, 3.301514
525.7244, 9.623535
526.2065, 20.66431
526.6886, 34.89917
527.1707, 40.91382
527.6528, 29.94287
528.1349, 11.77295
528.6171, 2.061768
529.0992, 11.07495
529.5813, 11.97583
530.0634, 6.251221
530.5455, 29.41284
531.0276, 40.36914
531.5098, 31.65894
531.9919, 26.56201
532.4740, 41.39136
532.9561, 63.04810
533.4382, 76.22412
533.9203, 70.72144
534.4025, 63.50073
534.8846, 58.23975
535.3667, 54.30151
535.8488, 47.74023
536.3309, 31.89185
536.8130, 22.36865
537.2952, 27.81860
537.7773, 52.04810
538.2594, 69.46387
538.7415, 80.33984
539.2236, 85.06763
539.7057, 78.78833
540.1879, 62.22705
540.6700, 52.84961
541.1521, 57.57104
541.6342, 66.61621
542.1163, 55.71411
542.5984, 29.56836
543.0806, 14.46606
543.5627, 42.37744
544.0448, 80.77905
544.5269, 82.59961
545.0090, 45.34424
545.4911, 17.58691
545.9733, 44.39868
546.4554, 88.03320
546.9375, 111.8323
547.4196, 93.13184
547.9017, 74.41138
548.3839, 70.39819
548.8660, 73.43335
549.3481, 67.15796
549.8302, 35.94946
550.3123, 12.34180
550.7944, 5.471191
551.2766, 15.09985
551.7587, 25.41187
552.2408, 39.09448
552.7229, 48.07642
553.2050, 41.76562
553.6871, 18.75830
554.1693, 13.83569
554.6514, 33.32471
555.1335, 60.80078
555.6156, 74.00854
556.0977, 74.60522
556.5798, 69.35278
557.0620, 56.82935
557.5441, 43.10840
558.0262, 37.34229
558.5083, 38.11743
558.9904, 38.20874
559.4725, 29.45630
559.9547, 21.01636
560.4368, 21.42456
560.9189, 33.76807
561.4010, 44.01074
561.8831, 49.44189
562.3652, 49.84961
562.8474, 44.98999
563.3295, 22.64819
563.8116, 10.76880
564.2937, 16.94580
564.7758, 33.90527
565.2579, 41.49536
565.7401, 36.02979
566.2222, 29.95337
566.7043, 27.32446
567.1864, 28.06714
567.6685, 30.72852
568.1506, 35.09473
568.6328, 42.62524
569.1149, 60.99927
569.5970, 84.96313
570.0791, 93.38770
570.5612, 81.12939
571.0433, 59.45142
571.5255, 30.49487
572.0076, 1.439209
572.4897, 14.17847
572.9718, 4.286621
573.4539, 15.34155
573.9360, 44.51074
574.4182, 78.92090
574.9003, 96.64355
575.3824, 75.50195
575.8645, 49.23169
576.3466, 33.58032
576.8287, 31.14233
577.3109, 33.50952
577.7930, 47.26855
578.2751, 59.53760
578.7572, 56.04785
579.2393, 31.84717
579.7214, 12.98193
580.2036, 3.806396
580.6857, 0.4672850
581.1678, 6.137207
581.6499, 15.69678
582.1320, 22.22852
582.6141, 23.88989
583.0963, 20.08765
583.5784, 4.290039
584.0605, 21.40137
584.5426, 40.69214
585.0247, 38.68433
585.5068, 28.18262
585.9890, 21.95923
586.4711, 24.05615
586.9532, 23.25586
587.4354, 7.944580
587.9175, 8.586914
588.3996, 12.23706
588.8817, 14.42578
589.3638, 36.39038
589.8459, 49.83203
590.3281, 55.23926
590.8102, 53.42456
591.2923, 39.36133
591.7744, 29.40527
592.2565, 32.16235
592.7386, 46.63623
593.2208, 54.42236
593.7029, 54.82788
594.1850, 52.84644
594.6671, 55.95776
595.1492, 60.48560
595.6313, 51.25342
596.1135, 21.26074
596.5956, 4.822266
597.0777, 5.290771
597.5598, 35.22681
598.0419, 55.49365
598.5240, 44.91577
599.0062, 31.65503
599.4883, 27.06909
599.9704, 30.57129
600.4525, 39.20215
600.9346, 61.88623
601.4167, 80.45435
601.8989, 85.83423
602.3810, 75.17505
602.8631, 72.58569
603.3452, 83.36157
603.8273, 94.12866
604.3094, 91.43237
604.7916, 73.09937
605.2737, 65.38892
605.7558, 73.86719
606.2379, 86.10522
606.7200, 83.28638
607.2021, 67.82544
607.6843, 27.37280
608.1664, 56.24048
608.6485, 72.35620
609.1306, 76.44434
609.6127, 32.40112
610.0948, 50.50977
610.5770, 43.70874
611.0591, 35.88794
611.5412, 62.74268
612.0233, 25.69775
612.5054, 52.00171
612.9875, 53.01831
613.4697, 65.60645
613.9518, 53.13452
614.4339, 48.40186
614.9160, 68.73950
615.3981, 75.19482
615.8802, 59.83545
616.3624, 73.15869
616.8445, 35.23633
617.3266, 42.28198
617.8087, 68.72949
618.2908, 54.63062
618.7729, 68.41162
619.2551, 71.57324
619.7372, 26.48096
620.2193, 65.30737
620.7014, 67.84180
621.1835, 33.11084
621.6656, 69.06299
622.1478, 39.46899
622.6299, 33.27124
623.1120, 44.67993
623.5941, 37.73364
624.0762, 59.72559
624.5583, 53.84033
625.0405, 45.46313
625.5226, 47.95654
626.0047, 19.65112
626.4868, 48.48901
626.9689, 38.29517
627.4510, 47.50342
627.9332, 61.11035
628.4153, 41.04248
628.8974, 56.62549
629.3795, 16.92261
629.8616, 23.28662
630.3438, 23.73950
630.8259, 54.35669
631.3080, 14.92480
631.7901, 20.19727
632.2722, 44.50537
632.7543, 42.17920
633.2365, 50.99097
633.7186, 26.83472
634.2007, 33.64868
634.6828, 31.92749
635.1649, 59.70337
635.6470, 64.19385
636.1292, 40.59985
636.6113, 17.12500
637.0934, 47.02563
637.5755, 26.33789
638.0576, 32.82983
638.5397, 10.98169
639.0219, 13.08325
639.5040, 14.20898
639.9861, 27.40112
640.4682, 2.230713
640.9503, 25.66113
641.4324, 34.62012
641.9146, 17.48584
642.3967, 10.59253
642.8788, 32.71069
643.3609, 47.56177
643.8430, 53.64795
644.3251, 39.56812
644.8073, 22.38452
645.2894, 17.35498
645.7715, 36.36987
646.2536, 47.01123
646.7357, 39.68774
647.2178, 25.48291
647.7000, 17.61792
648.1821, 18.69580
648.6642, 19.74243
649.1463, 18.43604
649.6284, 17.21436
650.1105, 24.42480
650.5927, 40.01978
651.0748, 51.58032
651.5569, 50.69092
652.0390, 43.31323
652.5211, 41.51611
653.0032, 44.41821
653.4854, 45.87183
653.9675, 40.04932
654.4496, 31.73828
654.9317, 26.15552
655.4138, 23.27856
655.8959, 22.98413
656.3781, 28.75806
656.8602, 34.94873
657.3423, 37.00513
657.8244, 31.99731
658.3065, 28.10669
658.7886, 25.26416
659.2708, 23.74927
659.7529, 24.22778
660.2350, 26.83936
660.7171, 29.94385
661.1992, 33.35913
661.6813, 36.77344
662.1635, 40.92822
662.6456, 44.97827
663.1277, 45.16748
663.6098, 35.92041
664.0919, 24.57373
664.5740, 16.79590
665.0562, 12.65601
665.5383, 11.64575
666.0204, 13.64551
666.5025, 18.68335
666.9846, 29.14160
667.4667, 49.41650
667.9489, 56.45972
668.4310, 41.76831
668.9131, 24.26245
669.3952, 18.77197
669.8773, 27.11670
670.3594, 35.00244
670.8416, 41.76636
671.3237, 47.08765
671.8058, 48.47632
672.2879, 47.67749
672.7700, 52.80518
673.2521, 72.09131
673.7343, 87.84204
674.2164, 72.96338
674.6985, 41.78320
675.1806, 25.62109
675.6627, 56.29614
676.1448, 85.52441
676.6270, 91.31763
677.1091, 76.22681
677.5912, 67.72119
678.0733, 75.96460
678.5554, 78.14307
679.0375, 60.36475
679.5197, 22.28662
680.0018, 12.01123
680.4839, 34.20923
680.9660, 61.33667
681.4481, 73.15723
681.9302, 72.20190
682.4124, 64.75879
682.8945, 50.75879
683.3766, 39.16260
683.8587, 39.88452
684.3408, 46.95312
684.8229, 52.80762
685.3051, 56.79077
685.7872, 57.19507
686.2693, 48.29028
686.7514, 36.91211
687.2335, 34.61060
687.7156, 52.46509
688.1978, 61.25781
688.6799, 53.04370
689.1620, 34.96216
689.6441, 29.03906
690.1262, 36.77832
690.6083, 41.42944
691.0905, 32.81665
691.5726, 18.00757
692.0547, 13.91504
692.5368, 19.40796
693.0189, 27.05469
693.5010, 36.39478
693.9832, 42.85132
694.4653, 40.56006
694.9474, 28.87207
695.4295, 18.90991
695.9116, 11.34473
696.3937, 9.118896
696.8759, 15.30908
697.3580, 34.47290
697.8401, 48.00171
698.3222, 53.34253
698.8043, 55.69678
699.2864, 64.14502
699.7686, 80.30518
700.2507, 89.52344
700.7328, 87.30737
701.2149, 81.68384
701.6970, 85.31226
702.1791, 93.86670
702.6613, 96.59106
703.1434, 85.95605
703.6255, 73.46802
704.1076, 67.06958
704.5897, 64.25732
705.0718, 59.32739
705.5540, 40.52466
706.0361, 31.46265
706.5182, 43.98340
707.0003, 71.95728
707.4824, 84.16553
707.9645, 76.45996
708.4467, 65.62183
708.9288, 58.19702
709.4109, 53.91553
709.8930, 50.86157
710.3751, 49.12451
710.8572, 50.27148
711.3394, 57.57715
711.8215, 67.43213
712.3036, 75.77563
712.7857, 82.31836
713.2678, 85.78613
713.7499, 80.90967
714.2321, 75.56689
714.7142, 77.02856
715.1963, 97.93408
715.6784, 99.69775
716.1605, 71.63062
716.6426, 35.29053
717.1248, 12.82495
717.6069, 5.563477
718.0890, 2.973877
718.5711, 4.689941
719.0532, 6.976563
719.5353, 9.714844
720.0175, 12.37671
720.4996, 13.02808
720.9817, 10.68408
721.4638, 7.227295
721.9459, 5.475098
722.4280, 6.009521
722.9102, 9.958984
723.3923, 27.88672
723.8744, 38.09717
724.3565, 27.39014
724.8386, 3.083496
725.3207, 3.286621
725.8029, 14.68164
726.2850, 34.19092
726.7671, 48.99780
727.2492, 58.07129
727.7313, 50.81934
728.2134, 27.91260
728.6956, 11.38232
729.1777, 22.01709
729.6598, 44.48218
730.1419, 63.66333
730.6240, 78.15430
731.1061, 79.11670
731.5883, 42.88281
732.0704, 5.639648
732.5525, 6.159668
733.0346, 21.85303
733.5167, 39.52051
733.9988, 44.16040
734.4810, 42.54712
734.9631, 39.33960
735.4452, 34.49927
735.9273, 29.84082
736.4094, 25.68896
736.8915, 21.00244
737.3737, 11.97681
737.8558, 1.753662
738.3379, 1.436279
738.8200, 7.971680
739.3021, 15.75928
739.7842, 4.988281
740.2664, 10.03857
740.7485, 9.719971
741.2306, 28.47070
741.7127, 55.09619
742.1948, 65.05591
742.6769, 62.50659
743.1591, 51.25879
743.6412, 27.29053
744.1233, 13.72437
744.6054, 20.84497
745.0875, 37.77051
745.5696, 37.66406
746.0518, 24.44678
746.5339, 16.47607
747.0160, 31.95557
747.4981, 49.58643
747.9802, 48.95532
748.4623, 33.84619
748.9445, 21.84863
749.4266, 18.08789
749.9087, 18.88110
750.3908, 25.18286
750.8729, 36.37744
751.3550, 40.17090
751.8372, 32.93774
752.3193, 28.57642
752.8014, 39.29907
753.2835, 60.69824
753.7656, 64.42700
754.2477, 50.88330
754.7299, 34.90308
755.2120, 23.75464
755.6941, 18.76294
756.1762, 25.14893
756.6583, 44.63306
757.1404, 57.37207
757.6226, 46.55713
758.1047, 32.74829
758.5868, 32.07397
759.0689, 52.83618
759.5510, 59.42944
760.0331, 46.38403
760.5153, 28.80981
760.9974, 20.24805
761.4795, 20.18652
761.9616, 24.48071
762.4437, 33.83740
762.9258, 42.96924
763.4080, 42.78418
763.8901, 37.77100
764.3722, 37.69531
764.8543, 49.19922
765.3364, 56.44824
765.8185, 48.70752
766.3007, 35.00928
766.7828, 27.00244
767.2649, 26.45557
767.7470, 29.46631
768.2291, 38.26392
768.7112, 47.19092
769.1934, 45.22437
769.6755, 32.81079
770.1576, 21.28101
770.6397, 12.41333
771.1218, 8.032227
771.6039, 13.49292
772.0861, 25.10449
772.5682, 35.03052
773.0503, 42.14648
773.5324, 44.83911
774.0145, 42.26440
774.4966, 34.73608
774.9788, 21.96484
775.4609, 7.358398
775.9430, 19.26318
776.4251, 2.177246
776.9072, 41.50928
777.3893, 43.47974
777.8715, 9.443604
778.3536, 14.53906
778.8357, 2.508057
779.3178, 34.01758
779.7999, 42.85669
780.2820, 34.35962
780.7642, 25.02490
781.2463, 19.10986
781.7284, 18.17627
782.2105, 26.72070
782.6926, 43.38135
783.1748, 50.49756
783.6569, 45.19507
784.1390, 35.17920
784.6212, 19.75513
785.1033, 1.503418
785.5854, 1.104492
786.0675, 18.17065
786.5496, 34.20483
787.0317, 33.49805
787.5139, 26.36523
787.9960, 25.33081
788.4781, 30.56030
788.9602, 37.23096
789.4423, 48.21729
789.9244, 55.80566
790.4066, 53.17822
790.8887, 39.47388
791.3708, 33.46167
791.8529, 38.24683
792.3350, 44.36938
792.8171, 46.09375
793.2993, 43.92188
793.7814, 43.04761
794.2635, 43.61719
794.7456, 40.96362
795.2277, 26.09888
795.7098, 8.847900
796.1920, 3.154053
796.6741, 11.79346
797.1562, 14.47974
797.6383, 8.163818
798.1204, 30.02881
798.6025, 31.76953
799.0847, 6.552979
799.5668, 7.194092
800.0489, 6.335938
800.5310, 1.833740
801.0131, 3.320068
801.4952, 9.180664
801.9774, 11.69873
802.4595, 10.00000
802.9416, 8.453369
803.4237, 11.04321
803.9058, 15.35010
804.3879, 19.25879
804.8701, 22.93823
805.3522, 24.31885
805.8343, 17.74463
806.3164, 12.86987
806.7985, 17.93481
807.2806, 37.31177
807.7628, 46.08057
808.2449, 41.52344
808.7270, 34.23682
809.2091, 37.34375
809.6912, 46.39673
810.1733, 49.26245
810.6555, 43.31177
811.1376, 36.01416
811.6197, 30.39697
812.1018, 27.12573
812.5839, 27.25928
813.0660, 34.24268
813.5482, 37.70190
814.0303, 35.28442
814.5124, 31.32153
814.9945, 29.20288
815.4766, 28.87402
815.9587, 34.22681
816.4409, 47.43848
816.9230, 57.79639
817.4051, 48.97314
817.8872, 30.12939
818.3693, 16.91040
818.8514, 14.29565
819.3336, 12.12451
819.8157, 1.556885
820.2978, 8.695068
820.7799, 9.051758
821.2620, 7.265625
821.7441, 19.49097
822.2263, 26.87549
822.7084, 30.96802
823.1905, 33.72656
823.6726, 34.87695
824.1547, 31.66626
824.6368, 22.35986
825.1190, 14.96973
825.6011, 17.63696
826.0832, 26.29907
826.5653, 36.13867
827.0474, 47.45483
827.5295, 57.08521
828.0117, 66.51733
828.4938, 72.64746
828.9759, 72.31836
829.4580, 64.74878
829.9401, 53.59058
830.4222, 37.40479
830.9044, 23.59570
831.3865, 22.81104
831.8686, 31.16895
832.3507, 40.35327
832.8328, 50.14185
833.3149, 53.40283
833.7971, 40.55151
834.2792, 23.35083
834.7613, 10.41064
835.2434, 4.145508
835.7255, 1.101318
836.2076, 2.071289
836.6898, 4.964111
837.1719, 1.953857
837.6540, 6.355469
838.1361, 1.449707
838.6182, 20.95093
839.1003, 43.14087
839.5825, 43.39258
840.0646, 33.28027
840.5467, 29.45605
841.0288, 37.41382
841.5109, 44.79492
841.9930, 50.12476
842.4752, 51.25732
842.9573, 45.57202
843.4394, 29.39062
843.9215, 18.59473
844.4036, 13.85938
844.8857, 13.24390
845.3679, 20.20288
845.8500, 31.41235
846.3321, 36.21289
846.8142, 31.39331
847.2963, 29.05518
847.7784, 42.94531
848.2606, 60.02295
848.7427, 68.37158
849.2248, 62.45288
849.7069, 58.45215
850.1890, 60.33325
850.6711, 59.46997
851.1533, 44.38696
851.6354, 15.89136
852.1175, 9.162842
852.5996, 27.19531
853.0817, 45.08862
853.5638, 34.98584
854.0460, 14.50952
854.5281, 6.237793
855.0102, 14.58838
855.4923, 20.87646
855.9744, 12.27686
856.4565, 5.965088
856.9387, 14.88379
857.4208, 40.92285
857.9029, 57.05591
858.3850, 62.26123
858.8671, 61.43799
859.3492, 54.32056
859.8314, 44.76929
860.3135, 44.85986
860.7956, 54.49707
861.2777, 58.68506
861.7598, 37.62842
862.2419, 16.84448
862.7241, 16.21460
863.2062, 40.36353
863.6883, 52.77417
864.1704, 49.13721
864.6525, 42.22119
865.1346, 38.49414
865.6168, 37.25000
866.0989, 32.12012
866.5810, 23.26758
867.0631, 19.95874
867.5452, 35.39404
868.0273, 53.47339
868.5095, 59.00024
868.9916, 52.76733
869.4737, 47.05908
869.9558, 38.06494
870.4379, 38.99951
870.9200, 61.54736
871.4022, 97.92700
871.8843, 98.46191
872.3664, 61.45776
872.8485, 29.78564
873.3306, 28.38818
873.8127, 42.01489
874.2949, 52.27441
874.7770, 59.02222
875.2591, 61.69360
875.7412, 54.11133
876.2233, 48.61475
876.7054, 50.51904
877.1876, 57.75366
877.6697, 67.01416
878.1518, 80.88989
878.6339, 82.68530
879.1160, 64.14819
879.5981, 38.58423
880.0803, 25.80225
880.5624, 23.06787
881.0445, 28.71240
881.5266, 53.96899
882.0087, 71.92847
882.4908, 63.31421
882.9730, 20.43262
883.4551, 49.42212
883.9372, 65.67773
884.4193, 69.88623
884.9014, 25.96167
885.3835, 44.18823
885.8657, 37.50586
886.3478, 29.80176
886.8299, 56.77197
887.3120, 19.84375
887.7941, 46.26367
888.2762, 47.39331
888.7584, 60.09692
889.2405, 47.73804
889.7226, 43.11768
890.2047, 63.56665
890.6868, 70.13379
891.1689, 54.88818
891.6511, 68.32935
892.1332, 65.51538
892.6153, 66.60840
893.0974, 34.77173
893.5795, 6.423096
894.0616, 23.08057
894.5438, 55.89258
895.0259, 72.50073
895.5080, 66.12939
895.9901, 55.37720
896.4722, 36.24805
896.9543, 21.85620
897.4365, 22.02637
897.9186, 37.29688
898.4007, 44.23413
898.8828, 42.67017
899.3649, 37.68213
899.8470, 32.89844
900.3292, 26.96899
900.8113, 14.72583
901.2934, 2.459229
901.7755, 11.60254
902.2576, 2.738037
902.7397, 15.12207
903.2219, 10.98022
903.7040, 5.380859
904.1861, 0.6938480
904.6682, 29.43140
905.1503, 53.76392
905.6324, 53.55786
906.1146, 42.13721
906.5967, 40.73560
907.0788, 45.94116
907.5609, 47.66211
908.0430, 35.82349
908.5251, 26.00879
909.0073, 25.62769
909.4894, 30.64453
909.9715, 33.31592
910.4536, 34.04761
910.9357, 30.14648
911.4178, 18.84473
911.9000, 7.521484
912.3821, 9.624268
912.8642, 20.76392
913.3463, 31.34375
913.8284, 40.81348
914.3105, 44.46436
914.7927, 34.78271
915.2748, 21.75952
915.7569, 16.87378
916.2390, 24.76611
916.7211, 26.92090
917.2032, 20.34033
917.6854, 15.51489
918.1675, 30.27271
918.6496, 54.48291
919.1317, 58.99170
919.6138, 39.92700
920.0959, 19.60742
920.5781, 8.382813
921.0602, 2.807617
921.5423, 2.044922
922.0244, 6.604736
922.5065, 7.241943
922.9886, 1.710693
923.4708, 1.389893
923.9529, 6.286377
924.4350, 19.51318
924.9171, 19.70605
925.3992, 9.247314
925.8813, 2.572266
926.3635, 15.21021
926.8456, 26.82959
927.3277, 21.12256
927.8098, 3.050781
928.2919, 0.5466310
928.7740, 17.57690
929.2562, 33.90161
929.7383, 44.73120
930.2204, 50.82031
930.7025, 53.51562
931.1846, 52.68335
931.6667, 46.93750
932.1489, 29.08252
932.6310, 17.63452
933.1131, 33.68994
933.5952, 58.60815
934.0773, 64.32471
934.5594, 37.97656
935.0416, 21.92920
935.5237, 21.45679
936.0058, 23.67334
936.4879, 6.707764
936.9700, 19.58179
937.4521, 20.82910
937.9343, 10.28857
938.4164, 37.13379
938.8985, 32.65723
939.3806, 19.66943
939.8627, 16.40576
940.3448, 25.75586
940.8270, 29.19727
941.3091, 24.68530
941.7912, 20.08081
942.2733, 19.84375
942.7554, 23.15527
943.2375, 29.24829
943.7197, 37.31177
944.2018, 43.08081
944.6839, 42.69824
945.1660, 40.82935
945.6481, 39.10596
946.1302, 37.84790
946.6124, 38.51343
947.0945, 43.17847
947.5766, 42.54736
948.0587, 32.71704
948.5408, 19.49829
949.0229, 11.65112
949.5051, 9.250488
949.9872, 12.93750
950.4693, 26.62134
950.9514, 39.07324
951.4335, 48.31152
951.9156, 51.62329
952.3978, 45.25391
952.8799, 24.19189
953.3620, 10.04199
953.8441, 3.507324
954.3262, 3.700439
954.8083, 16.18677
955.2905, 32.76709
955.7726, 33.39697
956.2547, 16.34448
956.7368, 6.958740
957.2189, 29.18994
957.7010, 51.06250
958.1832, 55.08789
958.6653, 42.52979
959.1474, 28.49585
959.6295, 11.66016
960.1116, 2.984619
960.5938, 12.77759
961.0759, 27.07251
961.5580, 15.83228
962.0401, 9.325684
962.5222, 18.70898
963.0043, 22.08472
963.4865, 52.31152
963.9686, 52.09082
964.4507, 35.71704
964.9328, 23.78442
965.4149, 16.28149
965.8970, 10.44946
966.3792, 5.150146
966.8613, 4.771973
967.3434, 19.76172
967.8255, 40.20532
968.3076, 53.05688
968.7897, 56.19312
969.2719, 51.27661
969.7540, 31.43481
970.2361, 11.99609
970.7182, 0.3605960
971.2003, 3.451416
971.6824, 6.741943
972.1646, 30.54932
972.6467, 50.89160
973.1288, 49.22192
973.6109, 44.87598
974.0930, 62.36304
974.5751, 94.30371
975.0573, 106.7842
975.5394, 81.43164
976.0215, 56.20801
976.5036, 36.04346
976.9857, 22.16455
977.4678, 19.06348
977.9500, 25.05640
978.4321, 32.05933
978.9142, 39.20654
979.3963, 43.15796
979.8784, 40.91821
980.3605, 34.54614
980.8427, 25.03027
981.3248, 7.024902
981.8069, 2.754150
982.2891, 15.62842
982.7712, 32.71558
983.2533, 46.85791
983.7354, 56.30933
984.2175, 55.47559
984.6996, 44.72144
985.1818, 30.19312
985.6639, 0.6743160
986.1460, 17.90576
986.6281, 0.4284670
987.1102, 41.01440
987.5923, 57.35938
988.0745, 44.73926
988.5566, 29.37939
989.0387, 15.62842
989.5208, 9.651855
990.0029, 30.30005
990.4850, 63.78735
990.9672, 82.64697
991.4493, 70.57544
991.9314, 58.24805
992.4135, 51.80493
992.8956, 48.66699
993.3777, 49.33105
993.8599, 54.09521
994.3420, 43.56250
994.8241, 14.62671
995.3062, 8.289063
995.7883, 2.584717
996.2704, 23.07495
996.7526, 29.59766
997.2347, 21.64819
997.7168, 19.67114
998.1989, 31.10425
998.6810, 40.48413
999.1631, 42.62109
999.6453, 40.45728
1000.127, 43.87891
1000.609, 50.78442
1001.092, 51.09058
1001.574, 36.44409
1002.056, 22.75293
1002.538, 23.68188
1003.020, 29.48340
1003.502, 26.72925
1003.984, 7.713135
1004.466, 3.093506
1004.949, 16.49561
1005.431, 30.87573
1005.913, 25.38525
1006.395, 10.94409
1006.877, 11.16089
1007.359, 26.31372
1007.841, 38.23340
1008.323, 34.14209
1008.805, 30.05933
1009.288, 34.01880
1009.770, 42.95972
1010.252, 43.67212
1010.734, 35.90967
1011.216, 31.80688
1011.698, 38.05566
1012.180, 44.40454
1012.662, 35.92651
1013.145, 21.19678
1013.627, 13.11523
1014.109, 21.72485
1014.591, 23.73706
1015.073, 13.19067
1015.555, 4.781006
1016.037, 15.71118
1016.519, 41.05762
1017.001, 58.29077
1017.484, 66.35352
1017.966, 62.44214
1018.448, 26.91187
1018.930, 4.485840
1019.412, 2.350586
1019.894, 24.93115
1020.376, 32.68335
1020.858, 16.94336
1021.341, 5.453369
1021.823, 7.114746
1022.305, 14.43237
1022.787, 16.99438
1023.269, 16.79150
1023.751, 17.64844
1024.233, 21.90259
1024.715, 24.02710
1025.197, 20.17017
1025.680, 16.32056
1026.162, 17.47852
1026.644, 23.49634
1027.126, 24.96826
1027.608, 21.87207
1028.090, 18.81934
1028.572, 16.03296
1029.054, 16.60352
1029.536, 25.32349
1030.019, 40.50903
1030.501, 57.35034
1030.983, 83.64893
1031.465, 89.66504
1031.947, 63.76831
1032.429, 28.35352
1032.911, 22.59448
1033.393, 34.77832
1033.875, 36.37451
1034.358, 18.38525
1034.840, 2.731934
1035.322, 3.100098
1035.804, 1.131348
1036.286, 8.998779
1036.768, 27.28760
1037.250, 39.21313
1037.732, 44.83325
1038.215, 45.23413
1038.697, 37.70972
1039.179, 27.98901
1039.661, 20.30884
1040.143, 14.74805
1040.625, 11.33423
1041.107, 8.028564
1041.589, 11.20337
1042.072, 23.87769
1042.554, 38.65015
1043.036, 47.72681
1043.518, 50.62134
1044.000, 40.67847
1044.482, 18.34863
1044.964, 6.164795
1045.446, 31.88306
1045.928, 56.90869
1046.411, 54.14722
1046.893, 28.74512
1047.375, 28.54810
1047.857, 54.87183
1048.339, 73.50293
1048.821, 68.37109
1049.303, 51.64478
1049.785, 28.51416
1050.267, 6.193604
1050.750, 4.265625
1051.232, 12.28906
1051.714, 21.07788
1052.196, 17.74683
1052.678, 14.51245
1053.160, 25.50317
1053.642, 45.96875
1054.124, 56.60059
1054.607, 57.19312
1055.089, 52.77124
1055.571, 40.94043
1056.053, 30.24146
1056.535, 23.34082
1057.017, 20.89893
1057.499, 27.85986
1057.981, 45.04272
1058.464, 53.68799
1058.946, 46.70020
1059.428, 39.25952
1059.910, 58.80322
1060.392, 81.57568
1060.874, 75.07861
1061.356, 20.07324
1061.838, 9.382080
1062.320, 3.373291
1062.802, 10.61353
1063.285, 16.26611
1063.767, 18.26733
1064.249, 36.37842
1064.731, 64.33228
1065.213, 78.12329
1065.695, 52.64697
1066.177, 28.11157
1066.659, 12.87769
1067.142, 8.791504
1067.624, 24.71875
1068.106, 61.62598
1068.588, 79.34766
1069.070, 72.74707
1069.552, 58.96948
1070.034, 47.56323
1070.516, 40.27026
1070.999, 41.03662
1071.481, 49.38550
1071.963, 50.02808
1072.445, 38.96631
1072.927, 31.33203
1073.409, 33.35913
1073.891, 38.36377
1074.373, 32.71753
1074.855, 22.05981
1075.338, 19.85864
1075.820, 35.88818
1076.302, 41.41675
1076.784, 18.31836
1077.266, 4.573975
1077.748, 8.504883
1078.230, 4.900635
1078.712, 18.90137
1079.195, 33.08203
1079.677, 42.13281
1080.159, 38.26636
1080.641, 32.97363
1081.123, 32.82471
1081.605, 36.42139
1082.087, 41.12500
1082.569, 48.99707
1083.052, 46.97681
1083.534, 31.74756
1084.016, 15.70605
1084.498, 13.12109
1084.980, 16.05786
1085.462, 10.69751
1085.944, 4.084717
1086.426, 0.9104000
1086.908, 40.01294
1087.391, 69.50830
1087.873, 70.03394
1088.355, 52.43774
1088.837, 35.70020
1089.319, 21.89380
1089.801, 18.62573
1090.283, 33.75122
1090.765, 45.18994
1091.247, 38.14478
1091.730, 28.21411
1092.212, 26.62793
1092.694, 33.41089
1093.176, 38.34741
1093.658, 41.61768
1094.140, 43.97998
1094.622, 45.76367
1095.104, 46.89600
1095.587, 46.37744
1096.069, 45.33203
1096.551, 46.76904
1097.033, 53.14453
1097.515, 53.56689
1097.997, 45.85059
1098.479, 10.55469
1098.961, 39.08081
1099.443, 54.89990
1099.926, 59.67456
1100.408, 15.29272
1100.890, 33.06104
1101.372, 25.92261
1101.854, 17.77808
1102.336, 44.30054
1102.818, 6.924805
1103.300, 32.89624
1103.782, 33.58179
1104.265, 45.83862
1104.747, 33.03638
1105.229, 27.97461
1105.711, 47.98169
1106.193, 54.10864
1106.675, 38.42114
1107.157, 51.41699
1107.639, 13.16650
1108.122, 19.88281
1108.604, 45.88013
1109.086, 31.45312
1109.568, 44.90698
1110.050, 47.74268
1110.532, 2.322998
1111.014, 40.82642
1111.496, 43.05420
1111.979, 8.029541
1112.461, 43.65674
1112.943, 13.73950
1113.425, 7.218018
1113.907, 43.93262
1114.389, 51.22192
1114.871, 44.36157
1115.353, 39.44946
1115.835, 44.35156
1116.318, 41.35181
1116.800, 23.63184
1117.282, 4.246826
1117.764, 4.305420
1118.246, 17.18188
1118.728, 29.27686
1119.210, 38.92554
1119.692, 41.48413
1120.174, 31.43433
1120.657, 18.85645
1121.139, 5.987305
1121.621, 5.576416
1122.103, 9.440186
1122.585, 6.305664
1123.067, 0.8732910
1123.549, 14.35010
1124.031, 24.09351
1124.514, 22.81396
1124.996, 15.55688
1125.478, 5.725098
1125.960, 7.385742
1126.442, 11.51855
1126.924, 6.588379
1127.406, 1.245850
1127.888, 9.939941
1128.370, 18.09009
1128.853, 27.56567
1129.335, 34.83130
1129.817, 30.52515
1130.299, 5.471680
1130.781, 0.7612300
1131.263, 18.63599
1131.745, 38.02979
1132.227, 21.12988
1132.709, 5.496338
1133.192, 2.570557
1133.674, 26.88599
1134.156, 45.09399
1134.638, 37.28955
1135.120, 32.26733
1135.602, 35.99316
1136.084, 44.56201
1136.566, 55.47974
1137.049, 64.72925
1137.531, 58.18042
1138.013, 32.39673
1138.495, 15.00073
1138.977, 24.81836
1139.459, 34.80493
1139.941, 35.08398
1140.423, 28.47266
1140.906, 22.06982
1141.388, 16.59546
1141.870, 16.16016
1142.352, 25.12280
1142.834, 31.62500
1143.316, 26.71509
1143.798, 19.82446
1144.280, 18.74023
1144.762, 22.96802
1145.245, 24.06714
1145.727, 22.43457
1146.209, 23.21851
1146.691, 34.19116
1147.173, 43.05762
1147.655, 39.93628
1148.137, 30.54517
1148.619, 22.88623
1149.101, 15.96265
1149.584, 18.00757
1150.066, 29.86084
1150.548, 43.04370
1151.030, 52.01392
1151.512, 58.35352
1151.994, 65.89648
1152.476, 72.16528
1152.958, 67.28149
1153.441, 45.73438
1153.923, 30.11426
1154.405, 23.06421
1154.887, 23.92651
1155.369, 44.22754
1155.851, 64.65771
1156.333, 52.09204
1156.815, 5.071777
1157.297, 14.38062
1157.780, 13.36987
1158.262, 32.58813
1158.744, 25.27075
1159.226, 8.384033
1159.708, 10.67139
1160.190, 23.45117
1160.672, 30.08154
1161.154, 25.43384
1161.636, 25.41772
1162.119, 36.83447
1162.601, 46.34888
1163.083, 46.97925
1163.565, 42.95532
1164.047, 47.67578
1164.529, 57.13110
1165.011, 59.80664
1165.493, 47.56421
1165.976, 37.81274
1166.458, 36.51245
1166.940, 37.21460
1167.422, 36.72046
1167.904, 34.64941
1168.386, 23.93652
1168.868, 8.236328
1169.350, 5.168945
1169.833, 42.24072
1170.315, 70.09058
1170.797, 62.84302
1171.279, 44.90601
1171.761, 39.14893
1172.243, 44.67261
1172.725, 47.62378
1173.207, 47.62720
1173.689, 45.88501
1174.172, 44.06689
1174.654, 40.06909
1175.136, 30.26831
1175.618, 18.79175
1176.100, 10.66333
1176.582, 5.894043
1177.064, 13.86084
1177.546, 36.30420
1178.028, 55.37817
1178.511, 55.36230
1178.993, 48.00928
1179.475, 38.79712
1179.957, 29.59985
1180.439, 26.32275
1180.921, 29.44019
1181.403, 31.87134
1181.885, 31.83081
1182.368, 33.05420
1182.850, 42.47827
1183.332, 51.90332
1183.814, 51.68384
1184.296, 42.83667
1184.778, 41.28613
1185.260, 48.14331
1185.742, 50.59180
1186.224, 41.82520
1186.707, 34.67261
1187.189, 54.64551
1187.671, 76.26562
1188.153, 63.44214
1188.635, 6.371582
1189.117, 12.33911
1189.599, 12.54517
1190.081, 39.37671
1190.563, 49.48999
1191.046, 50.30688
1191.528, 46.28394
1192.010, 39.32129
1192.492, 32.70410
1192.974, 27.67871
1193.456, 17.04492
1193.938, 2.166748
1194.420, 10.31665
1194.903, 17.72363
1195.385, 53.42847
1195.867, 59.38477
1196.349, 45.82959
1196.831, 32.78223
1197.313, 18.63843
1197.795, 17.60962
1198.277, 32.83398
1198.760, 49.04810
1199.242, 57.19507
1199.724, 56.90112
1200.206, 41.80151
1200.688, 17.33813
1201.170, 2.137939
1201.652, 1.067139
1202.134, 4.352051
1202.616, 19.54736
1203.099, 38.28174
1203.581, 63.15674
1204.063, 82.99390
1204.545, 73.69482
1205.027, 40.09375
1205.509, 19.40405
1205.991, 23.15747
1206.473, 24.79419
1206.955, 19.73511
1207.438, 12.71509
1207.920, 7.819336
1208.402, 6.370605
1208.884, 12.80786
1209.366, 26.60938
1209.848, 33.14233
1210.330, 28.68237
1210.812, 22.21484
1211.295, 15.02759
1211.777, 8.854004
1212.259, 4.103516
1212.741, 3.239502
1213.223, 12.84766
1213.705, 34.72095
1214.187, 48.37402
1214.669, 49.98120
1215.151, 46.90479
1215.634, 41.59497
1216.116, 38.13721
1216.598, 49.99365
1217.080, 67.07739
1217.562, 70.09424
1218.044, 51.48364
1218.526, 46.36963
1219.008, 65.21826
1219.490, 74.01733
1219.973, 53.05786
1220.455, 23.89575
1220.937, 24.16113
1221.419, 41.80396
1221.901, 58.37402
1222.383, 72.65234
1222.865, 73.42773
1223.347, 55.76221
1223.830, 39.41211
1224.312, 34.14600
1224.794, 36.64624
1225.276, 47.70703
1225.758, 60.54785
1226.240, 62.21533
1226.722, 40.89429
1227.204, 29.73975
1227.687, 30.73828
1228.169, 35.91968
1228.651, 45.02002
1229.133, 51.27759
1229.615, 37.12036
1230.097, 13.65308
1230.579, 3.511719
1231.061, 18.91162
1231.543, 32.34399
1232.026, 43.73901
1232.508, 49.95703
1232.990, 41.04419
1233.472, 26.78101
1233.954, 22.03662
1234.436, 21.25171
1234.918, 16.50244
1235.400, 3.941895
1235.882, 3.753906
1236.365, 22.31470
1236.847, 46.93579
1237.329, 42.85449
1237.811, 28.82007
1238.293, 25.02173
1238.775, 29.41211
1239.257, 33.47876
1239.739, 37.69580
1240.222, 36.36938
1240.704, 28.01685
1241.186, 21.56836
1241.668, 30.15283
1242.150, 40.28857
1242.632, 33.53198
1243.114, 16.99658
1243.596, 16.47900
1244.078, 38.48022
1244.561, 50.25830
1245.043, 48.28198
1245.525, 39.81860
1246.007, 24.54492
1246.489, 11.33740
1246.971, 9.256104
1247.453, 15.97632
1247.935, 22.72144
1248.417, 30.13110
1248.900, 29.17603
1249.382, 17.82007
1249.864, 9.010742
1250.346, 16.04102
1250.828, 27.78589
1251.310, 39.46240
1251.792, 48.34863
1252.274, 45.77393
1252.757, 31.58862
1253.239, 17.95996
1253.721, 5.792725
1254.203, 1.996338
1254.685, 22.12695
1255.167, 40.20654
1255.649, 41.49512
1256.131, 32.57715
1256.614, 34.72607
1257.096, 47.00635
1257.578, 61.09277
1258.060, 76.49341
1258.542, 81.49902
1259.024, 55.92651
1259.506, 31.87744
1259.988, 27.89038
1260.470, 34.45728
1260.953, 22.30029
1261.435, 1.898193
1261.917, 3.549316
1262.399, 26.89697
1262.881, 47.86694
1263.363, 24.15625
1263.845, 2.514160
1264.327, 0.6123050
1264.809, 12.41821
1265.292, 32.27246
1265.774, 57.52466
1266.256, 89.29053
1266.738, 131.4558
1267.220, 145.8015
1267.702, 94.82373
1268.184, 44.07568
1268.666, 33.23755
1269.149, 39.00146
1269.631, 34.07666
1270.113, 26.93604
1270.595, 16.48828
1271.077, 1.272949
1271.559, 0.2294920
1272.041, 21.30176
1272.523, 36.31519
1273.005, 23.65332
1273.488, 6.075439
1273.970, 0.0000000E+00
##END=



