##NAMES=Haleniusite-(La)
##RRUFFID=R060808
##IDEAL CHEMISTRY=LaOF
##LOCALITY=Bastnas, Sweden
##OWNER=RRUFF
##SOURCE=Michael Scott
##DESCRIPTION=Yellow to ochre granular aggregate
##STATUS=The identification of this mineral is not yet confirmed.
##URL=rruff.info/R060808
152.8600, 0.0000000E+00
153.3420, 24.13086
153.8240, 32.43555
154.3070, 2.283203
154.7890, 3.656250
155.2710, 20.63281
155.7530, 109.7129
156.2350, 197.6582
156.7170, 257.7773
157.1990, 268.7520
157.6820, 300.0586
158.1640, 380.2422
158.6460, 488.8711
159.1280, 589.2441
159.6100, 644.7500
160.0920, 708.9688
160.5740, 807.1387
161.0560, 959.4922
161.5380, 1112.529
162.0200, 1246.516
162.5030, 1364.666
162.9850, 1480.809
163.4670, 1608.574
163.9490, 1731.475
164.4310, 1840.135
164.9130, 1930.307
165.3950, 2012.170
165.8770, 2102.041
166.3600, 2181.363
166.8420, 2257.953
167.3240, 2330.635
167.8060, 2353.418
168.2880, 2333.355
168.7700, 2255.705
169.2520, 2137.818
169.7340, 1984.133
170.2170, 1801.021
170.6990, 1616.531
171.1810, 1439.605
171.6630, 1270.754
172.1450, 1111.543
172.6270, 958.2344
173.1090, 814.9551
173.5910, 686.1348
174.0730, 572.7305
174.5550, 469.2969
175.0380, 370.9004
175.5200, 281.1406
176.0020, 204.0449
176.4840, 148.4023
176.9660, 107.9629
177.4480, 70.79492
177.9300, 30.00586
178.4130, 5.685547
178.8950, 20.97852
179.3770, 19.37500
179.8590, 18.25391
180.3410, 35.91211
180.8230, 60.76953
181.3050, 64.70508
181.7870, 38.26562
182.2690, 1.830078
182.7510, 14.42383
183.2340, 12.05273
183.7160, 9.320313
184.1980, 20.74414
184.6800, 42.15625
185.1620, 60.75195
185.6440, 76.41211
186.1260, 85.55273
186.6080, 76.87305
187.0910, 50.09375
187.5730, 24.51953
188.0550, 14.01562
188.5370, 17.98242
189.0190, 34.63086
189.5010, 70.91797
189.9830, 116.0762
190.4650, 134.8730
190.9470, 125.1348
191.4300, 109.5938
191.9120, 113.8359
192.3940, 136.0391
192.8760, 149.1973
193.3580, 143.4062
193.8400, 122.6758
194.3220, 101.8379
194.8040, 79.65820
195.2860, 62.94531
195.7690, 64.35352
196.2510, 85.57422
196.7330, 99.43164
197.2150, 91.06445
197.6970, 64.14258
198.1790, 62.91406
198.6610, 94.66992
199.1430, 134.6504
199.6260, 147.0137
200.1080, 128.9023
200.5900, 103.1777
201.0720, 69.64844
201.5540, 27.07422
202.0360, 19.30469
202.5180, 54.39648
203.0000, 110.3633
203.4820, 150.0645
203.9650, 168.8203
204.4470, 207.2617
204.9290, 256.3535
205.4110, 312.7344
205.8930, 366.2871
206.3750, 398.2812
206.8570, 423.6914
207.3390, 459.1367
207.8220, 507.8281
208.3040, 557.6953
208.7860, 599.2109
209.2680, 629.1152
209.7500, 671.9863
210.2320, 732.4414
210.7140, 810.8047
211.1960, 889.5527
211.6780, 969.5234
212.1610, 1051.277
212.6430, 1133.141
213.1250, 1214.824
213.6070, 1305.932
214.0890, 1410.795
214.5710, 1524.682
215.0530, 1629.611
215.5350, 1716.307
216.0180, 1807.711
216.5000, 1924.166
216.9820, 2079.709
217.4640, 2205.080
217.9460, 2284.410
218.4280, 2327.201
218.9100, 2387.270
219.3920, 2483.172
219.8740, 2566.758
220.3570, 2602.082
220.8390, 2565.965
221.3210, 2542.080
221.8030, 2551.074
222.2850, 2583.941
222.7670, 2573.379
223.2490, 2501.291
223.7310, 2412.158
224.2140, 2342.613
224.6960, 2312.775
225.1780, 2256.430
225.6600, 2156.727
226.1420, 2018.424
226.6240, 1891.398
227.1060, 1775.988
227.5880, 1671.885
228.0700, 1582.016
228.5530, 1514.139
229.0350, 1441.682
229.5170, 1359.682
229.9990, 1267.539
230.4810, 1171.654
230.9630, 1061.744
231.4450, 959.1426
231.9270, 885.3789
232.4100, 853.7305
232.8920, 825.0430
233.3740, 788.6055
233.8560, 744.2383
234.3380, 726.1445
234.8200, 752.2539
235.3020, 787.5020
235.7840, 796.7578
236.2660, 762.7227
236.7490, 733.7656
237.2310, 721.4629
237.7130, 726.5703
238.1950, 729.5859
238.6770, 726.6816
239.1590, 726.1172
239.6410, 737.2031
240.1230, 765.6992
240.6050, 797.2969
241.0880, 828.2617
241.5700, 858.6523
242.0520, 890.4238
242.5340, 919.3770
243.0160, 952.9316
243.4980, 1003.219
243.9800, 1092.863
244.4620, 1155.982
244.9450, 1169.869
245.4270, 1127.768
245.9090, 1103.373
246.3910, 1118.473
246.8730, 1131.367
247.3550, 1089.803
247.8370, 957.5293
248.3190, 835.9062
248.8010, 752.4883
249.2840, 713.7559
249.7660, 658.5547
250.2480, 585.8086
250.7300, 499.2539
251.2120, 398.3145
251.6940, 262.6211
252.1760, 154.5703
252.6580, 95.21484
253.1410, 90.83789
253.6230, 78.80859
254.1050, 62.35156
254.5870, 36.76953
255.0690, 10.85938
255.5510, 108.8984
256.0330, 169.2637
256.5150, 156.3379
256.9970, 58.33398
257.4800, 9.623047
257.9620, 33.05078
258.4440, 81.49219
258.9260, 95.03320
259.4080, 56.89453
259.8900, 25.71680
260.3720, 26.17578
260.8540, 64.36914
261.3360, 52.35156
261.8190, 32.63086
262.3010, 140.0352
262.7830, 204.0664
263.2650, 207.6699
263.7470, 213.3027
264.2290, 240.5957
264.7110, 290.7480
265.1930, 321.2988
265.6760, 322.1270
266.1580, 316.3398
266.6400, 332.7500
267.1220, 378.4219
267.6040, 424.4727
268.0860, 463.4336
268.5680, 495.9902
269.0500, 525.9355
269.5320, 549.3379
270.0150, 576.8164
270.4970, 624.8340
270.9790, 701.5977
271.4610, 766.3223
271.9430, 808.4297
272.4250, 828.4004
272.9070, 829.9648
273.3890, 804.1230
273.8710, 778.0879
274.3540, 785.7285
274.8360, 833.9707
275.3180, 878.8359
275.8000, 911.7734
276.2820, 932.1289
276.7640, 934.6992
277.2460, 917.7637
277.7280, 886.5527
278.2110, 839.3125
278.6930, 772.6211
279.1750, 720.7305
279.6570, 693.4277
280.1390, 687.7285
280.6210, 690.6992
281.1030, 704.7910
281.5850, 717.6250
282.0680, 718.1914
282.5500, 706.1738
283.0320, 687.8906
283.5140, 667.0938
283.9960, 641.0547
284.4780, 591.1992
284.9600, 513.0430
285.4420, 438.5137
285.9240, 401.0488
286.4060, 398.3359
286.8890, 401.9375
287.3710, 407.4668
287.8530, 414.2031
288.3350, 421.5781
288.8170, 430.0215
289.2990, 434.0938
289.7810, 423.3516
290.2630, 401.1484
290.7460, 388.9727
291.2280, 393.4297
291.7100, 408.1230
292.1920, 422.6797
292.6740, 436.7695
293.1560, 445.1348
293.6380, 434.3086
294.1200, 412.4238
294.6030, 411.0996
295.0850, 442.9102
295.5670, 489.9980
296.0490, 519.2715
296.5310, 533.0801
297.0130, 555.1348
297.4950, 610.4570
297.9770, 686.6562
298.4590, 756.9043
298.9420, 814.1934
299.4240, 867.0488
299.9060, 922.0547
300.3880, 979.4844
300.8700, 1046.146
301.3520, 1124.662
301.8340, 1214.912
302.3160, 1315.727
302.7980, 1432.568
303.2810, 1541.430
303.7630, 1615.559
304.2450, 1660.895
304.7270, 1696.875
305.2090, 1723.680
305.6910, 1752.236
306.1730, 1800.729
306.6550, 1880.453
307.1380, 1947.199
307.6200, 1968.170
308.1020, 1949.646
308.5840, 1904.746
309.0660, 1820.018
309.5480, 1723.664
310.0300, 1643.105
310.5120, 1585.594
310.9940, 1522.977
311.4770, 1434.467
311.9590, 1330.656
312.4410, 1227.580
312.9230, 1115.814
313.4050, 1013.000
313.8870, 940.6113
314.3690, 906.8340
314.8510, 893.9668
315.3330, 904.7891
315.8160, 917.7832
316.2980, 908.2344
316.7800, 844.0605
317.2620, 783.4844
317.7440, 749.8848
318.2260, 743.0176
318.7080, 751.1426
319.1900, 776.9395
319.6720, 819.2930
320.1550, 873.6348
320.6370, 954.0977
321.1190, 1032.309
321.6010, 1093.504
322.0830, 1138.869
322.5650, 1195.375
323.0470, 1270.338
323.5300, 1356.588
324.0120, 1449.096
324.4940, 1565.857
324.9760, 1667.605
325.4580, 1737.711
325.9400, 1781.039
326.4220, 1840.666
326.9040, 1935.072
327.3860, 2035.262
327.8680, 2126.109
328.3510, 2208.361
328.8330, 2279.932
329.3150, 2333.180
329.7970, 2374.865
330.2790, 2430.596
330.7610, 2512.414
331.2430, 2596.672
331.7250, 2671.758
332.2080, 2728.850
332.6900, 2798.223
333.1720, 2896.102
333.6540, 3001.293
334.1360, 3069.088
334.6180, 3094.314
335.1000, 3092.939
335.5820, 3062.215
336.0650, 2988.076
336.5470, 2952.811
337.0290, 2975.490
337.5110, 3016.482
337.9930, 3013.842
338.4750, 2961.721
338.9570, 2883.729
339.4390, 2778.027
339.9210, 2644.047
340.4040, 2535.633
340.8860, 2462.791
341.3680, 2389.904
341.8500, 2269.203
342.3320, 2098.027
342.8140, 1931.662
343.2960, 1788.877
343.7780, 1664.119
344.2600, 1532.334
344.7430, 1390.178
345.2250, 1261.301
345.7070, 1175.033
346.1890, 1126.266
346.6710, 1074.027
347.1530, 1008.170
347.6350, 933.7520
348.1170, 851.4512
348.5990, 761.3438
349.0820, 691.3652
349.5640, 682.8633
350.0460, 709.6582
350.5280, 701.1270
351.0100, 636.1074
351.4920, 550.8789
351.9740, 486.8262
352.4570, 440.8457
352.9390, 399.7441
353.4210, 354.4316
353.9030, 310.2812
354.3850, 278.1660
354.8670, 263.2520
355.3490, 245.1055
355.8310, 199.7188
356.3130, 139.7402
356.7960, 89.12500
357.2780, 68.80273
357.7600, 57.39258
358.2420, 35.52148
358.7240, 1.087891
359.2060, 26.11523
359.6880, 35.37695
360.1700, 31.35547
360.6520, 19.56836
361.1350, 16.61328
361.6170, 42.76172
362.0990, 38.05859
362.5810, 4.142578
363.0630, 27.66016
363.5450, 44.84375
364.0270, 57.72852
364.5090, 73.92773
364.9910, 104.1133
365.4740, 127.6777
365.9560, 140.1836
366.4380, 142.2988
366.9200, 137.8652
367.4020, 113.1230
367.8840, 91.91797
368.3660, 86.30664
368.8480, 121.8691
369.3310, 133.0137
369.8130, 107.4219
370.2950, 59.38672
370.7770, 18.72852
371.2590, 12.27344
371.7410, 38.42188
372.2230, 58.10938
372.7050, 65.27930
373.1880, 92.70898
373.6700, 155.7070
374.1520, 222.8027
374.6340, 246.4883
375.1160, 202.0352
375.5980, 183.0156
376.0800, 219.1621
376.5620, 306.0020
377.0440, 395.4531
377.5260, 499.0332
378.0090, 572.7949
378.4910, 559.2871
378.9730, 453.6953
379.4550, 373.1328
379.9370, 342.4238
380.4190, 350.0098
380.9010, 368.3848
381.3840, 398.6211
381.8660, 435.3555
382.3480, 484.5918
382.8300, 539.6504
383.3120, 566.9922
383.7940, 552.8613
384.2760, 535.5273
384.7580, 576.1094
385.2400, 663.0508
385.7230, 745.7402
386.2050, 804.2520
386.6870, 837.8984
387.1690, 834.5527
387.6510, 788.6816
388.1330, 749.3809
388.6150, 770.5957
389.0970, 825.1660
389.5790, 865.1035
390.0620, 856.4316
390.5440, 838.2578
391.0260, 844.5137
391.5080, 872.7246
391.9900, 890.0078
392.4720, 864.4922
392.9540, 829.2363
393.4360, 814.1035
393.9180, 839.7031
394.4010, 871.0957
394.8830, 900.0410
395.3650, 926.7324
395.8470, 951.6660
396.3290, 977.4121
396.8110, 999.3594
397.2930, 1013.354
397.7750, 1009.738
398.2580, 1016.486
398.7400, 1044.719
399.2220, 1081.838
399.7040, 1107.980
400.1860, 1091.740
400.6680, 1100.703
401.1500, 1157.979
401.6320, 1270.471
402.1140, 1369.807
402.5970, 1463.271
403.0790, 1537.582
403.5610, 1571.701
404.0430, 1537.760
404.5250, 1544.355
405.0070, 1621.900
405.4890, 1752.111
405.9710, 1842.793
406.4530, 1885.633
406.9360, 1924.279
407.4180, 1989.523
407.9000, 2081.996
408.3820, 2164.506
408.8640, 2232.604
409.3460, 2294.670
409.8280, 2356.109
410.3100, 2418.988
410.7930, 2503.018
411.2750, 2637.719
411.7570, 2801.129
412.2390, 2923.885
412.7210, 3003.186
413.2030, 3078.883
413.6850, 3196.734
414.1670, 3338.281
414.6500, 3461.898
415.1320, 3536.635
415.6140, 3601.162
416.0960, 3692.572
416.5780, 3807.162
417.0600, 3927.334
417.5420, 4047.842
418.0240, 4165.910
418.5060, 4275.584
418.9880, 4375.592
419.4710, 4471.096
419.9530, 4573.047
420.4350, 4672.736
420.9170, 4755.344
421.3990, 4801.139
421.8810, 4843.861
422.3630, 4898.129
422.8450, 4966.152
423.3280, 5035.453
423.8100, 5112.242
424.2920, 5187.619
424.7740, 5251.525
425.2560, 5305.633
425.7380, 5348.295
426.2200, 5366.742
426.7020, 5364.639
427.1850, 5397.191
427.6670, 5505.500
428.1490, 5598.219
428.6310, 5613.988
429.1130, 5518.490
429.5950, 5450.137
430.0770, 5417.711
430.5590, 5408.762
431.0410, 5409.145
431.5240, 5424.553
432.0060, 5412.980
432.4880, 5338.961
432.9700, 5215.756
433.4520, 5161.619
433.9340, 5189.408
434.4160, 5209.246
434.8980, 5100.236
435.3800, 4894.295
435.8630, 4736.051
436.3450, 4686.568
436.8270, 4677.240
437.3090, 4596.652
437.7910, 4456.514
438.2730, 4321.432
438.7550, 4240.295
439.2370, 4188.002
439.7200, 4136.111
440.2020, 4086.000
440.6840, 4022.492
441.1660, 3921.584
441.6480, 3801.057
442.1300, 3686.818
442.6120, 3612.582
443.0940, 3528.893
443.5760, 3400.742
444.0590, 3228.242
444.5410, 3068.156
445.0230, 2945.650
445.5050, 2836.535
445.9870, 2717.439
446.4690, 2579.473
446.9510, 2447.379
447.4330, 2317.598
447.9150, 2196.244
448.3980, 2107.738
448.8800, 2085.832
449.3620, 2051.619
449.8440, 1972.998
450.3260, 1836.520
450.8080, 1726.432
451.2900, 1648.240
451.7720, 1591.516
452.2540, 1549.688
452.7370, 1529.338
453.2190, 1500.139
453.7010, 1452.578
454.1830, 1391.461
454.6650, 1335.006
455.1470, 1282.412
455.6290, 1232.162
456.1120, 1180.795
456.5940, 1130.752
457.0760, 1091.432
457.5580, 1068.021
458.0400, 1044.637
458.5220, 997.3340
459.0040, 933.9609
459.4860, 877.5352
459.9680, 845.3184
460.4510, 821.2539
460.9330, 784.8672
461.4150, 736.8672
461.8970, 699.3594
462.3790, 702.1719
462.8610, 713.4629
463.3430, 701.4316
463.8250, 632.3906
464.3070, 574.0098
464.7900, 554.9453
465.2720, 563.9824
465.7540, 570.5488
466.2360, 560.1699
466.7180, 553.3555
467.2000, 560.2168
467.6820, 587.6836
468.1640, 603.0332
468.6470, 593.1367
469.1290, 579.8750
469.6110, 587.8457
470.0930, 633.6953
470.5750, 661.9609
471.0570, 663.4004
471.5390, 640.4863
472.0210, 600.4512
472.5030, 536.7949
472.9860, 478.9414
473.4680, 447.7734
473.9500, 441.8672
474.4320, 439.1914
474.9140, 442.2559
475.3960, 437.9902
475.8780, 403.6152
476.3600, 345.5352
476.8420, 289.9668
477.3250, 241.9473
477.8070, 207.5254
478.2890, 206.3164
478.7710, 234.2051
479.2530, 254.6484
479.7350, 223.4883
480.2170, 180.3965
480.6990, 172.7324
481.1810, 223.9844
481.6640, 272.3633
482.1460, 271.9766
482.6280, 247.4668
483.1100, 241.0391
483.5920, 286.0410
484.0740, 329.6660
484.5560, 355.3750
485.0390, 360.7070
485.5210, 349.3945
486.0030, 296.0469
486.4850, 243.5293
486.9670, 218.1582
487.4490, 233.2734
487.9310, 255.1484
488.4130, 297.1406
488.8950, 339.7480
489.3780, 335.1230
489.8600, 271.6465
490.3420, 203.1191
490.8240, 147.5840
491.3060, 104.8301
491.7880, 68.38281
492.2700, 38.41211
492.7520, 14.32812
493.2340, 3.949219
493.7170, 17.14648
494.1990, 29.38672
494.6810, 45.91016
495.1630, 54.73242
495.6450, 24.43359
496.1270, 31.30859
496.6090, 65.11719
497.0910, 22.50195
497.5730, 36.54492
498.0560, 48.41016
498.5380, 6.548828
499.0200, 26.78906
499.5020, 5.136719
499.9840, 35.12695
500.4660, 59.28516
500.9480, 28.04102
501.4300, 13.34570
501.9130, 53.68359
502.3950, 125.5977
502.8770, 156.0469
503.3590, 84.30273
503.8410, 26.08008
504.3230, 27.09961
504.8050, 106.6680
505.2870, 137.8340
505.7700, 104.1914
506.2520, 45.21094
506.7340, 6.123047
507.2160, 53.44141
507.6980, 66.49609
508.1800, 25.72266
508.6620, 37.52148
509.1440, 32.77539
509.6260, 39.69336
510.1080, 100.2852
510.5910, 91.71289
511.0730, 40.00781
511.5550, 8.537109
512.0370, 0.3808590
512.5190, 3.240234
513.0010, 7.603516
513.4830, 15.61523
513.9660, 31.68164
514.4480, 67.19727
514.9300, 96.52344
515.4120, 96.93945
515.8940, 76.98828
516.3760, 60.74219
516.8580, 52.63477
517.3400, 53.04492
517.8220, 62.27344
518.3050, 80.46484
518.7870, 105.7031
519.2690, 154.7480
519.7510, 200.4727
520.2330, 220.4414
520.7150, 201.7070
521.1970, 179.5566
521.6790, 150.9336
522.1610, 123.6562
522.6440, 128.1934
523.1260, 177.5723
523.6080, 207.4570
524.0900, 172.9297
524.5720, 84.78906
525.0540, 48.76172
525.5360, 68.18164
526.0180, 108.3691
526.5000, 136.5020
526.9830, 158.0723
527.4650, 196.5156
527.9470, 273.7441
528.4290, 335.1973
528.9110, 299.0547
529.3930, 200.5312
529.8750, 129.4023
530.3570, 115.4180
530.8390, 64.85938
531.3220, 129.8242
531.8040, 166.7578
532.2860, 177.1543
532.7680, 81.56055
533.2500, 122.8457
533.7320, 109.2910
534.2140, 93.47852
534.6960, 154.0508
535.1790, 124.8125
535.6610, 94.58594
536.1430, 88.25391
536.6250, 124.8184
537.1070, 143.2754
537.5890, 112.8984
538.0710, 42.79883
538.5530, 35.15234
539.0360, 101.6699
539.5180, 176.6426
540.0000, 201.6191
540.4820, 186.4707
540.9640, 197.0059
541.4460, 245.8145
541.9280, 300.0566
542.4100, 315.1035
542.8920, 303.1055
543.3750, 295.1504
543.8570, 312.6484
544.3390, 332.6680
544.8210, 333.4922
545.3030, 318.7832
545.7850, 307.2949
546.2670, 305.7305
546.7490, 311.9004
547.2310, 328.6816
547.7140, 366.7246
548.1960, 385.5645
548.6780, 370.3906
549.1600, 338.5664
549.6420, 308.4180
550.1240, 281.5508
550.6060, 252.6973
551.0880, 213.1289
551.5700, 171.8066
552.0530, 169.1348
552.5350, 215.1875
553.0170, 257.1230
553.4990, 268.1777
553.9810, 251.7539
554.4630, 238.8848
554.9450, 230.2812
555.4270, 216.7949
555.9090, 186.4316
556.3920, 151.6055
556.8740, 133.5781
557.3560, 142.6523
557.8380, 156.1328
558.3200, 158.3398
558.8020, 155.1992
559.2840, 151.2734
559.7660, 145.5293
560.2490, 134.7891
560.7310, 118.2930
561.2130, 102.0742
561.6950, 95.96484
562.1770, 95.89648
562.6590, 100.0547
563.1410, 114.0801
563.6230, 150.9414
564.1060, 180.6621
564.5880, 200.3613
565.0700, 210.7266
565.5520, 216.2793
566.0340, 216.4902
566.5160, 210.7734
566.9980, 201.2539
567.4800, 192.2930
567.9630, 189.7949
568.4450, 193.6777
568.9270, 195.4863
569.4090, 186.0957
569.8910, 171.8340
570.3730, 166.5586
570.8550, 171.7207
571.3370, 178.2793
571.8190, 174.2695
572.3020, 169.4336
572.7840, 177.2441
573.2660, 225.8066
573.7480, 252.1602
574.2300, 213.3223
574.7120, 137.4922
575.1940, 84.36719
575.6760, 78.23047
576.1580, 83.14453
576.6410, 95.98047
577.1230, 116.4102
577.6050, 127.6934
578.0870, 125.4766
578.5690, 123.9609
579.0510, 139.3438
579.5330, 174.7070
580.0150, 168.7188
580.4970, 107.2148
580.9800, 45.14062
581.4620, 62.39453
581.9440, 141.9727
582.4260, 219.2480
582.9080, 278.6172
583.3900, 321.4062
583.8720, 343.0391
584.3540, 346.3184
584.8360, 339.1641
585.3190, 317.5469
585.8010, 297.0176
586.2830, 288.2188
586.7650, 292.4414
587.2470, 301.5430
587.7290, 313.2773
588.2110, 329.2969
588.6930, 351.5625
589.1760, 391.0664
589.6580, 418.7207
590.1400, 430.0137
590.6220, 432.5566
591.1040, 439.8184
591.5860, 454.2988
592.0680, 462.8789
592.5500, 460.6074
593.0320, 450.8945
593.5150, 437.0625
593.9970, 419.8008
594.4790, 423.0859
594.9610, 498.3340
595.4430, 592.8379
595.9250, 600.5742
596.4070, 510.2012
596.8900, 424.2715
597.3720, 427.8613
597.8540, 471.7168
598.3360, 502.3223
598.8180, 491.3516
599.3000, 487.3594
599.7820, 509.9688
600.2640, 547.9746
600.7460, 580.3242
601.2290, 614.6270
601.7110, 629.2852
602.1930, 608.6602
602.6750, 560.1953
603.1570, 541.9922
603.6390, 558.0742
604.1210, 592.7695
604.6030, 647.1914
605.0850, 718.4062
605.5680, 762.6484
606.0500, 776.8730
606.5320, 779.5352
607.0140, 790.2480
607.4960, 803.7910
607.9780, 809.1035
608.4600, 801.8750
608.9420, 787.9629
609.4240, 767.8652
609.9070, 744.4941
610.3890, 724.0996
610.8710, 709.2402
611.3530, 697.0449
611.8350, 694.9941
612.3170, 700.9336
612.7990, 679.8320
613.2810, 607.8789
613.7630, 536.0625
614.2460, 487.5898
614.7280, 466.5996
615.2100, 450.8008
615.6920, 446.1641
616.1740, 433.2930
616.6560, 377.0137
617.1380, 284.7090
617.6200, 231.9336
618.1030, 238.6406
618.5850, 270.8770
619.0670, 290.0605
619.5490, 298.4805
620.0310, 302.4844
620.5130, 297.4062
620.9950, 294.3262
621.4770, 311.9707
621.9590, 342.0527
622.4420, 345.5938
622.9240, 266.2207
623.4060, 193.6328
623.8880, 174.5176
624.3700, 225.9297
624.8520, 265.6055
625.3340, 294.3613
625.8160, 310.5879
626.2990, 314.2227
626.7810, 306.9082
627.2630, 273.9844
627.7450, 205.1348
628.2270, 130.7168
628.7090, 104.4492
629.1910, 118.7988
629.6730, 129.0527
630.1560, 121.1133
630.6380, 100.1230
631.1200, 61.55469
631.6020, 12.87109
632.0840, 20.94922
632.5660, 8.728516
633.0480, 7.914063
633.5300, 3.201172
634.0120, 45.97070
634.4950, 67.92969
634.9770, 42.78516
635.4590, 6.421875
635.9410, 22.88672
636.4230, 52.06250
636.9050, 52.59180
637.3870, 12.34766
637.8690, 40.66992
638.3510, 78.41406
638.8340, 101.3047
639.3160, 94.91016
639.7980, 44.88086
640.2800, 15.70703
640.7620, 18.73438
641.2440, 18.57031
641.7260, 36.84375
642.2080, 14.45508
642.6900, 82.32227
643.1730, 124.6699
643.6550, 144.1836
644.1370, 156.6562
644.6190, 163.5977
645.1010, 169.9395
645.5830, 177.2461
646.0650, 184.1152
646.5470, 197.4609
647.0290, 216.8750
647.5120, 241.4238
647.9940, 267.6250
648.4760, 292.3496
648.9580, 333.4258
649.4400, 395.9648
649.9220, 463.7500
650.4040, 520.2871
650.8860, 563.2676
651.3690, 578.6113
651.8510, 554.2949
652.3330, 510.7891
652.8150, 459.8984
653.2970, 409.0898
653.7790, 378.1328
654.2610, 384.6113
654.7430, 407.7109
655.2260, 447.0996
655.7080, 502.3164
656.1900, 536.7031
656.6720, 523.2285
657.1540, 505.2070
657.6360, 505.8496
658.1180, 533.3008
658.6000, 532.8984
659.0830, 493.8477
659.5650, 449.6367
660.0470, 436.4824
660.5290, 451.3164
661.0110, 469.3359
661.4930, 490.8848
661.9750, 502.0195
662.4570, 463.6016
662.9390, 404.3906
663.4220, 384.6680
663.9040, 476.0059
664.3860, 565.9453
664.8680, 588.2949
665.3500, 559.1191
665.8320, 523.2188
666.3140, 464.7754
666.7960, 427.7148
667.2780, 428.3320
667.7610, 464.2441
668.2430, 499.5840
668.7250, 535.3340
669.2070, 561.8711
669.6890, 564.0977
670.1710, 543.7559
670.6530, 556.2207
671.1350, 607.2188
671.6170, 645.6113
672.1000, 599.3105
672.5820, 511.1699
673.0640, 462.7500
673.5460, 483.9629
674.0280, 507.7500
674.5100, 497.3496
674.9920, 463.2754
675.4740, 418.6777
675.9560, 330.5312
676.4390, 278.9492
676.9210, 303.2734
677.4030, 369.9902
677.8850, 405.0781
678.3670, 397.7383
678.8490, 381.6348
679.3310, 357.5352
679.8130, 332.4160
680.2960, 341.8613
680.7780, 384.5469
681.2600, 439.6367
681.7420, 507.5098
682.2240, 572.4277
682.7060, 603.1641
683.1880, 599.2559
683.6700, 584.8555
684.1530, 566.3730
684.6350, 549.9609
685.1170, 541.7520
685.5990, 546.9336
686.0810, 550.5352
686.5630, 559.4316
687.0450, 561.6797
687.5270, 543.0293
688.0100, 489.4316
688.4920, 460.4902
688.9740, 466.8867
689.4560, 491.9844
689.9380, 505.6094
690.4200, 510.3262
690.9020, 524.7988
691.3840, 562.6738
691.8660, 598.5176
692.3490, 599.7871
692.8310, 575.7344
693.3130, 546.9062
693.7950, 498.5586
694.2770, 466.5527
694.7590, 489.9883
695.2410, 561.0059
695.7230, 587.5723
696.2050, 512.8730
696.6880, 439.0645
697.1700, 411.5762
697.6520, 438.5508
698.1340, 435.2969
698.6160, 394.5605
699.0980, 341.6289
699.5800, 292.5410
700.0620, 251.5039
700.5440, 224.4805
701.0270, 213.9414
701.5090, 202.7637
701.9910, 171.2812
702.4730, 130.3691
702.9550, 93.67188
703.4370, 60.72656
703.9190, 40.04297
704.4010, 31.86133
704.8830, 40.98438
705.3660, 70.75977
705.8480, 155.5762
706.3300, 203.9414
706.8120, 194.8906
707.2940, 149.1113
707.7760, 112.8633
708.2580, 86.19727
708.7400, 77.00000
709.2220, 102.6250
709.7050, 136.7910
710.1870, 115.4512
710.6690, 48.49023
711.1510, 12.44141
711.6330, 36.54688
712.1150, 44.64844
712.5970, 54.90234
713.0800, 67.38672
713.5620, 64.79297
714.0440, 23.51172
714.5260, 17.58203
715.0080, 37.77734
715.4900, 32.98828
715.9720, 26.63867
716.4540, 15.10938
716.9360, 8.630859
717.4190, 19.37891
717.9010, 45.37109
718.3830, 64.06250
718.8650, 74.13672
719.3470, 80.74414
719.8290, 103.7422
720.3110, 128.9707
720.7930, 128.8242
721.2760, 77.23047
721.7580, 39.80469
722.2400, 64.50000
722.7220, 118.4688
723.2040, 154.1484
723.6860, 161.7070
724.1680, 153.2930
724.6500, 116.9492
725.1320, 71.91211
725.6150, 68.02930
726.0970, 112.1582
726.5790, 142.6152
727.0610, 134.7070
727.5430, 106.7617
728.0250, 102.3086
728.5070, 114.8145
728.9890, 115.2109
729.4710, 54.30273
729.9540, 1.541016
730.4360, 23.16992
730.9180, 111.1211
731.4000, 190.5098
731.8820, 260.7988
732.3640, 299.2324
732.8460, 292.9434
733.3280, 239.2422
733.8100, 178.7246
734.2930, 104.1074
734.7750, 42.44727
735.2570, 17.42773
735.7390, 23.58594
736.2210, 26.60156
736.7030, 24.37500
737.1850, 32.00781
737.6670, 89.63086
738.1490, 153.6348
738.6320, 158.3809
739.1140, 69.94531
739.5960, 9.222656
740.0780, 63.84766
740.5600, 149.1328
741.0420, 176.9766
741.5240, 89.82227
742.0060, 48.13867
742.4890, 64.37109
742.9710, 116.8848
743.4530, 187.0469
743.9350, 273.4062
744.4170, 332.5859
744.8990, 348.8711
745.3810, 343.2129
745.8630, 340.6562
746.3460, 338.6367
746.8280, 332.5410
747.3100, 302.8379
747.7920, 285.9316
748.2740, 318.3730
748.7560, 378.4102
749.2380, 405.2969
749.7200, 382.9023
750.2030, 342.5566
750.6850, 286.8359
751.1670, 220.6855
751.6490, 157.4785
752.1310, 95.09375
752.6130, 62.29492
753.0950, 88.95508
753.5770, 147.7363
754.0590, 182.4355
754.5420, 194.3711
755.0240, 193.6484
755.5060, 163.8457
755.9880, 139.6699
756.4700, 152.2988
756.9520, 202.9551
757.4340, 239.0762
757.9160, 257.4785
758.3980, 251.4102
758.8810, 207.8086
759.3630, 121.2559
759.8450, 84.12500
760.3270, 110.2266
760.8090, 134.2832
761.2910, 87.18164
761.7730, 1.199219
762.2550, 43.64258
762.7370, 31.03516
763.2200, 6.542969
763.7020, 2.572266
764.1840, 3.160156
764.6660, 10.14258
765.1480, 51.30273
765.6300, 74.65234
766.1120, 42.92188
766.5940, 7.343750
767.0760, 14.81445
767.5590, 78.16602
768.0410, 130.0234
768.5230, 164.1055
769.0050, 187.2676
769.4870, 199.2441
769.9690, 207.6680
770.4510, 245.5879
770.9330, 336.4414
771.4160, 411.6309
771.8980, 406.2793
772.3800, 352.7207
772.8620, 296.3535
773.3440, 250.2305
773.8260, 204.1250
774.3080, 158.1504
774.7900, 112.2148
775.2730, 61.08008
775.7550, 3.406250
776.2370, 32.83789
776.7190, 5.880859
777.2010, 44.61133
777.6830, 46.93750
778.1650, 14.44141
778.6470, 0.8808590
779.1300, 20.33203
779.6120, 59.87695
780.0940, 119.9941
780.5760, 187.0742
781.0580, 229.6758
781.5400, 217.7051
782.0220, 202.3809
782.5040, 200.2578
782.9860, 203.8594
783.4680, 179.4883
783.9510, 115.9648
784.4330, 73.83594
784.9150, 79.81641
785.3970, 122.2461
785.8790, 156.3047
786.3610, 186.0781
786.8430, 205.8477
787.3250, 200.8438
787.8070, 194.2852
788.2900, 218.3359
788.7720, 269.0508
789.2540, 309.1250
789.7360, 324.3359
790.2180, 338.1172
790.7000, 369.7266
791.1820, 415.6328
791.6640, 420.3164
792.1460, 373.0352
792.6290, 342.5508
793.1110, 392.6367
793.5930, 483.2930
794.0750, 510.6367
794.5570, 478.4688
795.0390, 435.8828
795.5210, 415.1406
796.0030, 400.1016
796.4860, 371.1289
796.9680, 331.8438
797.4500, 301.7734
797.9320, 280.5430
798.4140, 277.4531
798.8960, 299.6094
799.3780, 348.7188
799.8600, 356.6328
800.3430, 319.6016
800.8250, 276.6328
801.3070, 257.3477
801.7890, 252.7344
802.2710, 245.2500
802.7530, 233.4492
803.2350, 224.7305
803.7170, 224.1797
804.2000, 227.2891
804.6820, 229.9180
805.1640, 229.5234
805.6460, 241.3750
806.1280, 285.7383
806.6100, 312.0039
807.0920, 260.9375
807.5740, 136.6680
808.0560, 114.7148
808.5390, 206.3242
809.0210, 304.8633
809.5030, 316.2617
809.9850, 272.5625
810.4670, 206.9727
810.9490, 117.7930
811.4310, 57.51562
811.9130, 53.93750
812.3950, 84.37891
812.8780, 138.4492
813.3600, 245.4648
813.8420, 273.6094
814.3240, 195.9805
814.8060, 98.33594
815.2880, 57.06641
815.7700, 63.79297
816.2520, 80.30469
816.7340, 104.9180
817.2170, 121.3438
817.6990, 104.7812
818.1810, 77.88672
818.6630, 66.08594
819.1450, 79.23438
819.6270, 92.08984
820.1090, 99.29297
820.5910, 105.3242
821.0730, 115.1133
821.5560, 133.4922
822.0380, 117.3672
822.5200, 57.49219
823.0020, 2.585938
823.4840, 19.56250
823.9660, 3.015625
824.4480, 32.34375
824.9300, 89.76953
825.4130, 132.0625
825.8950, 104.1484
826.3770, 65.83594
826.8590, 74.41797
827.3410, 174.9609
827.8230, 243.5508
828.3050, 271.5430
828.7870, 276.4062
829.2690, 271.1016
829.7520, 255.9336
830.2340, 234.1836
830.7160, 204.8828
831.1980, 180.9844
831.6800, 187.1133
832.1620, 202.4727
832.6440, 192.9180
833.1270, 142.9609
833.6090, 107.1016
834.0910, 134.1797
834.5730, 164.8008
835.0550, 141.6836
835.5370, 27.66797
836.0190, 27.37891
836.5010, 12.02344
836.9830, 29.91406
837.4660, 58.67969
837.9480, 75.88672
838.4300, 81.51953
838.9120, 73.52344
839.3940, 77.38281
839.8760, 148.4297
840.3580, 219.6367
840.8400, 217.1719
841.3220, 84.51172
841.8050, 8.894531
842.2870, 14.26562
842.7690, 65.74219
843.2510, 38.48438
843.7330, 97.94531
844.2150, 115.0586
844.6970, 36.92969
845.1790, 29.38672
845.6610, 8.171875
846.1440, 16.66016
846.6260, 80.30078
847.1080, 47.24609
847.5900, 47.71875
848.0720, 53.81641
848.5540, 100.5625
849.0360, 59.26953
849.5180, 45.37891
850.0000, 45.07031
850.4830, 25.05859
850.9650, 22.33203
851.4470, 30.48828
851.9290, 42.19922
852.4110, 17.80469
852.8930, 44.26172
853.3750, 76.13672
853.8570, 25.66016
854.3400, 139.1641
854.8220, 151.7773
855.3040, 26.25000
855.7860, 40.86328
856.2680, 12.05078
856.7500, 39.38672
857.2320, 72.02344
857.7140, 86.02734
858.1960, 121.4805
858.6790, 178.9961
859.1610, 229.9844
859.6430, 255.6055
860.1250, 260.2656
860.6070, 237.8242
861.0890, 190.0898
861.5710, 166.8828
862.0540, 211.4062
862.5360, 260.3672
863.0180, 285.4883
863.5000, 286.8398
863.9820, 283.0859
864.4640, 272.7461
864.9460, 266.0117
865.4280, 274.7812
865.9100, 289.8281
866.3930, 294.4453
866.8750, 287.9609
867.3570, 266.0781
867.8390, 220.5977
868.3210, 165.8320
868.8030, 91.79688
869.2850, 6.425781
869.7670, 14.18750
870.2490, 64.07031
870.7320, 134.5625
871.2140, 149.3828
871.6960, 133.1133
872.1780, 191.4766
872.6600, 307.6094
873.1420, 369.2617
873.6240, 260.5820
874.1060, 121.6250
874.5880, 46.63672
875.0710, 32.14453
875.5530, 63.07422
876.0350, 202.3242
876.5170, 300.4180
876.9990, 317.8906
877.4810, 281.6211
877.9630, 258.1562
878.4450, 247.6758
878.9270, 262.5898
879.4100, 322.9727
879.8920, 385.4922
880.3740, 398.0078
880.8560, 372.0586
881.3380, 331.8633
881.8200, 260.9023
882.3020, 212.5234
882.7840, 209.8867
883.2660, 230.8203
883.7490, 241.6562
884.2310, 237.7227
884.7130, 256.7812
885.1950, 316.9375
885.6770, 370.2266
886.1590, 320.3203
886.6410, 220.3828
887.1230, 187.1328
887.6060, 280.3516
888.0880, 361.5312
888.5700, 348.5430
889.0520, 301.6484
889.5340, 283.1992
890.0160, 288.2070
890.4980, 338.5586
890.9800, 453.0938
891.4630, 566.6055
891.9450, 593.3672
892.4270, 559.1367
892.9090, 546.3555
893.3910, 567.0078
893.8730, 582.7148
894.3550, 574.3633
894.8370, 552.0195
895.3200, 513.9766
895.8020, 443.8125
896.2840, 429.0664
896.7660, 492.3086
897.2480, 567.0742
897.7300, 633.8008
898.2120, 681.0469
898.6940, 604.2227
899.1760, 409.6914
899.6590, 255.5547
900.1410, 307.7070
900.6230, 404.2188
901.1050, 421.6953
901.5870, 351.3320
902.0690, 313.6250
902.5510, 341.5508
903.0330, 368.0664
903.5150, 362.0938
903.9980, 328.4648
904.4800, 302.5547
904.9620, 276.4570
905.4440, 241.5312
905.9260, 159.2773
906.4080, 83.21875
906.8900, 29.93750
907.3720, 17.22656
907.8540, 89.53516
908.3370, 434.1094
908.8190, 636.4648
909.3010, 568.1641
909.7830, 345.6914
910.2650, 224.1094
910.7470, 198.9102
911.2290, 189.3008
911.7110, 184.9375
912.1930, 178.6914
912.6760, 168.5625
913.1580, 155.1172
913.6400, 132.1406
914.1220, 72.46875
914.6040, 60.32031
915.0860, 147.9414
915.5680, 251.2266
916.0500, 271.8867
916.5330, 202.3984
917.0150, 170.3828
917.4970, 191.9141
917.9790, 225.7266
918.4610, 229.8711
918.9430, 220.6094
919.4250, 219.0508
919.9070, 229.1953
920.3900, 244.9102
920.8720, 261.6445
921.3540, 286.1328
921.8360, 327.9414
922.3180, 389.1797
922.8000, 404.0234
923.2820, 366.4102
923.7640, 329.9102
924.2470, 325.4844
924.7290, 348.4336
925.2110, 412.3672
925.6930, 507.4375
926.1750, 567.9922
926.6570, 550.6523
927.1390, 511.4844
927.6210, 457.6992
928.1030, 403.6758
928.5860, 402.4922
929.0680, 461.9062
929.5500, 502.3086
930.0320, 493.1094
930.5140, 453.4258
930.9960, 390.3555
931.4780, 320.6914
931.9600, 283.3594
932.4420, 339.3125
932.9250, 370.6719
933.4070, 318.3555
933.8890, 242.1211
934.3710, 223.9492
934.8530, 272.6875
935.3350, 309.5820
935.8170, 323.1211
936.2990, 322.9453
936.7810, 307.8828
937.2640, 290.3359
937.7460, 293.1484
938.2280, 326.7383
938.7100, 353.9609
939.1920, 370.3164
939.6740, 367.4531
940.1560, 333.6133
940.6380, 263.4258
941.1200, 223.7070
941.6030, 217.3086
942.0850, 213.3203
942.5670, 193.1367
943.0490, 158.7695
943.5310, 96.21484
944.0130, 13.19141
944.4950, 31.80469
944.9770, 35.79688
945.4600, 86.44531
945.9420, 63.92188
946.4240, 9.238281
946.9060, 33.84375
947.3880, 7.847656
947.8700, 13.06641
948.3520, 4.015625
948.8340, 12.80859
949.3170, 18.21484
949.7990, 8.738281
950.2810, 22.28125
950.7630, 127.4961
951.2450, 183.4727
951.7270, 136.3477
952.2090, 62.98047
952.6910, 73.40234
953.1730, 170.4492
953.6560, 199.0156
954.1380, 132.7539
954.6200, 45.43750
955.1020, 9.230469
955.5840, 34.47266
956.0660, 27.42578
956.5480, 19.05859
957.0300, 57.71484
957.5130, 82.53906
957.9950, 95.92969
958.4770, 91.57031
958.9590, 73.66406
959.4410, 96.08984
959.9230, 158.1055
960.4050, 224.6758
960.8870, 284.0469
961.3690, 317.9766
961.8520, 311.1406
962.3340, 269.3477
962.8160, 201.8711
963.2980, 51.71875
963.7800, 28.45703
964.2620, 20.18750
964.7440, 122.4297
965.2260, 131.1172
965.7080, 65.75781
966.1910, 37.03125
966.6730, 90.82812
967.1550, 144.0547
967.6370, 121.0430
968.1190, 65.76172
968.6010, 29.97266
969.0830, 36.75391
969.5650, 24.45703
970.0470, 20.06250
970.5300, 54.60156
971.0120, 27.19141
971.4940, 40.39453
971.9760, 59.78516
972.4580, 30.15234
972.9400, 17.79297
973.4220, 92.30859
973.9040, 172.0664
974.3860, 199.2891
974.8690, 177.9453
975.3510, 182.8750
975.8330, 225.1250
976.3150, 252.8789
976.7970, 240.6562
977.2790, 209.1445
977.7610, 192.6641
978.2440, 189.2852
978.7260, 194.2656
979.2080, 204.2344
979.6900, 222.8477
980.1720, 270.6797
980.6540, 316.6250
981.1360, 321.4414
981.6180, 278.1875
982.1000, 237.9570
982.5830, 204.2812
983.0650, 179.9688
983.5470, 166.4414
984.0290, 165.8203
984.5110, 194.6953
984.9930, 258.2539
985.4750, 279.8086
985.9570, 182.9766
986.4400, 97.10547
986.9220, 79.09375
987.4040, 117.0781
987.8860, 132.9844
988.3680, 126.9844
988.8500, 108.7383
989.3320, 60.21094
989.8140, 24.35938
990.2960, 64.76172
990.7790, 145.0312
991.2610, 186.3594
991.7430, 131.4531
992.2250, 106.0742
992.7070, 131.1914
993.1890, 173.5430
993.6710, 184.1953
994.1530, 171.4570
994.6350, 169.8594
995.1180, 185.5898
995.6000, 203.1680
996.0820, 228.4023
996.5640, 238.3672
997.0460, 199.2930
997.5280, 102.8047
998.0100, 69.72656
998.4920, 115.4297
998.9740, 168.0078
999.4570, 190.7617
999.9390, 193.1641
1000.421, 178.5547
1000.903, 158.1367
1001.385, 169.4414
1001.867, 295.4648
1002.349, 373.8750
1002.831, 327.5938
1003.314, 220.3164
1003.796, 140.4531
1004.278, 86.29297
1004.760, 74.08594
1005.242, 116.0938
1005.724, 169.5039
1006.206, 194.1641
1006.688, 202.3086
1007.170, 214.2266
1007.653, 239.3047
1008.135, 238.1562
1008.617, 194.2969
1009.099, 143.4062
1009.581, 98.62109
1010.063, 61.71875
1010.545, 36.80078
1011.027, 26.63672
1011.510, 51.33594
1011.992, 180.5312
1012.474, 287.8594
1012.956, 274.9961
1013.438, 184.9922
1013.920, 121.2969
1014.402, 95.68359
1014.884, 75.42969
1015.366, 57.80859
1015.849, 42.07812
1016.331, 35.52344
1016.813, 28.23828
1017.295, 10.94141
1017.777, 93.44922
1018.259, 138.3984
1018.741, 96.41406
1019.223, 20.44141
1019.706, 87.12891
1020.188, 216.4141
1020.670, 197.8086
1021.152, 30.45703
1021.634, 88.70703
1022.116, 5.359375
1022.598, 129.8984
1023.080, 168.4961
1023.562, 146.1719
1024.045, 141.6211
1024.527, 191.8008
1025.009, 222.2578
1025.491, 223.5352
1025.973, 207.7930
1026.455, 175.5859
1026.937, 138.7070
1027.419, 150.2344
1027.901, 217.1875
1028.384, 264.3477
1028.866, 245.2422
1029.348, 201.0273
1029.830, 149.5508
1030.312, 94.08984
1030.794, 42.45312
1031.276, 6.613281
1031.758, 31.69922
1032.240, 18.21875
1032.723, 18.68359
1033.205, 70.93359
1033.687, 128.4180
1034.169, 172.7500
1034.651, 203.3164
1035.133, 205.7930
1035.615, 157.0820
1036.097, 107.9727
1036.580, 116.6641
1037.062, 172.6172
1037.544, 218.9883
1038.026, 251.1016
1038.508, 270.4688
1038.990, 262.2656
1039.472, 255.5781
1039.954, 286.0625
1040.437, 343.5391
1040.919, 339.7578
1041.401, 256.8906
1041.883, 202.2383
1042.365, 225.2812
1042.847, 263.6211
1043.329, 200.1523
1043.811, 87.16406
1044.293, 22.49609
1044.776, 62.05078
1045.258, 84.69531
1045.740, 42.76172
1046.222, 6.882813
1046.704, 40.54688
1047.186, 137.2656
1047.668, 187.7773
1048.150, 192.9648
1048.632, 178.5352
1049.115, 139.0391
1049.597, 106.0508
1050.079, 103.5938
1050.561, 126.5000
1051.043, 152.9805
1051.525, 186.7891
1052.007, 203.6602
1052.489, 190.9375
1052.972, 182.1016
1053.454, 238.3203
1053.936, 323.3984
1054.418, 375.5312
1054.900, 377.1445
1055.382, 370.1797
1055.864, 351.6328
1056.346, 341.5312
1056.828, 356.0508
1057.311, 387.5820
1057.793, 383.8828
1058.275, 349.7500
1058.757, 322.3516
1059.239, 334.4141
1059.721, 346.1328
1060.203, 327.4258
1060.685, 295.7617
1061.167, 286.0117
1061.650, 318.6289
1062.132, 300.7461
1062.614, 216.8672
1063.096, 127.6523
1063.578, 96.38672
1064.060, 96.89062
1064.542, 93.49219
1065.024, 84.94922
1065.507, 100.4883
1065.989, 191.1992
1066.471, 246.9531
1066.953, 222.2812
1067.435, 155.7852
1067.917, 155.2383
1068.399, 208.9805
1068.881, 263.7891
1069.364, 310.9102
1069.846, 336.2383
1070.328, 320.3516
1070.810, 284.0156
1071.292, 238.6328
1071.774, 173.3086
1072.256, 177.8164
1072.738, 258.3125
1073.220, 342.1797
1073.703, 382.7266
1074.185, 394.2031
1074.667, 390.9766
1075.149, 371.8164
1075.631, 328.1719
1076.113, 240.8516
1076.595, 171.1719
1077.077, 129.5664
1077.559, 107.0117
1078.042, 98.94922
1078.524, 103.9023
1079.006, 117.4023
1079.488, 134.8906
1079.970, 161.3164
1080.452, 206.1094
1080.934, 239.0547
1081.416, 242.3359
1081.898, 221.8320
1082.381, 201.9961
1082.863, 182.8359
1083.345, 192.8984
1083.827, 255.3984
1084.309, 323.0625
1084.791, 350.3398
1085.273, 359.1914
1085.755, 381.1445
1086.238, 431.6328
1086.720, 458.7266
1087.202, 462.7422
1087.684, 442.7148
1088.166, 375.8359
1088.648, 296.3711
1089.130, 263.7227
1089.612, 276.4531
1090.094, 316.1016
1090.577, 418.2422
1091.059, 474.6289
1091.541, 451.4688
1092.023, 404.0117
1092.505, 422.5742
1092.987, 492.3242
1093.469, 547.4258
1093.951, 577.3164
1094.433, 601.8438
1094.916, 658.9180
1095.398, 688.8672
1095.880, 632.0898
1096.362, 507.4297
1096.844, 439.9062
1097.326, 429.3984
1097.808, 472.1875
1098.290, 596.6523
1098.773, 715.1016
1099.255, 724.1445
1099.737, 671.4961
1100.219, 615.9141
1100.701, 560.0117
1101.183, 522.8203
1101.665, 508.4102
1102.147, 500.6953
1102.630, 482.5430
1103.112, 464.8164
1103.594, 480.0391
1104.076, 516.2383
1104.558, 531.0508
1105.040, 482.6797
1105.522, 442.8984
1106.004, 422.1133
1106.486, 417.6523
1106.969, 450.1797
1107.451, 500.3945
1107.933, 451.0352
1108.415, 287.8164
1108.897, 163.3555
1109.379, 230.5586
1109.861, 311.4180
1110.343, 296.4961
1110.825, 212.3516
1111.308, 158.6328
1111.790, 137.3477
1112.272, 135.6484
1112.754, 149.4805
1113.236, 160.9766
1113.718, 136.6875
1114.200, 113.3984
1114.682, 140.2461
1115.165, 238.8594
1115.647, 293.9375
1116.129, 299.0977
1116.611, 278.8086
1117.093, 238.1953
1117.575, 187.2070
1118.057, 131.6250
1118.539, 80.01172
1119.021, 52.62500
1119.504, 98.89062
1119.986, 101.7383
1120.468, 29.17969
1120.950, 42.61719
1121.432, 14.48047
1121.914, 75.80859
1122.396, 112.3633
1122.878, 93.14844
1123.360, 58.92578
1123.843, 5.171875
1124.325, 30.02734
1124.807, 35.86328
1125.289, 15.69531
1125.771, 31.28906
1126.253, 101.2539
1126.735, 164.6367
1127.217, 214.7109
1127.700, 259.5117
1128.182, 306.2227
1128.664, 346.4258
1129.146, 367.8086
1129.628, 372.6562
1130.110, 399.5703
1130.592, 450.1016
1131.074, 478.4180
1131.557, 457.5664
1132.039, 425.4648
1132.521, 433.7383
1133.003, 451.6094
1133.485, 435.3711
1133.967, 363.5352
1134.449, 323.5664
1134.931, 328.0703
1135.413, 319.9414
1135.896, 226.7188
1136.378, 119.8867
1136.860, 139.6523
1137.342, 238.0469
1137.824, 285.6523
1138.306, 171.9922
1138.788, 114.3398
1139.270, 142.9922
1139.752, 197.7734
1140.235, 210.1016
1140.717, 198.8438
1141.199, 221.7695
1141.681, 276.3516
1142.163, 310.4141
1142.645, 286.9688
1143.127, 256.9453
1143.609, 238.3750
1144.092, 222.3516
1144.574, 191.9688
1145.056, 149.0781
1145.538, 91.39453
1146.020, 18.04297
1146.502, 48.29297
1146.984, 119.0977
1147.466, 145.6953
1147.948, 82.17578
1148.431, 46.55078
1148.913, 96.28125
1149.395, 72.54297
1149.877, 60.94922
1150.359, 93.95703
1150.841, 137.1016
1151.323, 169.9336
1151.805, 194.2656
1152.287, 214.5234
1152.770, 231.9336
1153.252, 212.1523
1153.734, 150.1484
1154.216, 115.4766
1154.698, 186.2422
1155.180, 266.3438
1155.662, 237.7812
1156.144, 159.9414
1156.626, 154.5977
1157.109, 278.6367
1157.591, 327.6250
1158.073, 285.6211
1158.555, 222.1953
1159.037, 191.2773
1159.519, 176.6562
1160.001, 152.1719
1160.483, 122.8477
1160.966, 118.4492
1161.448, 167.6758
1161.930, 186.5195
1162.412, 158.5508
1162.894, 112.8828
1163.376, 84.08203
1163.858, 65.36719
1164.340, 42.62891
1164.823, 19.13281
1165.305, 0.6132810
1165.787, 11.27344
1166.269, 13.91406
1166.751, 4.585938
1167.233, 14.39062
1167.715, 55.20703
1168.197, 99.49219
1168.679, 88.75000
1169.161, 3.566406
1169.644, 66.92969
1170.126, 60.09375
1170.608, 19.53906
1171.090, 58.12500
1171.572, 147.8125
1172.054, 148.5312
1172.536, 86.07031
1173.018, 61.27734
1173.501, 125.1836
1173.983, 193.2305
1174.465, 244.4961
1174.947, 275.9883
1175.429, 277.9102
1175.911, 255.8477
1176.393, 274.0742
1176.875, 322.9531
1177.358, 339.9180
1177.840, 243.0156
1178.322, 165.5898
1178.804, 182.2773
1179.286, 241.0938
1179.768, 288.2188
1180.250, 322.6523
1180.732, 350.8711
1181.214, 372.6719
1181.697, 387.0977
1182.179, 375.8750
1182.661, 373.2812
1183.143, 424.1523
1183.625, 486.8906
1184.107, 476.9414
1184.589, 389.3359
1185.071, 349.6250
1185.553, 372.5977
1186.036, 395.7422
1186.518, 375.8789
1187.000, 330.9336
1187.482, 253.1016
1187.964, 162.9609
1188.446, 133.9414
1188.928, 172.4805
1189.410, 201.1914
1189.893, 206.5000
1190.375, 196.7695
1190.857, 162.1016
1191.339, 130.1172
1191.821, 136.8359
1192.303, 177.6797
1192.785, 170.6484
1193.267, 106.6250
1193.750, 76.07812
1194.232, 115.9844
1194.714, 171.5938
1195.196, 200.7656
1195.678, 204.5586
1196.160, 173.2930
1196.642, 100.5195
1197.124, 69.64062
1197.606, 86.76562
1198.089, 97.70312
1198.571, 65.77734
1199.053, 36.57422
1199.535, 94.64062
1200.017, 175.2891
1200.499, 175.6133
1200.981, 46.48828
1201.463, 5.402344
1201.945, 67.43750
1202.428, 127.4336
1202.910, 101.2773
1203.392, 58.37891
1203.874, 100.2305
1204.356, 179.3008
1204.838, 201.5625
1205.320, 119.6523
1205.802, 94.92188
1206.285, 140.7734
1206.767, 200.7852
1207.249, 212.9805
1207.731, 201.5977
1208.213, 198.8789
1208.695, 210.2891
1209.177, 245.0859
1209.659, 320.6836
1210.141, 372.4141
1210.624, 385.6133
1211.106, 392.6680
1211.588, 449.2773
1212.070, 500.6328
1212.552, 449.5391
1213.034, 323.4375
1213.516, 279.1016
1213.998, 363.2734
1214.480, 425.5352
1214.963, 449.5234
1215.445, 433.5781
1215.927, 346.9102
1216.409, 239.5625
1216.891, 171.5234
1217.373, 146.3633
1217.855, 135.1641
1218.337, 137.5508
1218.820, 154.3945
1219.302, 196.7852
1219.784, 218.6133
1220.266, 113.6406
1220.748, 16.83203
1221.230, 39.42578
1221.712, 63.32031
1222.194, 169.8750
1222.677, 291.1055
1223.159, 345.4336
1223.641, 288.3945
1224.123, 208.0469
1224.605, 209.3945
1225.087, 261.1133
1225.569, 342.2539
1226.051, 458.9062
1226.533, 477.1055
1227.016, 362.2109
1227.498, 282.7500
1227.980, 323.1133
1228.462, 399.8672
1228.944, 417.8984
1229.426, 394.1016
1229.908, 341.2578
1230.390, 247.3906
1230.872, 219.1797
1231.355, 271.3281
1231.837, 313.9570
1232.319, 284.7891
1232.801, 255.2578
1233.283, 336.7305
1233.765, 464.6758
1234.247, 534.0234
1234.729, 521.6133
1235.212, 498.9609
1235.694, 462.5742
1236.176, 436.0078
1236.658, 432.8281
1237.140, 443.8750
1237.622, 474.2109
1238.104, 505.8906
1238.586, 512.2500
1239.068, 493.9570
1239.551, 437.1992
1240.033, 336.4219
1240.515, 271.7383
1240.997, 337.2109
1241.479, 422.9766
1241.961, 423.1211
1242.443, 381.5156
1242.925, 379.1641
1243.407, 427.9023
1243.890, 459.4219
1244.372, 470.6484
1244.854, 477.0117
1245.336, 485.8047
1245.818, 494.2422
1246.300, 479.3633
1246.782, 466.0195
1247.264, 495.4766
1247.746, 575.6523
1248.229, 610.0742
1248.711, 592.3008
1249.193, 556.1953
1249.675, 506.4453
1250.157, 465.8750
1250.639, 471.1289
1251.121, 487.2656
1251.603, 443.9609
1252.086, 342.8594
1252.568, 294.9102
1253.050, 308.7383
1253.532, 333.6953
1254.014, 351.3672
1254.496, 350.7344
1254.978, 302.1172
1255.460, 246.6133
1255.943, 252.4609
1256.425, 311.8008
1256.907, 356.0547
1257.389, 367.0742
1257.871, 364.6680
1258.353, 344.0234
1258.835, 334.6914
1259.317, 360.5469
1259.799, 392.9727
1260.281, 378.4727
1260.764, 325.4688
1261.246, 255.6992
1261.728, 173.8359
1262.210, 119.6953
1262.692, 174.9180
1263.174, 175.6211
1263.656, 41.66016
1264.138, 124.4102
1264.621, 129.1953
1265.103, 20.49609
1265.585, 99.98047
1266.067, 217.7188
1266.549, 258.1367
1267.031, 97.32031
1267.513, 6.378906
1267.995, 66.48828
1268.478, 201.1133
1268.960, 300.0586
1269.442, 374.3086
1269.924, 437.3398
1270.406, 489.1172
1270.888, 566.3281
1271.370, 707.1133
1271.852, 776.2852
1272.334, 719.3516
1272.817, 609.3359
1273.299, 514.2266
1273.781, 454.4297
1274.263, 474.8477
1274.745, 587.1641
1275.227, 651.5273
1275.709, 663.3320
1276.191, 637.1523
1276.673, 564.3086
1277.156, 488.8867
1277.638, 384.5820
1278.120, 289.4258
1278.602, 311.3906
1279.084, 378.8438
1279.566, 348.0859
1280.048, 260.3672
1280.530, 181.7305
1281.013, 131.9805
1281.495, 111.2930
1281.977, 131.8203
1282.459, 169.8555
1282.941, 214.8789
1283.423, 258.7305
1283.905, 238.5703
1284.387, 162.0938
1284.870, 122.2227
1285.352, 143.9609
1285.834, 185.0273
1286.316, 253.5586
1286.798, 292.2344
1287.280, 251.1562
1287.762, 150.8867
1288.244, 66.97266
1288.726, 5.433594
1289.208, 2.804688
1289.691, 68.41797
1290.173, 53.51953
1290.655, 0.0000000E+00
##END=



