##NAMES=Imandrite
##RRUFFID=R070027
##IDEAL CHEMISTRY=Na_12_Ca_3_Fe^3+^_2_Si_12_O_36_
##LOCALITY=Vuonnemijok River, Khibiny Massif, Kola Peninsula, Russia
##OWNER=RRUFF
##SOURCE=Michael Scott
##DESCRIPTION=Yellowish brown vitreous crystal fragment
##STATUS=The identification of this mineral is not yet confirmed.
##URL=rruff.info/R070027
193.1451, 0.0000000E+00
193.6272, 1.267578
194.1093, 1.697266
194.5915, 11.15820
195.0736, 16.37109
195.5557, 17.23828
196.0378, 22.53711
196.5199, 38.23633
197.0020, 55.65234
197.4842, 64.80469
197.9663, 64.52930
198.4484, 59.59570
198.9305, 49.66016
199.4126, 35.98633
199.8947, 27.63281
200.3769, 28.49023
200.8590, 34.38867
201.3411, 39.78320
201.8232, 44.27930
202.3053, 50.91797
202.7874, 65.53516
203.2696, 85.41602
203.7517, 95.87695
204.2338, 90.18359
204.7159, 78.03320
205.1980, 66.02539
205.6801, 54.22461
206.1623, 52.14648
206.6444, 76.43164
207.1265, 117.9941
207.6086, 136.9707
208.0907, 116.9727
208.5728, 87.16602
209.0550, 73.85742
209.5371, 74.79297
210.0192, 76.68164
210.5013, 68.98438
210.9834, 56.40820
211.4656, 56.20312
211.9477, 77.17773
212.4298, 97.42578
212.9119, 91.01172
213.3940, 66.96875
213.8761, 57.70703
214.3583, 100.1895
214.8404, 166.4141
215.3225, 180.0801
215.8046, 113.3848
216.2867, 49.54102
216.7688, 55.17383
217.2510, 106.8535
217.7331, 156.7207
218.2152, 177.7051
218.6973, 186.9375
219.1794, 225.2598
219.6615, 307.5645
220.1437, 370.6289
220.6258, 344.9883
221.1079, 277.2852
221.5900, 243.0645
222.0721, 289.4551
222.5542, 363.2070
223.0364, 382.5234
223.5185, 336.7207
224.0006, 293.0566
224.4827, 290.3066
224.9648, 311.2031
225.4469, 337.3691
225.9291, 374.3438
226.4112, 402.7324
226.8933, 388.5840
227.3754, 327.7227
227.8575, 289.0605
228.3396, 324.7754
228.8218, 387.8672
229.3039, 416.2246
229.7860, 393.5312
230.2681, 359.2520
230.7502, 347.5371
231.2323, 357.2441
231.7145, 366.9062
232.1966, 371.5762
232.6787, 370.7344
233.1608, 360.5918
233.6429, 337.4961
234.1250, 324.1738
234.6072, 344.1914
235.0893, 390.6777
235.5714, 427.9512
236.0535, 446.7441
236.5356, 452.7480
237.0177, 450.0293
237.4999, 438.3262
237.9820, 431.4766
238.4641, 437.6719
238.9462, 454.1348
239.4283, 473.0273
239.9104, 492.8164
240.3926, 515.7266
240.8747, 548.8105
241.3568, 589.7207
241.8389, 621.9141
242.3210, 636.3574
242.8031, 639.3340
243.2853, 640.5820
243.7674, 640.6016
244.2495, 640.6133
244.7316, 635.4766
245.2137, 629.5156
245.6958, 640.1758
246.1780, 698.9629
246.6601, 761.0312
247.1422, 768.2676
247.6243, 716.8555
248.1064, 659.3926
248.5885, 633.9414
249.0707, 629.4141
249.5528, 608.2148
250.0349, 535.8008
250.5170, 473.3438
250.9991, 480.3262
251.4812, 548.6875
251.9634, 605.5762
252.4455, 611.6719
252.9276, 581.0254
253.4097, 557.8984
253.8918, 550.5859
254.3739, 537.7129
254.8561, 499.1504
255.3382, 444.2422
255.8203, 405.2598
256.3024, 397.3809
256.7845, 410.6641
257.2667, 430.8008
257.7488, 466.0840
258.2309, 483.0039
258.7130, 454.3125
259.1951, 406.1055
259.6772, 383.6055
260.1594, 402.0918
260.6415, 437.1914
261.1236, 458.1836
261.6057, 464.9375
262.0878, 461.5352
262.5699, 428.8809
263.0521, 390.3262
263.5342, 370.9316
264.0163, 376.9121
264.4984, 396.1992
264.9805, 419.0039
265.4626, 445.9629
265.9448, 467.7305
266.4269, 499.0840
266.9090, 513.4375
267.3911, 485.7344
267.8732, 422.8242
268.3553, 352.3027
268.8375, 289.0293
269.3196, 234.8359
269.8017, 223.8418
270.2838, 303.8398
270.7659, 365.0293
271.2480, 360.6816
271.7302, 313.5332
272.2123, 263.8711
272.6944, 230.1426
273.1765, 214.0840
273.6586, 221.5293
274.1407, 289.2754
274.6229, 335.6289
275.1050, 346.3242
275.5871, 336.2617
276.0692, 319.9883
276.5513, 302.3945
277.0334, 281.7969
277.5156, 253.7422
277.9977, 204.8691
278.4798, 177.0703
278.9619, 179.4961
279.4440, 193.3438
279.9261, 208.7754
280.4083, 223.3047
280.8904, 237.9492
281.3725, 255.5156
281.8546, 278.8828
282.3367, 285.2031
282.8188, 245.0352
283.3010, 217.2344
283.7831, 235.8711
284.2652, 285.4727
284.7473, 327.0488
285.2294, 332.1445
285.7115, 306.1211
286.1937, 290.4746
286.6758, 295.3809
287.1579, 298.1562
287.6400, 282.9297
288.1221, 266.6016
288.6042, 278.0391
289.0864, 332.6699
289.5685, 398.8418
290.0506, 402.7793
290.5327, 312.2656
291.0148, 238.7422
291.4969, 214.4141
291.9791, 205.3848
292.4612, 189.8672
292.9433, 162.8652
293.4254, 128.4922
293.9075, 81.70508
294.3896, 18.83984
294.8718, 8.371094
295.3539, 38.97656
295.8360, 92.40039
296.3181, 108.9707
296.8002, 94.18945
297.2823, 79.38672
297.7645, 89.21875
298.2466, 116.5977
298.7287, 135.0938
299.2108, 145.9590
299.6929, 142.5879
300.1750, 110.2344
300.6572, 63.79688
301.1393, 28.79688
301.6214, 14.24023
302.1035, 15.19141
302.5856, 30.82617
303.0677, 62.73828
303.5499, 86.81641
304.0320, 82.98828
304.5141, 69.96680
304.9962, 80.97070
305.4783, 130.7949
305.9604, 171.3125
306.4426, 158.7832
306.9247, 109.5254
307.4068, 83.20703
307.8889, 103.7910
308.3710, 137.9375
308.8531, 135.0410
309.3353, 94.56641
309.8174, 60.21289
310.2995, 53.07812
310.7816, 54.25586
311.2637, 31.87109
311.7458, 17.38086
312.2280, 53.72070
312.7101, 37.12891
313.1922, 36.62109
313.6743, 87.14062
314.1564, 117.4258
314.6385, 122.6074
315.1207, 79.30078
315.6028, 4.738281
316.0849, 49.25781
316.5670, 51.13281
317.0491, 12.70117
317.5313, 16.95312
318.0134, 55.36523
318.4955, 63.89844
318.9776, 1.449219
319.4597, 77.83398
319.9418, 111.4375
320.4240, 82.28320
320.9061, 17.33008
321.3882, 41.15430
321.8703, 100.5293
322.3524, 134.0098
322.8345, 126.8438
323.3167, 110.3320
323.7988, 104.1035
324.2809, 107.3398
324.7630, 104.8301
325.2451, 78.17383
325.7272, 27.98828
326.2094, 19.36719
326.6915, 113.3516
327.1736, 181.4062
327.6557, 175.1465
328.1378, 130.6816
328.6199, 94.34375
329.1021, 87.22266
329.5842, 101.6719
330.0663, 123.1719
330.5484, 157.5703
331.0305, 181.8613
331.5126, 182.3184
331.9948, 176.5566
332.4769, 178.7324
332.9590, 190.8066
333.4411, 200.4629
333.9232, 194.7734
334.4053, 175.8691
334.8875, 158.9004
335.3696, 141.7793
335.8517, 128.9648
336.3338, 126.5430
336.8159, 132.7012
337.2980, 135.0352
337.7802, 120.9512
338.2623, 102.9453
338.7444, 102.9277
339.2265, 122.7520
339.7086, 142.7754
340.1907, 157.8457
340.6729, 162.8418
341.1550, 145.9102
341.6371, 84.50586
342.1192, 37.21094
342.6013, 54.48438
343.0834, 111.8555
343.5656, 145.6953
344.0477, 133.5938
344.5298, 96.87695
345.0119, 63.71289
345.4940, 29.36914
345.9761, 17.37305
346.4583, 48.10547
346.9404, 90.61523
347.4225, 122.9844
347.9046, 141.2520
348.3867, 144.0605
348.8688, 127.3594
349.3510, 91.12891
349.8331, 70.79492
350.3152, 70.84961
350.7973, 79.14062
351.2794, 100.5156
351.7615, 126.0000
352.2437, 139.6523
352.7258, 133.8750
353.2079, 120.8594
353.6900, 131.3398
354.1721, 202.0117
354.6542, 223.7109
355.1364, 152.6172
355.6185, 69.13281
356.1006, 23.21289
356.5827, 20.64844
357.0648, 40.83594
357.5469, 72.70703
358.0291, 115.5449
358.5112, 133.8105
358.9933, 105.8711
359.4754, 82.08008
359.9575, 90.54688
360.4396, 114.3262
360.9218, 124.7773
361.4039, 107.2324
361.8860, 76.67188
362.3681, 55.68750
362.8502, 45.02930
363.3323, 34.21484
363.8145, 15.05664
364.2966, 1.464844
364.7787, 4.519531
365.2608, 6.638672
365.7430, 27.44727
366.2251, 68.81836
366.7072, 115.8477
367.1893, 135.8887
367.6714, 122.1855
368.1535, 93.63672
368.6357, 56.89453
369.1178, 15.72656
369.5999, 4.464844
370.0820, 49.28516
370.5641, 102.5098
371.0462, 141.4863
371.5284, 163.4297
372.0105, 163.4414
372.4926, 136.1719
372.9747, 94.82617
373.4568, 72.65625
373.9389, 77.57812
374.4211, 88.00195
374.9032, 126.0820
375.3853, 156.3516
375.8674, 135.7930
376.3495, 66.81250
376.8316, 0.4511720
377.3138, 17.24609
377.7959, 22.37695
378.2780, 55.87109
378.7601, 76.93555
379.2422, 99.29688
379.7243, 133.3008
380.2065, 169.0000
380.6886, 191.3535
381.1707, 193.5039
381.6528, 180.7852
382.1349, 160.4551
382.6170, 128.5371
383.0992, 104.7754
383.5813, 109.6367
384.0634, 111.4941
384.5455, 80.17383
385.0276, 18.15039
385.5097, 32.33398
385.9919, 34.54492
386.4740, 4.652344
386.9561, 11.75977
387.4382, 8.708984
387.9203, 5.664063
388.4024, 17.16211
388.8846, 37.91016
389.3667, 55.84766
389.8488, 75.63086
390.3309, 84.47852
390.8130, 66.73047
391.2951, 31.08594
391.7773, 1.806641
392.2594, 27.30078
392.7415, 38.67773
393.2236, 23.34375
393.7057, 28.68164
394.1878, 78.46484
394.6700, 144.0840
395.1521, 191.9961
395.6342, 180.6133
396.1163, 123.8457
396.5984, 81.01953
397.0805, 98.17383
397.5627, 164.0938
398.0448, 197.0195
398.5269, 150.8242
399.0090, 127.5508
399.4911, 158.1582
399.9732, 206.8535
400.4554, 239.4219
400.9375, 246.8438
401.4196, 241.7910
401.9017, 238.6094
402.3838, 237.6836
402.8659, 235.7539
403.3481, 234.9473
403.8302, 228.0527
404.3123, 199.2168
404.7944, 163.1484
405.2765, 151.9531
405.7586, 193.7812
406.2408, 256.2734
406.7229, 283.9414
407.2050, 273.9570
407.6871, 256.0117
408.1692, 236.3926
408.6513, 223.0645
409.1335, 232.6406
409.6156, 270.9707
410.0977, 294.4629
410.5798, 271.6387
411.0619, 235.4453
411.5440, 227.3613
412.0262, 250.2520
412.5083, 278.1387
412.9904, 290.8613
413.4725, 289.1582
413.9546, 285.9648
414.4367, 272.6836
414.9189, 268.9785
415.4010, 286.0645
415.8831, 312.6562
416.3652, 334.4902
416.8473, 346.8047
417.3294, 355.0449
417.8116, 370.3125
418.2937, 400.7578
418.7758, 404.7148
419.2579, 343.4355
419.7400, 290.8555
420.2221, 281.7871
420.7043, 304.2910
421.1864, 328.1602
421.6685, 335.6152
422.1506, 336.3008
422.6327, 358.3242
423.1148, 410.3262
423.5970, 435.4961
424.0791, 391.2383
424.5612, 330.1738
425.0433, 307.2637
425.5254, 325.1992
426.0075, 351.8770
426.4897, 382.5664
426.9718, 407.2812
427.4539, 408.2266
427.9360, 385.5332
428.4181, 359.5781
428.9002, 344.4277
429.3824, 338.6641
429.8645, 332.3242
430.3466, 319.0996
430.8287, 312.9102
431.3108, 324.8262
431.7929, 343.0645
432.2751, 352.1582
432.7572, 348.1367
433.2393, 337.3203
433.7214, 326.8477
434.2035, 316.2949
434.6856, 306.8223
435.1678, 286.2461
435.6499, 284.4102
436.1320, 329.8770
436.6141, 393.2012
437.0962, 422.8535
437.5783, 392.2520
438.0605, 337.5254
438.5426, 326.2227
439.0247, 367.0586
439.5068, 378.9707
439.9889, 319.0781
440.4710, 253.9336
440.9532, 241.0137
441.4353, 273.2832
441.9174, 302.7168
442.3995, 313.6895
442.8816, 307.5957
443.3637, 272.3340
443.8459, 213.9219
444.3280, 180.0977
444.8101, 197.4727
445.2922, 247.8086
445.7743, 287.9512
446.2564, 324.4941
446.7386, 342.0000
447.2207, 320.5156
447.7028, 289.4727
448.1849, 286.5078
448.6670, 308.1641
449.1491, 309.2852
449.6313, 244.9414
450.1134, 123.5371
450.5955, 56.56055
451.0776, 94.97656
451.5597, 126.5488
452.0418, 130.6406
452.5240, 117.0645
453.0061, 92.39648
453.4882, 59.41211
453.9703, 27.19727
454.4524, 2.332031
454.9345, 14.74805
455.4167, 16.83008
455.8988, 2.384766
456.3809, 24.52539
456.8630, 39.48633
457.3451, 48.98047
457.8272, 55.87500
458.3094, 63.97070
458.7915, 64.59961
459.2736, 44.97852
459.7557, 13.67969
460.2378, 9.318359
460.7199, 18.81055
461.2021, 14.90625
461.6842, 8.267578
462.1663, 59.90625
462.6484, 69.39648
463.1305, 14.41992
463.6126, 84.37500
464.0948, 83.56250
464.5769, 37.16016
465.0590, 9.765625
465.5411, 36.94141
466.0232, 49.39453
466.5053, 57.02148
466.9875, 62.48828
467.4696, 53.32031
467.9517, 10.43555
468.4338, 30.86328
468.9159, 59.35547
469.3980, 72.86523
469.8802, 67.49414
470.3623, 34.15234
470.8444, 11.19922
471.3265, 48.29688
471.8086, 77.22656
472.2907, 96.07617
472.7729, 105.6504
473.2550, 103.1094
473.7371, 77.92383
474.2192, 27.99609
474.7013, 13.17969
475.1834, 43.12109
475.6656, 59.36719
476.1477, 53.49219
476.6298, 30.94141
477.1119, 9.199219
477.5940, 1.677734
478.0761, 6.091797
478.5583, 17.82227
479.0404, 51.83008
479.5225, 65.76953
480.0046, 40.87500
480.4867, 12.60352
480.9688, 2.224609
481.4510, 0.3300780
481.9331, 20.45312
482.4152, 72.70117
482.8973, 136.4062
483.3794, 148.2617
483.8615, 95.05664
484.3437, 67.39648
484.8258, 119.2148
485.3079, 194.1816
485.7900, 221.4336
486.2721, 197.4922
486.7542, 162.1699
487.2364, 108.6172
487.7185, 64.50195
488.2006, 70.26562
488.6827, 121.4316
489.1649, 173.6562
489.6470, 200.7168
490.1291, 209.1113
490.6112, 220.3066
491.0933, 227.7012
491.5754, 247.8652
492.0576, 296.8633
492.5397, 346.2031
493.0218, 381.3203
493.5039, 397.4082
493.9860, 387.2148
494.4681, 334.1152
494.9503, 259.4238
495.4324, 245.8965
495.9145, 313.4941
496.3966, 375.9062
496.8787, 409.2793
497.3608, 423.4258
497.8430, 425.7305
498.3251, 416.5488
498.8072, 400.3574
499.2893, 370.9277
499.7714, 340.0410
500.2535, 319.4844
500.7357, 310.9043
501.2178, 323.6426
501.6999, 369.3965
502.1820, 430.7539
502.6641, 456.8828
503.1462, 400.0430
503.6284, 381.1777
504.1105, 436.3652
504.5926, 503.6016
505.0747, 540.1387
505.5568, 546.1602
506.0389, 542.1973
506.5211, 540.1777
507.0032, 541.5918
507.4853, 552.2246
507.9674, 575.0605
508.4495, 596.7988
508.9316, 615.5000
509.4138, 630.5469
509.8959, 637.4609
510.3780, 637.5117
510.8601, 645.5996
511.3422, 676.0020
511.8243, 712.8965
512.3065, 740.4824
512.7886, 757.1992
513.2707, 758.5078
513.7528, 740.0977
514.2349, 713.2383
514.7170, 701.2188
515.1992, 710.8047
515.6813, 722.1270
516.1634, 727.7539
516.6455, 741.6953
517.1276, 786.2676
517.6097, 845.2715
518.0919, 877.6035
518.5740, 859.5312
519.0561, 816.6523
519.5382, 802.4941
520.0203, 821.8711
520.5024, 829.8711
520.9846, 807.3008
521.4667, 779.8594
521.9488, 770.2207
522.4309, 779.7129
522.9130, 803.0938
523.3951, 851.8828
523.8773, 898.0820
524.3594, 912.2148
524.8415, 904.5820
525.3236, 906.4922
525.8057, 928.9395
526.2878, 953.0039
526.7700, 951.6895
527.2521, 913.3945
527.7342, 918.9434
528.2163, 1030.285
528.6984, 1114.383
529.1805, 1094.580
529.6627, 1027.789
530.1448, 996.9336
530.6269, 1030.865
531.1090, 1088.598
531.5911, 1115.250
532.0732, 1114.416
532.5554, 1150.014
533.0375, 1249.750
533.5196, 1330.146
534.0017, 1317.340
534.4838, 1253.100
534.9659, 1222.838
535.4481, 1244.646
535.9302, 1278.922
536.4123, 1310.957
536.8944, 1342.846
537.3765, 1377.676
537.8586, 1415.518
538.3408, 1455.867
538.8229, 1500.070
539.3050, 1545.457
539.7871, 1569.475
540.2692, 1544.467
540.7513, 1540.080
541.2335, 1582.955
541.7156, 1635.738
542.1977, 1669.545
542.6798, 1682.188
543.1619, 1687.365
543.6440, 1693.408
544.1262, 1698.861
544.6083, 1695.070
545.0904, 1681.551
545.5725, 1689.330
546.0546, 1742.795
546.5367, 1808.072
547.0189, 1821.703
547.5010, 1769.584
547.9831, 1745.662
548.4652, 1778.904
548.9473, 1825.541
549.4294, 1875.279
549.9116, 1913.941
550.3937, 1910.820
550.8758, 1851.090
551.3579, 1768.451
551.8400, 1726.510
552.3221, 1736.285
552.8043, 1723.953
553.2864, 1672.160
553.7685, 1615.129
554.2506, 1571.684
554.7327, 1535.387
555.2148, 1492.998
555.6970, 1435.445
556.1791, 1384.158
556.6612, 1359.406
557.1433, 1351.092
557.6254, 1338.777
558.1075, 1318.979
558.5897, 1301.084
559.0718, 1296.787
559.5539, 1301.727
560.0360, 1275.113
560.5181, 1166.107
561.0002, 1090.064
561.4824, 1083.838
561.9645, 1096.027
562.4466, 1085.379
562.9287, 1049.295
563.4108, 1007.412
563.8929, 972.5996
564.3751, 943.7891
564.8572, 915.8320
565.3393, 884.7773
565.8214, 855.8867
566.3035, 832.8945
566.7856, 812.5723
567.2678, 791.0508
567.7499, 768.4160
568.2320, 744.6855
568.7141, 713.0586
569.1962, 686.9121
569.6783, 685.2793
570.1605, 692.3438
570.6426, 674.5684
571.1247, 621.2520
571.6068, 557.8711
572.0889, 519.1699
572.5710, 506.9883
573.0532, 497.9746
573.5353, 493.2656
574.0174, 490.0137
574.4995, 487.4688
574.9816, 485.4492
575.4637, 484.7930
575.9459, 486.4629
576.4280, 484.5117
576.9101, 475.8398
577.3922, 462.8164
577.8743, 439.8398
578.3564, 408.4805
578.8386, 394.7578
579.3207, 416.6719
579.8028, 458.6172
580.2849, 476.7852
580.7670, 452.4805
581.2491, 439.0039
581.7313, 453.7285
582.2134, 461.7324
582.6955, 436.1973
583.1776, 391.0566
583.6597, 358.5625
584.1418, 355.7148
584.6240, 360.7754
585.1061, 348.4609
585.5882, 325.8438
586.0703, 300.2363
586.5524, 263.0176
587.0345, 228.9023
587.5167, 215.6074
587.9988, 220.1816
588.4809, 217.9805
588.9630, 193.9023
589.4451, 186.1230
589.9272, 212.2988
590.4094, 247.2734
590.8915, 275.1367
591.3736, 290.6387
591.8557, 289.7324
592.3378, 264.8008
592.8199, 222.5586
593.3021, 187.1074
593.7842, 158.1699
594.2663, 146.2207
594.7484, 162.4961
595.2305, 185.1836
595.7126, 196.2871
596.1948, 196.2852
596.6769, 182.2520
597.1590, 134.0137
597.6411, 91.31250
598.1232, 75.26953
598.6053, 77.34766
599.0875, 89.96680
599.5696, 109.6348
600.0517, 123.3750
600.5338, 108.7402
601.0159, 71.26367
601.4980, 70.28320
601.9802, 130.5332
602.4623, 170.9395
602.9444, 149.4297
603.4265, 109.8965
603.9086, 89.65039
604.3907, 89.51758
604.8729, 88.32227
605.3550, 73.32031
605.8371, 58.09570
606.3192, 50.70312
606.8013, 53.98047
607.2834, 79.47852
607.7656, 129.7891
608.2477, 174.1504
608.7298, 169.7070
609.2119, 111.6660
609.6940, 72.90625
610.1761, 65.77539
610.6583, 62.61914
611.1404, 55.91797
611.6225, 49.20703
612.1046, 48.36133
612.5867, 54.34180
613.0688, 53.57422
613.5510, 24.33398
614.0331, 8.042969
614.5152, 0.2148440
614.9973, 41.27148
615.4794, 63.96484
615.9615, 44.83203
616.4437, 11.29492
616.9258, 7.878906
617.4079, 45.16211
617.8900, 65.46875
618.3721, 60.93164
618.8542, 48.35352
619.3364, 26.32617
619.8185, 1.806641
620.3006, 16.75000
620.7827, 27.48242
621.2648, 35.77148
621.7469, 59.19336
622.2291, 78.33398
622.7112, 37.79688
623.1933, 58.82617
623.6754, 124.5586
624.1575, 115.5137
624.6396, 66.61523
625.1218, 37.29492
625.6039, 33.78906
626.0860, 31.25586
626.5681, 32.46289
627.0502, 31.47656
627.5323, 22.16211
628.0145, 11.18555
628.4966, 1.167969
628.9787, 6.519531
629.4608, 8.181641
629.9429, 100.6152
630.4250, 222.6562
630.9072, 227.1230
631.3893, 107.7754
631.8714, 13.96680
632.3535, 22.74609
632.8356, 81.35547
633.3177, 92.18750
633.7999, 32.60938
634.2820, 7.464844
634.7641, 27.34570
635.2462, 30.00781
635.7283, 4.849609
636.2104, 32.41602
636.6926, 63.90234
637.1747, 83.74609
637.6568, 85.97461
638.1389, 50.39062
638.6210, 6.082031
639.1031, 32.35352
639.5853, 26.21680
640.0674, 4.687500
640.5495, 31.75391
641.0316, 67.89453
641.5137, 77.15039
641.9958, 53.72656
642.4780, 19.53320
642.9601, 71.87500
643.4422, 123.1680
643.9243, 48.83008
644.4064, 72.05273
644.8885, 122.9648
645.3707, 74.74609
645.8528, 2.617188
646.3349, 34.99805
646.8170, 41.30664
647.2991, 10.37891
647.7813, 58.14453
648.2634, 93.35938
648.7455, 55.28125
649.2276, 10.77148
649.7097, 34.18945
650.1918, 3.080078
650.6740, 22.54688
651.1561, 47.19336
651.6382, 61.44727
652.1203, 57.29102
652.6024, 43.04688
653.0845, 26.11133
653.5667, 9.210938
654.0488, 2.933594
654.5309, 5.623047
655.0130, 1.033203
655.4951, 10.78125
655.9772, 28.79492
656.4594, 29.21680
656.9415, 3.654297
657.4236, 33.94141
657.9057, 6.738281
658.3878, 92.65234
658.8699, 139.2480
659.3521, 84.82812
659.8342, 42.26953
660.3163, 43.90234
660.7984, 68.29492
661.2805, 103.1289
661.7626, 140.8281
662.2448, 157.2109
662.7269, 124.2148
663.2090, 67.96484
663.6911, 25.00391
664.1732, 4.390625
664.6553, 16.72461
665.1375, 9.933594
665.6196, 6.685547
666.1017, 25.61914
666.5838, 46.69531
667.0659, 54.17578
667.5480, 34.09375
668.0302, 18.91211
668.5123, 5.406250
668.9944, 4.324219
669.4765, 34.65820
669.9586, 88.07031
670.4407, 128.3398
670.9229, 134.4629
671.4050, 124.8789
671.8871, 112.1016
672.3692, 99.88867
672.8513, 101.0723
673.3334, 117.7637
673.8156, 132.8887
674.2977, 131.1387
674.7798, 116.8828
675.2620, 112.9414
675.7441, 128.4609
676.2262, 136.0293
676.7083, 124.5918
677.1904, 112.4746
677.6725, 107.1133
678.1547, 108.6055
678.6368, 117.3945
679.1189, 135.5898
679.6010, 155.5840
680.0831, 184.8750
680.5652, 211.6875
681.0474, 196.4980
681.5295, 145.9727
682.0116, 124.4336
682.4937, 173.5820
682.9758, 256.6992
683.4579, 292.7012
683.9401, 275.3457
684.4222, 237.1465
684.9043, 152.9551
685.3864, 88.59961
685.8685, 94.73047
686.3506, 136.4609
686.8328, 164.7676
687.3149, 175.9043
687.7970, 172.7715
688.2791, 137.7285
688.7612, 104.8555
689.2433, 112.5820
689.7255, 143.9727
690.2076, 155.9023
690.6897, 132.7031
691.1718, 98.66992
691.6539, 80.53711
692.1360, 77.77734
692.6182, 93.90234
693.1003, 134.8359
693.5824, 175.1191
694.0645, 205.8574
694.5466, 226.1582
695.0287, 232.4629
695.5109, 223.7383
695.9930, 215.5977
696.4751, 198.9922
696.9572, 191.7441
697.4393, 215.0605
697.9214, 248.1621
698.4036, 262.1621
698.8857, 255.0566
699.3678, 249.5703
699.8499, 267.1328
700.3320, 291.2891
700.8141, 283.8242
701.2963, 249.5078
701.7784, 225.1426
702.2605, 217.0332
702.7426, 211.4160
703.2247, 197.5957
703.7068, 177.6855
704.1890, 169.5488
704.6711, 185.7871
705.1532, 203.2070
705.6353, 220.3633
706.1174, 233.9668
706.5995, 244.1973
707.0817, 248.6660
707.5638, 241.5645
708.0459, 218.0625
708.5280, 205.6152
709.0101, 240.8184
709.4922, 294.0566
709.9744, 310.9727
710.4565, 292.8535
710.9386, 283.5566
711.4207, 307.5938
711.9028, 341.1250
712.3849, 337.0469
712.8671, 286.4414
713.3492, 261.2520
713.8313, 271.9316
714.3134, 289.1270
714.7955, 307.3125
715.2776, 318.0996
715.7598, 307.8320
716.2419, 272.0469
716.7240, 261.6816
717.2061, 335.4336
717.6882, 389.5332
718.1703, 340.8203
718.6525, 241.5781
719.1346, 161.3809
719.6167, 121.0762
720.0988, 125.5137
720.5809, 195.9961
721.0630, 297.9004
721.5452, 334.7129
722.0273, 309.2871
722.5094, 292.8164
722.9915, 305.3027
723.4736, 310.5254
723.9557, 264.7031
724.4379, 179.5723
724.9200, 142.0625
725.4021, 215.8691
725.8842, 248.3672
726.3663, 187.9746
726.8484, 129.8477
727.3306, 142.4336
727.8127, 201.2188
728.2948, 247.9785
728.7769, 266.5234
729.2590, 265.7656
729.7411, 236.4180
730.2233, 198.0742
730.7054, 177.8555
731.1875, 177.6680
731.6696, 199.6699
732.1517, 246.2578
732.6339, 289.2949
733.1160, 280.9297
733.5981, 218.1641
734.0802, 182.2520
734.5623, 178.5059
735.0444, 187.4375
735.5266, 217.8379
736.0087, 246.3555
736.4908, 240.4766
736.9729, 202.2227
737.4550, 175.2910
737.9371, 172.3535
738.4193, 170.5547
738.9014, 154.3047
739.3835, 139.9863
739.8656, 147.6797
740.3477, 176.3789
740.8298, 210.7637
741.3120, 246.1562
741.7941, 270.0664
742.2762, 254.1973
742.7583, 209.5664
743.2404, 182.2109
743.7225, 178.8945
744.2047, 188.7637
744.6868, 208.8926
745.1689, 230.2578
745.6510, 227.3438
746.1331, 182.2734
746.6152, 161.2344
747.0974, 190.1504
747.5795, 214.2227
748.0616, 209.2441
748.5437, 194.7559
749.0258, 196.6348
749.5079, 217.3496
749.9901, 235.5371
750.4722, 239.5898
750.9543, 244.8965
751.4364, 275.0996
751.9185, 307.5215
752.4006, 297.8535
752.8828, 246.5312
753.3649, 202.5664
753.8470, 208.3047
754.3291, 244.7246
754.8112, 267.6191
755.2933, 277.3672
755.7755, 291.3281
756.2576, 317.7949
756.7397, 323.7305
757.2218, 275.0703
757.7039, 191.2871
758.1860, 144.7168
758.6682, 161.0137
759.1503, 167.6523
759.6324, 153.6230
760.1145, 142.2305
760.5966, 155.8105
761.0787, 174.4512
761.5609, 160.7754
762.0430, 105.9004
762.5251, 69.65625
763.0072, 99.85938
763.4893, 146.4727
763.9714, 159.7891
764.4536, 154.2871
764.9357, 172.2070
765.4178, 218.7129
765.8999, 244.6133
766.3820, 195.8535
766.8641, 105.4785
767.3463, 78.27734
767.8284, 116.1836
768.3105, 150.1895
768.7926, 168.7520
769.2747, 178.2051
769.7568, 183.5781
770.2390, 183.1484
770.7211, 169.2969
771.2032, 116.9043
771.6853, 97.42773
772.1674, 144.9121
772.6495, 186.7598
773.1317, 179.4199
773.6138, 151.3711
774.0959, 150.9824
774.5780, 188.0527
775.0601, 211.3828
775.5422, 185.8887
776.0244, 142.7715
776.5065, 101.2812
776.9886, 66.55273
777.4707, 53.17383
777.9528, 60.43164
778.4349, 58.04688
778.9171, 13.01367
779.3992, 46.41992
779.8813, 38.65234
780.3634, 35.40039
780.8455, 101.8633
781.3276, 152.5098
781.8098, 179.2754
782.2919, 174.0859
782.7740, 142.9414
783.2561, 101.1895
783.7382, 40.10742
784.2203, 10.93945
784.7025, 79.19727
785.1846, 106.2676
785.6667, 36.89648
786.1488, 64.79492
786.6309, 120.8203
787.1130, 122.7070
787.5952, 119.2715
788.0773, 124.7441
788.5594, 137.1699
789.0415, 171.8555
789.5236, 204.7168
790.0057, 190.9453
790.4879, 133.4785
790.9700, 76.90234
791.4521, 47.57422
791.9342, 44.61914
792.4163, 87.75000
792.8984, 161.9473
793.3806, 170.4824
793.8627, 100.9375
794.3448, 34.16992
794.8269, 10.05078
795.3090, 19.40234
795.7911, 52.43555
796.2733, 118.5801
796.7554, 144.0176
797.2375, 102.2520
797.7196, 62.83594
798.2017, 45.20703
798.6838, 38.38086
799.1660, 36.84375
799.6481, 38.97266
800.1302, 36.30078
800.6123, 19.82812
801.0944, 7.609375
801.5765, 10.07227
802.0587, 16.49805
802.5408, 14.04297
803.0229, 7.160156
803.5050, 16.08008
803.9871, 51.37109
804.4692, 72.21680
804.9514, 19.24414
805.4335, 67.18750
805.9156, 111.0234
806.3977, 113.7383
806.8798, 95.40820
807.3619, 63.14844
807.8441, 33.38477
808.3262, 27.57031
808.8083, 38.54102
809.2904, 17.30664
809.7725, 47.17969
810.2546, 84.73438
810.7368, 71.16797
811.2189, 53.01953
811.7010, 71.05859
812.1831, 108.8594
812.6652, 110.2812
813.1473, 48.64258
813.6295, 7.433594
814.1116, 6.203125
814.5937, 4.947266
815.0758, 21.22852
815.5579, 50.74805
816.0400, 46.61523
816.5222, 8.169922
817.0043, 3.015625
817.4864, 61.34375
817.9685, 142.2949
818.4506, 223.7578
818.9327, 280.3672
819.4149, 247.6582
819.8970, 144.2422
820.3791, 77.61914
820.8612, 115.2793
821.3433, 197.7344
821.8254, 249.6055
822.3076, 271.2559
822.7897, 251.4551
823.2718, 191.8652
823.7539, 152.3164
824.2360, 159.1426
824.7181, 188.6914
825.2003, 213.0547
825.6824, 233.0430
826.1645, 245.2812
826.6466, 240.9043
827.1287, 254.0918
827.6108, 315.9512
828.0930, 366.0449
828.5751, 339.3809
829.0572, 262.2988
829.5393, 230.8984
830.0214, 269.6543
830.5035, 306.8672
830.9857, 336.7441
831.4678, 359.0391
831.9499, 364.4473
832.4320, 366.8984
832.9141, 390.8359
833.3962, 437.8691
833.8784, 471.6777
834.3605, 454.6289
834.8426, 434.0801
835.3247, 455.9180
835.8068, 498.4785
836.2889, 521.1660
836.7711, 523.8770
837.2532, 541.8223
837.7353, 603.5391
838.2174, 677.5781
838.6995, 706.9805
839.1816, 701.8516
839.6638, 707.6504
840.1459, 725.8750
840.6280, 730.3477
841.1101, 708.5508
841.5922, 687.3027
842.0743, 700.9453
842.5565, 743.1055
843.0386, 768.3848
843.5207, 779.0352
844.0028, 790.3613
844.4849, 797.8164
844.9670, 807.6348
845.4492, 825.4629
845.9313, 849.0059
846.4134, 872.1035
846.8955, 896.5625
847.3776, 916.6816
847.8597, 939.1602
848.3419, 949.0234
848.8240, 928.7383
849.3061, 899.9688
849.7882, 877.0156
850.2703, 867.1094
850.7524, 895.0820
851.2346, 1013.783
851.7167, 1113.709
852.1988, 1108.404
852.6809, 1066.111
853.1630, 1058.275
853.6451, 1084.299
854.1273, 1116.701
854.6094, 1143.547
855.0915, 1172.795
855.5736, 1224.939
856.0557, 1278.561
856.5378, 1277.496
857.0200, 1239.664
857.5021, 1245.594
857.9842, 1312.482
858.4663, 1375.564
858.9484, 1379.857
859.4305, 1347.660
859.9127, 1334.146
860.3948, 1339.057
860.8769, 1357.551
861.3590, 1390.629
861.8411, 1437.553
862.3232, 1504.357
862.8054, 1568.639
863.2875, 1591.682
863.7696, 1572.807
864.2517, 1561.184
864.7338, 1571.691
865.2159, 1566.217
865.6981, 1514.189
866.1802, 1465.611
866.6623, 1468.053
867.1444, 1502.781
867.6265, 1509.555
868.1086, 1464.275
868.5908, 1433.709
869.0729, 1443.242
869.5550, 1453.557
870.0371, 1438.193
870.5192, 1415.699
871.0013, 1415.303
871.4835, 1436.633
871.9656, 1446.816
872.4477, 1434.695
872.9298, 1405.082
873.4119, 1346.221
873.8940, 1279.461
874.3762, 1233.135
874.8583, 1201.727
875.3404, 1169.129
875.8225, 1128.406
876.3046, 1095.504
876.7867, 1089.963
877.2689, 1101.387
877.7510, 1119.816
878.2331, 1138.504
878.7152, 1127.326
879.1973, 1083.057
879.6794, 1044.963
880.1616, 1043.221
880.6437, 1055.865
881.1258, 1030.010
881.6079, 968.8008
882.0900, 935.6582
882.5721, 936.6836
883.0543, 940.7148
883.5364, 938.7871
884.0185, 920.8711
884.5006, 868.4727
884.9827, 786.5078
885.4648, 742.0996
885.9470, 742.5898
886.4291, 762.2070
886.9112, 821.2617
887.3933, 859.0801
887.8754, 824.2246
888.3575, 750.1406
888.8397, 706.4570
889.3218, 695.8418
889.8039, 707.7012
890.2860, 775.4316
890.7681, 821.4453
891.2502, 815.3887
891.7324, 788.4844
892.2145, 767.8691
892.6966, 750.4648
893.1787, 717.8867
893.6608, 660.2578
894.1429, 601.4492
894.6251, 529.4121
895.1072, 478.9004
895.5893, 491.7012
896.0714, 532.2598
896.5535, 542.9395
897.0356, 517.3633
897.5178, 501.5391
897.9999, 537.4590
898.4820, 567.8418
898.9641, 521.5977
899.4462, 456.7148
899.9283, 469.5000
900.4105, 536.6719
900.8926, 558.2051
901.3747, 495.9434
901.8568, 422.9883
902.3389, 420.1621
902.8210, 451.3008
903.3032, 439.5723
903.7853, 405.3945
904.2674, 436.6211
904.7495, 535.9414
905.2316, 578.2910
905.7137, 477.0762
906.1959, 321.2441
906.6780, 271.1582
907.1601, 310.8984
907.6422, 339.1250
908.1243, 352.7988
908.6064, 323.1426
909.0886, 233.8516
909.5707, 166.2168
910.0528, 205.8711
910.5349, 319.8555
911.0170, 379.0527
911.4991, 380.5977
911.9813, 332.9824
912.4634, 210.5566
912.9455, 129.4414
913.4276, 155.0234
913.9097, 230.7148
914.3918, 285.9551
914.8740, 321.0098
915.3561, 313.8281
915.8382, 221.1816
916.3203, 177.1543
916.8024, 240.5996
917.2845, 303.3809
917.7667, 300.1211
918.2488, 252.7422
918.7309, 202.4160
919.2130, 145.2715
919.6951, 103.3145
920.1772, 77.01953
920.6594, 66.12695
921.1415, 89.45703
921.6237, 111.8496
922.1058, 96.36719
922.5879, 57.05078
923.0700, 40.25586
923.5521, 62.46289
924.0342, 79.93164
924.5164, 78.80273
924.9985, 72.15430
925.4806, 61.09375
925.9627, 52.32812
926.4448, 58.18164
926.9269, 75.03125
927.4091, 80.74609
927.8912, 62.59180
928.3733, 40.98828
928.8554, 10.15430
929.3375, 3.695313
929.8196, 57.79492
930.3018, 141.4004
930.7839, 130.3906
931.2660, 13.75195
931.7481, 74.34766
932.2302, 35.77344
932.7123, 44.17383
933.1945, 98.52930
933.6766, 131.6016
934.1587, 149.2773
934.6408, 151.3223
935.1229, 130.4141
935.6050, 85.03516
936.0872, 34.13281
936.5693, 12.66211
937.0514, 48.25195
937.5335, 58.80664
938.0156, 50.65039
938.4977, 29.13086
938.9799, 0.7011720
939.4620, 21.92188
939.9441, 25.33008
940.4262, 25.14648
940.9083, 49.95117
941.3904, 84.05469
941.8726, 61.40234
942.3547, 3.052734
942.8368, 8.164063
943.3189, 62.76172
943.8010, 113.1914
944.2831, 75.32227
944.7653, 1.666016
945.2474, 1.431641
945.7295, 55.56641
946.2116, 62.50977
946.6937, 17.77148
947.1758, 15.98242
947.6580, 21.66211
948.1401, 6.166016
948.6222, 29.35156
949.1043, 71.15039
949.5864, 74.16016
950.0685, 34.31055
950.5507, 14.98438
951.0328, 18.69531
951.5149, 48.21094
951.9970, 114.4902
952.4791, 166.9590
952.9612, 148.0547
953.4434, 78.63477
953.9255, 58.57227
954.4076, 100.0527
954.8897, 143.0410
955.3718, 191.7246
955.8539, 211.3242
956.3361, 173.2754
956.8182, 128.4707
957.3003, 140.3438
957.7824, 199.6992
958.2645, 229.9121
958.7466, 220.8945
959.2288, 206.9727
959.7109, 180.8848
960.1930, 167.3125
960.6751, 178.2715
961.1572, 208.6641
961.6393, 263.4922
962.1215, 344.8145
962.6036, 361.1777
963.0857, 261.1875
963.5678, 186.0293
964.0499, 144.9941
964.5320, 137.3516
965.0142, 180.6562
965.4963, 248.0410
965.9784, 304.3184
966.4605, 352.5410
966.9426, 358.7949
967.4247, 287.6914
967.9069, 224.9980
968.3890, 176.5293
968.8711, 145.4414
969.3532, 135.1680
969.8353, 142.7148
970.3174, 168.4863
970.7996, 218.2852
971.2817, 245.2598
971.7638, 234.5762
972.2459, 215.0430
972.7280, 187.1094
973.2101, 158.6016
973.6923, 110.3945
974.1744, 72.55469
974.6565, 128.5586
975.1386, 316.2422
975.6207, 414.9688
976.1028, 320.6738
976.5850, 216.2676
977.0671, 126.8750
977.5492, 82.42188
978.0313, 138.5488
978.5134, 250.7051
978.9955, 311.6758
979.4777, 297.4727
979.9598, 267.4883
980.4419, 212.6484
980.9240, 175.2715
981.4061, 180.4336
981.8882, 204.5918
982.3704, 238.0410
982.8525, 270.4961
983.3346, 279.6074
983.8167, 255.9688
984.2988, 236.4727
984.7809, 237.1562
985.2631, 240.3379
985.7452, 253.4883
986.2273, 251.0508
986.7094, 186.9121
987.1915, 87.94531
987.6736, 39.44141
988.1558, 76.64844
988.6379, 109.0488
989.1200, 87.05469
989.6021, 64.06055
990.0842, 80.37891
990.5663, 107.4453
991.0485, 117.6777
991.5306, 110.5273
992.0127, 93.23438
992.4948, 61.72461
992.9769, 28.17188
993.4590, 12.40234
993.9412, 40.68164
994.4233, 51.31445
994.9054, 40.12695
995.3875, 14.35938
995.8696, 92.84570
996.3517, 133.5469
996.8339, 113.1191
997.3160, 78.75586
997.7981, 34.82227
998.2802, 6.138672
998.7623, 5.648438
999.2444, 22.88672
999.7266, 55.94922
1000.209, 95.30664
1000.691, 117.0977
1001.173, 111.0703
1001.655, 102.8438
1002.137, 104.1172
1002.619, 106.9707
1003.101, 105.3008
1003.583, 103.3477
1004.066, 112.1348
1004.548, 124.9922
1005.030, 116.6484
1005.512, 74.29297
1005.994, 39.99805
1006.476, 40.14648
1006.958, 44.36719
1007.440, 34.51758
1007.923, 18.40625
1008.405, 0.2539060
1008.887, 16.09570
1009.369, 17.29102
1009.851, 0.5253910
1010.333, 27.10547
1010.815, 86.14844
1011.297, 119.6699
1011.779, 59.29688
1012.262, 16.86523
1012.744, 12.06250
1013.226, 48.43359
1013.708, 58.50781
1014.190, -3.125173
1014.672, 44.89718
1015.154, 77.19794
1015.636, 94.62192
1016.119, 52.63809
1016.601, 87.37431
1017.083, 91.35393
1017.565, 94.07220
1018.047, 113.5664
1018.529, 129.6797
1019.011, 129.4258
1019.493, 69.58203
1019.975, 32.01172
1020.458, 77.16406
1020.940, 139.5137
1021.422, 165.0078
1021.904, 160.0254
1022.386, 146.3770
1022.868, 126.8027
1023.350, 113.1250
1023.832, 116.8535
1024.314, 116.2871
1024.797, 98.44141
1025.279, 78.21484
1025.761, 62.82617
1026.243, 55.06641
1026.725, 55.40039
1027.207, 63.04297
1027.689, 94.58203
1028.171, 212.0840
1028.654, 271.9551
1029.136, 184.8086
1029.618, 79.87500
1030.100, 34.26172
1030.582, 31.90039
1031.064, 45.80664
1031.546, 73.94727
1032.028, 92.45508
1032.510, 87.88672
1032.993, 88.91992
1033.475, 111.4043
1033.957, 128.5996
1034.439, 125.7930
1034.921, 109.3164
1035.403, 80.84180
1035.885, 41.29688
1036.367, 27.36914
1036.849, 52.28125
1037.332, 84.64453
1037.814, 156.9004
1038.296, 194.6309
1038.778, 137.1172
1039.260, 52.21484
1039.742, 12.61328
1040.224, 15.71875
1040.706, 37.36719
1041.189, 112.0176
1041.671, 135.6094
1042.153, 70.62891
1042.635, 14.06641
1043.117, 1.103516
1043.599, 8.888672
1044.081, 21.74414
1044.563, 35.43359
1045.046, 27.18750
1045.528, 23.42188
1046.010, 30.93555
1046.492, 22.22656
1046.974, 77.99805
1047.456, 133.3848
1047.938, 154.6738
1048.420, 100.7734
1048.902, 5.792969
1049.385, 33.93750
1049.867, 7.810547
1050.349, 4.167969
1050.831, 36.02539
1051.313, 31.20703
1051.795, 38.30078
1052.277, 100.2773
1052.759, 103.2734
1053.242, 79.14844
1053.724, 89.69922
1054.206, 131.4473
1054.688, 107.7773
1055.170, 12.36328
1055.652, 32.30859
1056.134, 2.691406
1056.616, 33.66211
1057.099, 38.27539
1057.581, 47.67188
1058.063, 124.3320
1058.545, 240.8945
1059.027, 263.9746
1059.509, 202.5508
1059.991, 161.2148
1060.473, 151.5020
1060.955, 154.5527
1061.438, 162.7109
1061.920, 161.5273
1062.402, 122.2559
1062.884, 79.83789
1063.366, 134.8320
1063.848, 248.0234
1064.330, 287.4551
1064.812, 261.3418
1065.294, 239.4141
1065.777, 240.3379
1066.259, 259.9688
1066.741, 298.3496
1067.223, 336.7031
1067.705, 344.7500
1068.187, 339.4609
1068.669, 353.3926
1069.151, 375.5254
1069.634, 365.6582
1070.116, 327.5078
1070.598, 326.0195
1071.080, 402.0723
1071.562, 466.0898
1072.044, 416.9141
1072.526, 340.7305
1073.008, 310.0977
1073.490, 318.6250
1073.973, 385.2090
1074.455, 477.9023
1074.937, 508.4160
1075.419, 446.1230
1075.901, 381.9492
1076.383, 363.2266
1076.865, 362.9297
1077.347, 357.9766
1077.829, 367.7090
1078.312, 429.0645
1078.794, 510.4180
1079.276, 550.0879
1079.758, 540.1523
1080.240, 531.0586
1080.722, 544.3457
1081.204, 548.8008
1081.686, 530.1270
1082.169, 507.6797
1082.651, 484.9688
1083.133, 469.3457
1083.615, 473.3438
1084.097, 494.3164
1084.579, 509.5254
1085.061, 524.7715
1085.543, 518.2832
1086.026, 471.0059
1086.508, 431.7363
1086.990, 413.8887
1087.472, 409.9160
1087.954, 414.1113
1088.436, 426.4629
1088.918, 452.3828
1089.400, 501.9941
1089.882, 486.3477
1090.365, 376.7402
1090.847, 305.6855
1091.329, 304.3359
1091.811, 324.2754
1092.293, 341.1777
1092.775, 356.6523
1093.257, 379.3574
1093.739, 402.0117
1094.221, 357.7793
1094.704, 249.0059
1095.186, 219.9902
1095.668, 284.7988
1096.150, 340.9258
1096.632, 349.9141
1097.114, 322.1094
1097.596, 260.2480
1098.078, 188.1172
1098.561, 153.4199
1099.043, 146.9512
1099.525, 144.0059
1100.007, 144.2812
1100.489, 151.0391
1100.971, 164.5723
1101.453, 186.1758
1101.935, 218.4141
1102.417, 249.3789
1102.900, 275.0176
1103.382, 282.2617
1103.864, 235.1094
1104.346, 179.9082
1104.828, 208.7910
1105.310, 289.7480
1105.792, 297.2832
1106.274, 195.5996
1106.756, 94.09961
1107.239, 39.85742
1107.721, 22.85156
1108.203, 57.53906
1108.685, 102.1523
1109.167, 127.7207
1109.649, 145.3145
1110.131, 165.6211
1110.613, 190.9414
1111.096, 221.0527
1111.578, 269.7695
1112.060, 294.3945
1112.542, 281.3496
1113.024, 250.9199
1113.506, 192.9746
1113.988, 137.2246
1114.470, 110.6934
1114.953, 99.82812
1115.435, 68.22461
1115.917, 5.560547
1116.399, 4.101563
1116.881, 65.17578
1117.363, 115.5566
1117.845, 135.0703
1118.327, 120.3984
1118.809, 56.62500
1119.292, 3.837891
1119.774, 12.71680
1120.256, 85.54883
1120.738, 119.6855
1121.220, 115.7344
1121.702, 73.94727
1122.184, 1.880859
1122.666, 18.39648
1123.148, 50.16211
1123.631, 122.8633
1124.113, 140.9551
1124.595, 124.0820
1125.077, 80.89844
1125.559, 35.89062
1126.041, 59.54492
1126.523, 120.1484
1127.005, 134.5410
1127.488, 101.7207
1127.970, 62.11914
1128.452, 32.71484
1128.934, 36.49609
1129.416, 134.9961
1129.898, 216.3535
1130.380, 168.4766
1130.862, 80.07031
1131.344, 27.66211
1131.827, 2.832031
1132.309, 36.28320
1132.791, 81.43750
1133.273, 44.36914
1133.755, 164.5859
1134.237, 287.4004
1134.719, 181.8535
1135.201, 82.88086
1135.683, 97.50977
1136.166, 137.0762
1136.648, 127.2383
1137.130, 89.06641
1137.612, 65.36133
1138.094, 56.73242
1138.576, 54.78906
1139.058, 61.64844
1139.540, 70.52148
1140.023, 85.12695
1140.505, 83.88477
1140.987, 52.41797
1141.469, 20.76953
1141.951, 20.29688
1142.433, 44.09766
1142.915, 82.27930
1143.397, 128.6387
1143.880, 112.9727
1144.362, 45.33203
1144.844, 20.73438
1145.326, 54.61914
1145.808, 93.09180
1146.290, 107.2871
1146.772, 105.1504
1147.254, 77.47266
1147.736, 55.76953
1148.219, 113.5195
1148.701, 187.9355
1149.183, 152.1504
1149.665, 59.50781
1150.147, 73.15039
1150.629, 203.9238
1151.111, 265.3398
1151.593, 136.7383
1152.075, 27.58984
1152.558, 55.35156
1153.040, 102.9297
1153.522, 114.8047
1154.004, 106.4883
1154.486, 88.61719
1154.968, 66.25781
1155.450, 47.36719
1155.932, 31.22266
1156.415, 29.29688
1156.897, 54.32812
1157.379, 63.34375
1157.861, 34.16797
1158.343, 36.94531
1158.825, 119.3711
1159.307, 192.1406
1159.789, 149.7695
1160.271, 47.83594
1160.754, 76.80469
1161.236, 222.5273
1161.718, 220.9453
1162.200, 83.90625
1162.682, 1.746094
1163.164, 7.457031
1163.646, 25.95312
1164.128, 19.84766
1164.610, 32.16406
1165.093, 137.8828
1165.575, 243.2227
1166.057, 185.5430
1166.539, 68.26953
1167.021, 42.82031
1167.503, 85.09375
1167.985, 132.1055
1168.467, 166.5938
1168.950, 181.8008
1169.432, 174.0391
1169.914, 152.0977
1170.396, 86.54688
1170.878, 50.97266
1171.360, 108.6523
1171.842, 178.9922
1172.324, 206.9180
1172.807, 199.8477
1173.289, 162.4570
1173.771, 97.10156
1174.253, 89.07422
1174.735, 175.0742
1175.217, 207.9531
1175.699, 165.3984
1176.181, 131.5586
1176.663, 132.0469
1177.146, 142.3242
1177.628, 142.3672
1178.110, 142.3750
1178.592, 175.1719
1179.074, 229.4961
1179.556, 228.3906
1180.038, 190.6797
1180.520, 194.4141
1181.002, 234.9531
1181.485, 264.3359
1181.967, 269.1133
1182.449, 243.8789
1182.931, 171.8281
1183.413, 97.29688
1183.895, 89.95312
1184.377, 101.5000
1184.859, 84.39062
1185.342, 61.46484
1185.824, 59.32812
1186.306, 74.60156
1186.788, 98.55078
1187.270, 131.4727
1187.752, 144.1523
1188.234, 106.4648
1188.716, 101.3125
1189.198, 169.8984
1189.681, 195.5898
1190.163, 114.5430
1190.645, 28.73438
1191.127, 32.32422
1191.609, 89.46094
1192.091, 114.1953
1192.573, 111.1953
1193.055, 126.3242
1193.537, 157.7500
1194.020, 156.3008
1194.502, 121.0273
1194.984, 115.3281
1195.466, 161.1523
1195.948, 199.8945
1196.430, 183.6016
1196.912, 151.1641
1197.394, 139.5664
1197.877, 138.0586
1198.359, 136.8477
1198.841, 127.1289
1199.323, 77.64844
1199.805, 16.35547
1200.287, 15.71094
1200.769, 92.59766
1201.251, 150.8789
1201.734, 157.9531
1202.216, 154.9414
1202.698, 147.5508
1203.180, 130.6289
1203.662, 81.54297
1204.144, 52.40234
1204.626, 104.5234
1205.108, 186.5508
1205.590, 170.8008
1206.073, 64.86328
1206.555, 41.93750
1207.037, 96.77344
1207.519, 105.3945
1208.001, 61.61328
1208.483, 69.51172
1208.965, 159.8008
1209.447, 241.3164
1209.929, 246.9648
1210.412, 215.0117
1210.894, 159.2148
1211.376, 114.1797
1211.858, 141.5664
1212.340, 185.9727
1212.822, 172.0352
1213.304, 117.3555
1213.786, 73.60156
1214.269, 49.96094
1214.751, 30.13672
1215.233, 3.539063
1215.715, 8.656250
1216.197, 54.66406
1216.679, 87.84375
1217.161, 42.76953
1217.643, 4.550781
1218.125, 9.183594
1218.608, 15.71094
1219.090, 51.33984
1219.572, 94.56250
1220.054, 126.6406
1220.536, 145.5391
1221.018, 126.4531
1221.500, 78.44922
1221.982, 61.93750
1222.464, 90.75000
1222.947, 147.9531
1223.429, 228.7305
1223.911, 281.7109
1224.393, 245.2695
1224.875, 173.6797
1225.357, 118.2188
1225.839, 69.92188
1226.321, 26.87891
1226.804, 5.761719
1227.286, 7.968750
1227.768, 33.02734
1228.250, 78.16406
1228.732, 170.5547
1229.214, 193.1797
1229.696, 115.5820
1230.178, 49.56250
1230.661, 6.691406
1231.143, 1.179688
1231.625, 30.85156
1232.107, 63.09375
1232.589, 40.29688
1233.071, 7.8130001E-03
1233.553, 0.0000000E+00
##END=



