##NAMES=Iodargyrite
##RRUFFID=R080017
##IDEAL CHEMISTRY=Ag^1+^I^1-^
##LOCALITY=Broken Hill, New South Wales, Australia
##OWNER=RRUFF
##SOURCE=Michael Scott
##DESCRIPTION=Lemon-yellow prismatic hexagonal crystals
##STATUS=The identification of this mineral has been confirmed by single-crystal X-ray diffraction.
##URL=rruff.info/R080017
140.1716, 0.0000000E+00
140.6537, 2.6215000E-02
141.1358, 1.7456001E-02
141.6179, 1.368591
142.1000, 3.328705
142.5821, 4.565277
143.0643, 4.065094
143.5464, 3.292358
144.0285, 3.029968
144.5106, 3.003601
144.9927, 3.667267
145.4748, 5.746552
145.9570, 8.976013
146.4391, 9.855499
146.9212, 8.714111
147.4033, 7.429321
147.8854, 5.987671
148.3675, 4.076935
148.8497, 2.680084
149.3318, 2.520035
149.8139, 3.231079
150.2960, 3.400665
150.7781, 1.755707
151.2602, 0.4558870
151.7424, 0.8558500
152.2245, 5.588120
152.7066, 8.584213
153.1887, 8.498779
153.6708, 5.992249
154.1529, 4.700378
154.6351, 5.234894
155.1172, 6.961578
155.5993, 9.285629
156.0814, 14.14447
156.5635, 17.75821
157.0456, 18.82027
157.5278, 17.48212
158.0099, 16.42049
158.4920, 16.36501
158.9741, 16.72850
159.4562, 16.43321
159.9383, 14.99286
160.4205, 14.05656
160.9026, 15.59744
161.3847, 19.56569
161.8668, 21.80678
162.3489, 20.62425
162.8310, 18.61411
163.3132, 17.71756
163.7953, 17.02090
164.2774, 16.40808
164.7595, 16.57344
165.2416, 17.28658
165.7237, 17.28644
166.2059, 14.98750
166.6880, 11.75696
167.1701, 9.671249
167.6522, 10.94284
168.1343, 13.11253
168.6164, 14.31720
169.0986, 14.18289
169.5807, 13.62689
170.0628, 13.37779
170.5449, 13.26700
171.0270, 12.80605
171.5091, 11.34036
171.9913, 9.691132
172.4734, 8.699081
172.9555, 8.744797
173.4376, 8.898651
173.9197, 8.366989
174.4018, 7.372589
174.8840, 6.253281
175.3661, 5.193222
175.8482, 4.219971
176.3303, 3.186768
176.8124, 1.955276
177.2945, 1.123550
177.7767, 1.664932
178.2588, 3.342804
178.7409, 4.937744
179.2230, 6.144760
179.7051, 6.682587
180.1872, 5.832092
180.6694, 3.033386
181.1515, 0.4016880
181.6336, 3.040771
182.1157, 4.848724
182.5978, 5.558258
183.0799, 4.180664
183.5621, 1.466721
184.0442, 0.3453520
184.5263, 0.7627720
185.0084, 0.3194890
185.4905, 0.6106570
185.9726, 1.974869
186.4547, 2.558945
186.9369, 0.4797060
187.4190, 3.460648
187.9011, 5.658493
188.3832, 4.783890
188.8653, 2.343964
189.3474, 1.709976
189.8296, 2.882042
190.3117, 4.409706
190.7938, 5.065353
191.2759, 4.957779
191.7580, 4.901054
192.2401, 4.964157
192.7223, 5.214478
193.2044, 6.099365
193.6865, 7.733810
194.1686, 9.061096
194.6507, 8.988564
195.1328, 7.622559
195.6150, 6.309341
196.0971, 5.394844
196.5792, 4.835320
197.0613, 4.453262
197.5434, 4.234734
198.0255, 5.165565
198.5077, 6.697357
198.9898, 8.860626
199.4719, 10.64802
199.9540, 11.62481
200.4361, 12.03171
200.9182, 13.31873
201.4004, 15.73010
201.8825, 18.23360
202.3646, 19.61276
202.8467, 19.69678
203.3288, 20.24417
203.8109, 22.03322
204.2931, 24.77425
204.7752, 25.72408
205.2573, 24.30059
205.7394, 22.48590
206.2215, 22.65845
206.7036, 25.34074
207.1858, 27.17846
207.6679, 27.01315
208.1500, 25.03815
208.6321, 24.39211
209.1142, 25.57333
209.5963, 27.17006
210.0785, 27.48726
210.5606, 26.00568
211.0427, 25.02292
211.5248, 25.37743
212.0069, 27.02036
212.4890, 27.23721
212.9712, 25.25332
213.4533, 23.06640
213.9354, 23.20027
214.4175, 26.57471
214.8996, 29.44002
215.3817, 30.81081
215.8639, 30.67605
216.3460, 30.69605
216.8281, 30.94705
217.3102, 31.24609
217.7923, 31.32621
218.2744, 30.98460
218.7566, 30.98749
219.2387, 31.71283
219.7208, 33.19546
220.2029, 33.85912
220.6850, 33.36302
221.1671, 32.43130
221.6493, 31.86109
222.1314, 31.72084
222.6135, 31.83413
223.0956, 32.28479
223.5777, 33.09807
224.0598, 33.50314
224.5420, 33.67258
225.0241, 33.23127
225.5062, 31.51011
225.9883, 27.36362
226.4704, 24.45454
226.9525, 24.05138
227.4347, 26.28915
227.9168, 27.19653
228.3989, 26.07977
228.8810, 24.37608
229.3631, 23.57508
229.8452, 23.96044
230.3274, 24.68756
230.8095, 25.76599
231.2916, 27.23010
231.7737, 28.17407
232.2558, 28.50228
232.7379, 28.39645
233.2201, 27.97076
233.7022, 26.96832
234.1843, 26.15512
234.6664, 25.77247
235.1485, 25.84151
235.6306, 25.68488
236.1128, 25.37566
236.5949, 24.77105
237.0770, 23.62173
237.5591, 21.28708
238.0412, 19.66075
238.5233, 19.28053
239.0055, 20.05513
239.4876, 20.22814
239.9697, 19.61047
240.4518, 18.77246
240.9339, 18.34731
241.4160, 18.81229
241.8982, 18.92905
242.3803, 18.18305
242.8624, 16.56872
243.3445, 15.54541
243.8266, 15.42960
244.3087, 15.53552
244.7909, 15.41354
245.2730, 14.85650
245.7551, 14.35682
246.2372, 13.74699
246.7193, 13.06919
247.2014, 13.56431
247.6836, 16.56733
248.1657, 19.22374
248.6478, 18.95051
249.1299, 13.58262
249.6120, 10.00745
250.0941, 9.819283
250.5762, 12.46094
251.0584, 13.23107
251.5405, 11.00123
252.0226, 8.406906
252.5047, 7.351097
252.9868, 8.514824
253.4689, 9.610626
253.9511, 10.66695
254.4332, 11.53653
254.9153, 11.08937
255.3974, 8.244080
255.8795, 5.763313
256.3617, 5.721428
256.8438, 9.617119
257.3259, 11.95148
257.8080, 11.68183
258.2901, 9.573494
258.7722, 8.776199
259.2544, 10.11225
259.7365, 11.38210
260.2186, 11.15495
260.7007, 8.592667
261.1828, 7.108391
261.6649, 7.308884
262.1471, 8.576050
262.6292, 8.894455
263.1113, 7.637360
263.5934, 6.670357
264.0755, 7.218040
264.5576, 10.05434
265.0398, 11.67177
265.5219, 11.84037
266.0040, 10.83547
266.4861, 8.957985
266.9682, 5.544876
267.4503, 2.985199
267.9325, 2.696671
268.4146, 5.292404
268.8967, 7.268753
269.3788, 8.570862
269.8609, 9.326134
270.3430, 9.695328
270.8252, 9.638100
271.3073, 9.289726
271.7894, 8.601387
272.2715, 7.525589
272.7536, 6.779305
273.2357, 6.375755
273.7179, 6.268921
274.2000, 6.536232
274.6821, 7.321297
275.1642, 7.810112
275.6463, 7.556961
276.1284, 6.559006
276.6106, 6.050087
277.0927, 6.090370
277.5748, 6.484871
278.0569, 7.273224
278.5390, 8.603325
279.0211, 9.056900
279.5032, 7.713921
279.9854, 4.905159
280.4675, 3.576477
280.9496, 3.907074
281.4317, 5.120132
281.9138, 6.867447
282.3959, 9.254501
282.8781, 10.55958
283.3602, 9.918938
283.8423, 7.845795
284.3244, 6.606827
284.8065, 6.280876
285.2886, 6.315399
285.7708, 6.181656
286.2529, 5.934029
286.7350, 6.068336
287.2171, 6.855003
287.6992, 7.985649
288.1813, 8.513756
288.6635, 8.415512
289.1456, 8.236771
289.6277, 8.547592
290.1098, 9.228416
290.5919, 9.474815
291.0740, 9.149170
291.5562, 8.349243
292.0383, 6.887344
292.5204, 4.808937
293.0025, 3.336601
293.4846, 4.008736
293.9667, 6.048340
294.4489, 6.541145
294.9310, 4.820358
295.4131, 2.292320
295.8952, 0.7960210
296.3773, 0.2832030
296.8594, 0.3491360
297.3416, 1.175247
297.8237, 2.374840
298.3058, 2.908684
298.7879, 2.584373
299.2700, 2.237770
299.7521, 3.026894
300.2343, 4.648079
300.7164, 6.098938
301.1985, 6.953400
301.6806, 7.347435
302.1627, 7.359459
302.6448, 6.964653
303.1270, 6.558403
303.6091, 7.001457
304.0912, 7.693230
304.5733, 7.407600
305.0554, 4.191116
305.5375, 0.5496600
306.0197, 0.3190160
306.5018, 1.440559
306.9839, 3.377174
307.4660, 3.548660
307.9481, 2.780861
308.4302, 2.231804
308.9124, 2.349815
309.3945, 2.724602
309.8766, 3.212677
310.3587, 3.737160
310.8408, 4.004745
311.3229, 3.087296
311.8051, 2.145813
312.2872, 2.602516
312.7693, 5.989639
313.2514, 8.776810
313.7335, 8.279205
314.2156, 5.437050
314.6978, 2.995079
315.1799, 2.312263
315.6620, 2.416443
316.1441, 2.715271
316.6262, 3.227638
317.1083, 3.635246
317.5905, 3.753922
318.0726, 3.671310
318.5547, 3.543015
319.0368, 3.491562
319.5189, 3.370735
320.0010, 3.050430
320.4832, 2.359680
320.9653, 1.950653
321.4474, 2.375343
321.9295, 3.142532
322.4116, 3.679733
322.8937, 3.721581
323.3759, 3.637070
323.8580, 3.409332
324.3401, 3.020737
324.8222, 2.940002
325.3043, 3.750099
325.7864, 4.633118
326.2686, 4.963257
326.7507, 4.102867
327.2328, 3.326385
327.7149, 2.751427
328.1970, 2.303009
328.6791, 2.197487
329.1613, 2.804153
329.6434, 3.563095
330.1255, 4.202942
330.6076, 4.834038
331.0897, 5.191391
331.5718, 5.266769
332.0540, 5.066315
332.5361, 4.568718
333.0182, 3.405647
333.5003, 2.415894
333.9824, 1.935089
334.4645, 2.045250
334.9467, 2.475685
335.4288, 3.535378
335.9109, 4.697464
336.3930, 5.029327
336.8751, 4.237991
337.3572, 3.294365
337.8394, 2.528732
338.3215, 1.952423
338.8036, 0.9159090
339.2857, 0.8683170
339.7678, 2.602875
340.2499, 3.365639
340.7321, 3.012947
341.2142, 2.563675
341.6963, 2.326569
342.1784, 2.169647
342.6605, 1.335106
343.1426, 0.3059390
343.6248, 1.992332
344.1069, 3.057991
344.5890, 3.517883
345.0711, 4.045654
345.5532, 4.842903
346.0353, 5.599503
346.5175, 5.522514
346.9996, 4.623001
347.4817, 3.666573
347.9638, 2.783928
348.4459, 2.170654
348.9280, 2.907974
349.4102, 5.381981
349.8923, 7.887215
350.3744, 7.759277
350.8565, 5.611282
351.3386, 3.818520
351.8207, 4.133476
352.3029, 5.307716
352.7850, 5.074272
353.2671, 3.382698
353.7492, 1.652847
354.2313, 1.005219
354.7134, 1.183334
355.1956, 1.771233
355.6777, 2.993462
356.1598, 4.215332
356.6419, 4.819023
357.1240, 4.880135
357.6061, 4.806778
358.0883, 4.844971
358.5704, 4.872650
359.0525, 4.742058
359.5346, 4.334412
360.0167, 3.942055
360.4988, 3.583504
360.9810, 3.361572
361.4631, 3.510246
361.9452, 5.152451
362.4273, 6.420280
362.9094, 5.955475
363.3915, 3.148003
363.8737, 0.7310640
364.3558, 0.2703170
364.8379, 0.4138640
365.3200, 0.3464810
365.8021, 2.4132000E-02
366.2842, 0.3510060
366.7664, 0.2388610
367.2485, 0.3245930
367.7306, 7.0251003E-02
368.2127, 3.323738
368.6948, 6.509102
369.1769, 7.703873
369.6591, 4.078705
370.1412, 1.894447
370.6233, 2.277153
371.1054, 4.436264
371.5875, 5.359238
372.0696, 4.160416
372.5518, 2.787567
373.0339, 2.067612
373.5160, 2.300560
373.9981, 2.333961
374.4802, 2.092369
374.9623, 1.712379
375.4445, 1.450783
375.9266, 1.469490
376.4087, 1.391144
376.8908, 0.7010730
377.3729, 0.6641160
377.8550, 0.7337490
378.3372, 0.9528660
378.8193, 3.000748
379.3014, 3.868378
379.7835, 3.494385
380.2656, 3.616791
380.7477, 4.901192
381.2299, 6.606331
381.7120, 6.539612
382.1941, 4.646088
382.6762, 2.675980
383.1583, 2.038467
383.6404, 2.341652
384.1226, 1.865776
384.6047, 0.2023010
385.0868, 1.368874
385.5689, 0.8569410
386.0510, 1.245117
386.5331, 3.089287
387.0153, 3.809166
387.4974, 3.767311
387.9795, 3.331741
388.4616, 2.513969
388.9437, 1.715691
389.4258, 1.059830
389.9080, 0.6662670
390.3901, 0.7508620
390.8722, 1.707443
391.3543, 2.776825
391.8364, 3.493393
392.3185, 3.867325
392.8007, 3.947037
393.2828, 3.654526
393.7649, 3.138184
394.2470, 2.350464
394.7291, 0.9447940
395.2112, 0.2238540
395.6934, 1.053398
396.1755, 2.765602
396.6576, 4.374542
397.1397, 6.357475
397.6218, 7.368950
398.1039, 6.613037
398.5861, 3.924019
399.0682, 1.965874
399.5503, 1.189461
400.0324, 1.103645
400.5145, 1.394958
400.9966, 2.616806
401.4788, 3.408318
401.9609, 3.432426
402.4430, 2.997772
402.9251, 3.051231
403.4072, 3.885185
403.8893, 4.607811
404.3714, 4.673592
404.8535, 3.748703
405.3357, 3.687943
405.8178, 4.917007
406.2999, 6.442802
406.7820, 6.728859
407.2641, 5.570633
407.7462, 4.316353
408.2284, 3.168251
408.7105, 2.254341
409.1926, 2.253922
409.6747, 3.246429
410.1568, 4.565582
410.6389, 5.829910
411.1211, 6.985107
411.6032, 7.821854
412.0853, 8.375626
412.5674, 8.453735
413.0495, 7.529457
413.5316, 5.766792
414.0138, 4.029785
414.4959, 2.428650
414.9780, 1.262604
415.4601, 1.293320
415.9422, 2.634888
416.4243, 3.922462
416.9065, 3.856659
417.3886, 3.064156
417.8707, 2.468033
418.3528, 2.239128
418.8349, 2.447327
419.3170, 3.307243
419.7992, 4.716064
420.2813, 6.134087
420.7634, 8.183640
421.2455, 9.615585
421.7276, 9.305244
422.2097, 5.935432
422.6919, 3.554321
423.1740, 4.322563
423.6561, 6.442505
424.1382, 7.148392
424.6203, 3.351349
425.1024, 0.7438280
425.5846, 1.611099
426.0667, 6.242119
426.5488, 8.659065
427.0309, 7.617020
427.5130, 5.480293
427.9951, 3.746590
428.4773, 2.171814
428.9594, 1.681076
429.4415, 2.912674
429.9236, 5.024864
430.4057, 5.754669
430.8878, 4.716614
431.3700, 3.475113
431.8521, 2.840775
432.3342, 2.803696
432.8163, 1.770386
433.2984, 0.5734790
433.7805, 2.755157
434.2627, 2.848907
434.7448, 1.047409
435.2269, 0.7383350
435.7090, 2.320328
436.1911, 3.497536
436.6732, 3.452065
437.1554, 2.333824
437.6375, 1.125679
438.1196, 0.2765120
438.6017, 0.1796880
439.0838, 8.9988999E-02
439.5659, 0.6374440
440.0481, 1.497536
440.5302, 2.094208
441.0123, 2.532555
441.4944, 2.989098
441.9765, 3.470711
442.4586, 4.039345
442.9408, 4.899979
443.4229, 6.052963
443.9050, 6.767708
444.3871, 6.214264
444.8692, 5.349678
445.3513, 4.806000
445.8335, 4.870506
446.3156, 4.926392
446.7977, 5.149879
447.2798, 5.252747
447.7619, 4.704887
448.2440, 2.045616
448.7262, 0.3084340
449.2083, 0.5703510
449.6904, 2.979439
450.1725, 4.321205
450.6546, 4.111946
451.1367, 3.423668
451.6189, 3.113281
452.1010, 3.426056
452.5831, 3.202324
453.0652, 2.090958
453.5473, 0.6658780
454.0294, 5.2029998E-03
454.5116, 3.1525001E-02
454.9937, 0.5293200
455.4758, 1.649620
455.9579, 3.204308
456.4400, 4.118607
456.9221, 4.366562
457.4043, 4.284584
457.8864, 4.343460
458.3685, 4.353935
458.8506, 3.608315
459.3327, 1.445557
459.8148, 0.7175220
460.2970, 0.9933930
460.7791, 0.1956020
461.2612, 1.466248
461.7433, 2.083061
462.2254, 2.422951
462.7076, 2.808304
463.1897, 3.284935
463.6718, 3.659828
464.1539, 3.970818
464.6360, 4.072052
465.1181, 3.810844
465.6003, 2.236137
466.0824, 1.290688
466.5645, 2.055817
467.0466, 3.991997
467.5287, 5.024750
468.0108, 4.023384
468.4930, 2.888184
468.9751, 2.332680
469.4572, 2.587433
469.9393, 2.514854
470.4214, 1.690842
470.9035, 0.9270860
471.3857, 1.286407
471.8678, 3.325592
472.3499, 4.702339
472.8320, 4.912964
473.3141, 4.240753
473.7962, 3.547806
474.2784, 2.793930
474.7605, 2.314415
475.2426, 2.559448
475.7247, 3.268669
476.2068, 3.480370
476.6889, 3.066826
477.1711, 2.756142
477.6532, 3.704330
478.1353, 5.434982
478.6174, 6.632805
479.0995, 6.793686
479.5816, 6.322937
480.0638, 5.271027
480.5459, 3.857361
481.0280, 2.925255
481.5101, 3.067528
481.9922, 3.806274
482.4743, 4.983185
482.9565, 6.749443
483.4386, 7.950684
483.9207, 8.191887
484.4028, 7.638641
484.8849, 6.422165
485.3670, 2.516846
485.8492, 3.7000000E-03
486.3313, 0.6010590
486.8134, 3.556503
487.2955, 4.944725
487.7776, 3.721596
488.2597, 2.157745
488.7419, 1.133766
489.2240, 0.4118040
489.7061, 0.3493500
490.1882, 1.226730
490.6703, 2.352150
491.1524, 2.975334
491.6346, 3.016083
492.1167, 2.530495
492.5988, 1.336937
493.0809, 3.6995001E-02
493.5630, 0.1953050
494.0451, 0.8342970
494.5273, 2.271690
495.0094, 3.877556
495.4915, 5.529724
495.9736, 7.162811
496.4557, 8.796097
496.9378, 9.719597
497.4200, 8.715271
497.9021, 6.701668
498.3842, 5.130371
498.8663, 4.524162
499.3484, 4.323143
499.8305, 4.248428
500.3127, 4.306450
500.7948, 4.511261
501.2769, 5.211617
501.7590, 5.769371
502.2411, 5.792625
502.7232, 5.158287
503.2054, 4.708641
503.6875, 4.582993
504.1696, 4.669846
504.6517, 4.902084
505.1338, 5.391922
505.6159, 5.840164
506.0981, 6.304108
506.5802, 6.670898
507.0623, 6.663391
507.5444, 6.161041
508.0265, 5.667000
508.5086, 5.518150
508.9908, 5.594704
509.4729, 4.750519
509.9550, 2.729271
510.4371, 0.7345280
510.9192, 0.4934620
511.4013, 0.8918760
511.8835, 0.1453320
512.3655, 3.224518
512.8477, 6.202629
513.3298, 6.072693
513.8119, 3.850174
514.2940, 1.957840
514.7761, 1.614708
515.2582, 1.936470
515.7404, 2.355225
516.2225, 2.861084
516.7046, 3.469223
517.1867, 4.890160
517.6688, 5.864243
518.1509, 5.419090
518.6331, 2.499306
519.1152, 0.6457440
519.5973, 1.492500
520.0794, 3.295967
520.5615, 3.796532
521.0436, 1.641708
521.5258, 0.2838900
522.0079, 0.3311460
522.4900, 1.597298
522.9721, 3.552956
523.4542, 6.793228
523.9363, 8.872505
524.4185, 7.809395
524.9006, 3.628296
525.3827, 1.266106
525.8648, 0.8696440
526.3469, 1.513092
526.8290, 2.471245
527.3112, 3.586006
527.7933, 4.224274
528.2754, 4.145264
528.7575, 3.702126
529.2396, 3.026123
529.7217, 2.289635
530.2039, 2.005882
530.6860, 3.366539
531.1681, 4.572021
531.6502, 3.721725
532.1323, 0.8042300
532.6144, 0.9062420
533.0966, 1.293793
533.5787, 4.237839
534.0608, 5.683533
534.5429, 4.227615
535.0250, 2.967110
535.5071, 2.177216
535.9893, 1.711655
536.4714, 1.370926
536.9535, 1.043205
537.4356, 1.102219
537.9177, 1.890846
538.3998, 3.177795
538.8820, 3.303070
539.3641, 2.020470
539.8462, 0.7179030
540.3283, 0.4631960
540.8104, 1.058113
541.2925, 0.7544560
541.7747, 0.7247700
542.2568, 1.719284
542.7389, 0.4230190
543.2210, 4.398651
543.7031, 7.129875
544.1852, 7.741997
544.6674, 6.962715
545.1495, 4.003464
545.6316, 7.2350003E-02
546.1137, 1.810867
546.5958, 2.383934
547.0779, 6.705315
547.5601, 7.514587
548.0422, 4.539993
548.5243, 2.451118
549.0064, 2.907707
549.4885, 4.082932
549.9706, 4.874001
550.4528, 5.250580
550.9349, 5.204384
551.4170, 4.477898
551.8991, 3.583946
552.3812, 3.285896
552.8633, 3.796898
553.3455, 4.003838
553.8276, 3.529388
554.3097, 2.628212
554.7918, 1.990814
555.2739, 1.626892
555.7560, 1.762367
556.2382, 3.263382
556.7203, 5.231659
557.2024, 5.213570
557.6845, 3.038437
558.1666, 1.153061
558.6487, 2.454514
559.1309, 4.942131
559.6130, 5.857376
560.0951, 3.497078
560.5772, 1.499222
561.0593, 2.273209
561.5414, 4.484749
562.0236, 5.764450
562.5057, 4.551590
562.9878, 3.384979
563.4699, 2.857117
563.9520, 2.951805
564.4341, 3.637077
564.9163, 5.988335
565.3984, 7.397827
565.8805, 5.947678
566.3626, 0.6766740
566.8447, 1.187775
567.3268, 1.089554
567.8090, 4.625725
568.2911, 6.278923
568.7732, 6.174812
569.2553, 5.583694
569.7374, 4.641975
570.2195, 3.774529
570.7017, 3.949074
571.1838, 4.865196
571.6659, 5.564484
572.1480, 5.239929
572.6301, 4.753624
573.1122, 5.085495
573.5944, 6.100723
574.0765, 6.529297
574.5586, 5.045349
575.0407, 3.370255
575.5228, 2.501793
576.0049, 2.660149
576.4871, 3.390121
576.9692, 5.588669
577.4513, 7.749672
577.9334, 8.416336
578.4155, 6.961258
578.8976, 5.398857
579.3798, 3.753281
579.8619, 2.294411
580.3440, 1.844597
580.8261, 2.473244
581.3082, 3.220749
581.7903, 3.974030
582.2725, 4.465965
582.7546, 3.392670
583.2367, 0.9054410
583.7188, 0.9925230
584.2009, 0.4653630
584.6830, 1.397621
585.1652, 3.408981
585.6473, 5.530418
586.1294, 7.034706
586.6115, 7.356102
587.0936, 6.983475
587.5757, 6.304085
588.0579, 4.393234
588.5400, 3.402451
589.0221, 4.647408
589.5042, 6.998741
589.9863, 7.792770
590.4684, 5.898560
590.9506, 4.232880
591.4327, 3.535164
591.9148, 3.649475
592.3969, 3.491882
592.8790, 3.015053
593.3611, 2.543991
593.8433, 2.262688
594.3254, 2.166153
594.8075, 2.314575
595.2896, 2.754364
595.7717, 3.008217
596.2538, 1.946320
596.7360, 0.4971010
597.2181, 0.6033630
597.7002, 3.778648
598.1823, 6.471489
598.6644, 5.949417
599.1465, 3.564491
599.6287, 1.585693
600.1108, 0.5293880
600.5929, 0.3781590
601.0750, 1.577995
601.5571, 3.845314
602.0392, 4.899048
602.5214, 3.911049
603.0035, 2.808708
603.4856, 2.427010
603.9677, 2.739281
604.4498, 2.597054
604.9319, 1.643677
605.4141, 0.8844380
605.8962, 1.603867
606.3783, 3.517380
606.8604, 4.647263
607.3425, 4.710213
607.8246, 4.139137
608.3068, 2.936119
608.7889, 1.517357
609.2710, 0.8344880
609.7531, 1.764290
610.2352, 2.904442
610.7173, 3.295464
611.1995, 3.169952
611.6816, 3.167000
612.1637, 3.314117
612.6458, 3.839020
613.1279, 5.333458
613.6100, 7.725540
614.0922, 8.145187
614.5743, 5.024277
615.0564, 2.006126
615.5385, 1.381317
616.0206, 3.782585
616.5027, 4.650291
616.9849, 3.611061
617.4670, 2.167068
617.9491, 2.200737
618.4312, 3.419678
618.9133, 4.279366
619.3954, 4.368889
619.8776, 4.284988
620.3597, 4.997826
620.8418, 6.083221
621.3239, 6.587265
621.8060, 5.580856
622.2881, 4.376511
622.7703, 3.599411
623.2524, 3.227852
623.7345, 3.136749
624.2166, 3.947899
624.6987, 4.343239
625.1808, 3.795799
625.6630, 2.145409
626.1451, 0.8705750
626.6272, 0.1745220
627.1093, 0.6274570
627.5914, 7.2738998E-02
628.0735, 2.064278
628.5557, 3.053024
629.0378, 2.683067
629.5199, 1.996063
630.0020, 2.513924
630.4841, 3.738029
630.9662, 3.956001
631.4484, 2.296219
631.9305, 0.4436950
632.4126, 0.1397250
632.8947, 0.8457030
633.3768, 1.465538
633.8589, 1.454620
634.3411, 1.368355
634.8232, 1.461617
635.3053, 1.696205
635.7874, 1.804337
636.2695, 1.469826
636.7516, 1.324051
637.2338, 1.574837
637.7159, 2.231201
638.1980, 3.279793
638.6801, 5.033638
639.1622, 6.298035
639.6443, 5.520378
640.1265, 3.069481
640.6086, 2.454910
641.0907, 4.190498
641.5728, 6.263847
642.0549, 6.872009
642.5370, 6.228828
643.0192, 4.776382
643.5013, 2.002396
643.9834, 0.3097610
644.4655, 1.225113
644.9476, 0.8857570
645.4297, 0.4258040
645.9119, 4.783714
646.3940, 7.748360
646.8761, 7.530945
647.3582, 4.933159
647.8403, 2.791794
648.3224, 0.7265550
648.8046, 0.4347530
649.2867, 0.2299580
649.7688, 1.195953
650.2509, 2.674149
650.7330, 4.281319
651.2151, 5.250633
651.6973, 4.272774
652.1794, 2.337753
652.6615, 2.312263
653.1436, 4.516602
653.6257, 6.145988
654.1078, 3.716393
654.5900, 0.1266330
655.0721, 1.306572
655.5542, 1.397568
656.0363, 3.757050
656.5184, 3.862457
657.0005, 3.121414
657.4827, 3.199295
657.9648, 5.343033
658.4469, 6.380417
658.9290, 5.420418
659.4111, 3.426247
659.8932, 2.891602
660.3754, 4.004761
660.8575, 4.989449
661.3396, 5.194679
661.8217, 4.828812
662.3038, 4.303452
662.7859, 3.636734
663.2681, 2.958321
663.7502, 2.251831
664.2323, 1.636070
664.7144, 1.189140
665.1965, 0.9193190
665.6786, 0.8898160
666.1608, 1.342842
666.6429, 1.886993
667.1250, 2.292465
667.6071, 2.532753
668.0892, 2.659950
668.5714, 2.844879
669.0535, 2.736923
669.5356, 1.671577
670.0177, 0.7232280
670.4998, 1.280853
670.9819, 0.7343220
671.4641, 3.508614
671.9462, 4.340721
672.4283, 3.636444
672.9104, 3.005402
673.3925, 2.853264
673.8746, 3.079033
674.3568, 3.843925
674.8389, 4.895432
675.3210, 5.688255
675.8031, 5.709328
676.2852, 5.775536
676.7673, 6.445900
677.2495, 7.543465
677.7316, 7.492241
678.2137, 4.924324
678.6958, 3.116722
679.1779, 3.619522
679.6600, 6.281334
680.1422, 7.148849
680.6243, 5.997963
681.1064, 4.459099
681.5885, 3.620041
682.0706, 3.287186
682.5527, 2.747627
683.0349, 1.946571
683.5170, 1.461319
683.9991, 2.360077
684.4812, 3.508263
684.9633, 3.375511
685.4454, 1.072792
685.9276, 0.3554380
686.4097, 1.287003
686.8918, 3.783684
687.3739, 4.650833
687.8560, 2.375427
688.3381, 1.045639
688.8203, 1.188644
689.3024, 2.067253
689.7845, 2.196251
690.2666, 1.440468
690.7487, 2.039192
691.2308, 5.272308
691.7130, 9.101524
692.1951, 9.715828
692.6772, 7.798134
693.1593, 5.897835
693.6414, 5.538857
694.1235, 5.488159
694.6057, 4.742775
695.0878, 3.473679
695.5699, 2.410484
696.0520, 1.544075
696.5341, 1.170181
697.0162, 1.830872
697.4984, 3.492058
697.9805, 3.638039
698.4626, 1.436317
698.9447, 0.5748060
699.4268, 0.8536070
699.9089, 0.5147250
700.3911, 2.067680
700.8732, 3.841515
701.3553, 5.348038
701.8374, 6.054016
702.3195, 6.174088
702.8016, 6.359390
703.2838, 6.823700
703.7659, 6.544617
704.2480, 3.354927
704.7301, 3.9062999E-02
705.2122, 0.9262310
705.6943, 3.705353
706.1765, 6.695236
706.6586, 6.743004
707.1407, 5.508728
707.6228, 4.872978
708.1049, 4.878006
708.5870, 4.762268
709.0692, 4.304825
709.5513, 3.886482
710.0334, 4.645935
710.5155, 6.231964
710.9976, 6.678207
711.4797, 4.582733
711.9618, 2.024567
712.4439, 1.364212
712.9260, 1.856339
713.4081, 2.061043
713.8903, 0.1287460
714.3724, 1.136459
714.8545, 0.1434250
715.3366, 2.697578
715.8187, 4.477165
716.3008, 4.630745
716.7830, 4.719330
717.2651, 5.452301
717.7472, 6.644661
718.2293, 6.582314
718.7114, 5.196167
719.1935, 3.726715
719.6757, 2.697441
720.1578, 2.214363
720.6399, 2.911644
721.1220, 4.689049
721.6041, 5.840965
722.0862, 4.404160
722.5684, 2.490646
723.0505, 1.737617
723.5326, 2.610794
724.0147, 3.321846
724.4968, 3.655800
724.9789, 3.702843
725.4611, 3.343666
725.9432, 2.199478
726.4253, 2.421295
726.9074, 4.488190
727.3895, 6.556870
727.8716, 6.295021
728.3538, 4.246681
728.8359, 2.495049
729.3180, 1.147209
729.8001, 0.6559680
730.2822, 2.398819
730.7643, 4.897156
731.2465, 6.121208
731.7286, 4.870560
732.2107, 3.277885
732.6928, 1.321526
733.1749, 0.4227450
733.6570, 1.033173
734.1392, 0.1254200
734.6213, 0.9267120
735.1034, 0.7841950
735.5855, 0.4749830
736.0676, 2.080864
736.5497, 5.417984
737.0319, 7.618370
737.5140, 7.294350
737.9961, 5.936928
738.4782, 5.232803
738.9603, 5.064171
739.4424, 5.126732
739.9246, 5.571289
740.4067, 5.933136
740.8888, 5.737984
741.3709, 5.208023
741.8530, 5.461060
742.3351, 7.687614
742.8173, 8.889801
743.2994, 7.868187
743.7815, 5.152626
744.2636, 3.702461
744.7457, 3.387985
745.2278, 3.125351
745.7100, 1.879158
746.1921, 0.6447600
746.6742, 2.249634
747.1563, 6.171997
747.6384, 8.739326
748.1205, 6.598442
748.6027, 3.336441
749.0848, 1.054619
749.5669, 7.4111998E-02
750.0490, 9.0026997E-02
750.5311, 2.432907
751.0132, 4.439507
751.4954, 4.128487
751.9775, 1.203362
752.4596, 0.5865020
752.9417, 2.702736
753.4238, 5.008942
753.9059, 5.456528
754.3881, 4.588005
754.8702, 3.570251
755.3523, 2.486397
755.8344, 1.908623
756.3165, 2.984634
756.7986, 4.275879
757.2808, 4.366463
757.7629, 2.598709
758.2450, 1.656342
758.7271, 2.730377
759.2092, 4.158287
759.6913, 4.809860
760.1735, 4.475334
760.6556, 4.169823
761.1377, 3.878487
761.6198, 3.736237
762.1019, 4.247780
762.5840, 5.043839
763.0662, 4.728790
763.5483, 3.026009
764.0304, 1.202301
764.5125, 0.2478790
764.9946, 0.8913960
765.4767, 5.8052000E-02
765.9589, 3.969254
766.4410, 6.702965
766.9231, 6.814171
767.4052, 5.644669
767.8873, 4.405159
768.3694, 3.025841
768.8516, 1.805016
769.3337, 0.5709840
769.8158, 2.2659000E-02
770.2979, 1.902344
770.7800, 5.433876
771.2621, 7.080299
771.7443, 5.344131
772.2264, 2.838211
772.7085, 1.181023
773.1906, 0.5482330
773.6727, 1.262436
774.1548, 6.292847
774.6370, 9.069649
775.1191, 6.884850
775.6012, 2.590454
776.0833, 0.7810520
776.5654, 2.120949
777.0475, 3.049355
777.5297, 2.721848
778.0118, 2.181091
778.4939, 3.113556
778.9760, 5.032730
779.4581, 5.830688
779.9402, 3.897133
780.4224, 1.761757
780.9045, 1.400887
781.3866, 2.292648
781.8687, 3.468498
782.3508, 5.713585
782.8329, 6.887657
783.3151, 6.005905
783.7972, 4.058052
784.2793, 3.270973
784.7614, 3.827385
785.2435, 4.659584
785.7256, 5.705780
786.2078, 6.562836
786.6899, 6.233269
787.1720, 4.959389
787.6541, 3.641609
788.1362, 1.971405
788.6183, 1.064804
789.1005, 2.677986
789.5826, 5.645050
790.0647, 6.998207
790.5468, 4.216759
791.0289, 1.999863
791.5110, 1.307541
791.9932, 1.888168
792.4753, 2.850204
792.9574, 4.303024
793.4395, 5.186058
793.9216, 4.993698
794.4037, 4.171204
794.8859, 3.048714
795.3680, 1.945526
795.8501, 1.898933
796.3322, 5.241730
796.8143, 8.002029
797.2964, 7.012634
797.7786, 3.474632
798.2607, 1.847023
798.7428, 4.265617
799.2249, 6.049904
799.7070, 6.145103
800.1891, 4.846886
800.6713, 2.577477
801.1534, 0.6786420
801.6355, 2.686958
802.1176, 2.013680
802.5997, 4.3365002E-02
803.0818, 1.478470
803.5640, 2.606613
804.0461, 3.506561
804.5282, 4.583870
805.0103, 5.110214
805.4924, 4.289246
805.9745, 2.542061
806.4567, 1.824692
806.9388, 2.693001
807.4209, 3.400932
807.9030, 3.483269
808.3851, 3.101089
808.8672, 2.519615
809.3494, 1.782753
809.8315, 1.305984
810.3136, 1.522629
810.7957, 1.881081
811.2778, 1.582634
811.7599, 0.9471890
812.2421, 0.8718570
812.7242, 2.496140
813.2063, 3.810936
813.6884, 3.913139
814.1705, 3.260559
814.6526, 3.445976
815.1348, 4.838165
815.6169, 5.519157
816.0990, 4.674759
816.5811, 3.009262
817.0632, 1.969681
817.5453, 1.471695
818.0275, 1.185806
818.5096, 0.5110240
818.9917, 0.4076540
819.4738, 2.541580
819.9559, 5.767220
820.4380, 6.998482
820.9202, 3.061539
821.4023, 0.4186940
821.8844, 0.6302410
822.3665, 2.587196
822.8486, 3.377968
823.3307, 3.057777
823.8129, 3.133507
824.2950, 4.447372
824.7771, 5.956253
825.2592, 6.181046
825.7413, 5.381836
826.2234, 4.198830
826.7056, 1.962227
827.1877, 0.4164350
827.6698, 0.7466810
828.1519, 2.166824
828.6340, 2.763245
829.1161, 2.007668
829.5983, 1.674797
830.0804, 2.171158
830.5625, 3.132881
831.0446, 4.189812
831.5267, 5.184044
832.0089, 5.154182
832.4910, 3.027527
832.9731, 1.191071
833.4552, 3.120026
833.9373, 6.450577
834.4194, 7.371124
834.9016, 0.7845840
835.3837, 2.847473
835.8658, 0.8998410
836.3479, 3.543983
836.8300, 6.037109
837.3121, 6.468643
837.7943, 5.538574
838.2764, 2.910202
838.7585, 0.2763290
839.2406, 0.3013530
839.7227, 1.979530
840.2048, 3.310539
840.6870, 3.540977
841.1691, 3.543999
841.6512, 3.783318
842.1333, 3.981529
842.6154, 3.749046
843.0975, 2.587090
843.5797, 2.149765
844.0618, 2.747963
844.5439, 3.623253
845.0260, 3.702835
845.5081, 3.199020
845.9902, 3.195404
846.4724, 3.893997
846.9545, 4.844292
847.4366, 6.164978
847.9187, 7.265869
848.4008, 7.423035
848.8829, 6.186554
849.3651, 4.906509
849.8472, 3.701378
850.3293, 2.570526
850.8114, 1.334534
851.2935, 0.1295780
851.7756, 0.1906890
852.2578, 1.374352
852.7399, 3.060791
853.2220, 3.567467
853.7041, 3.278870
854.1862, 2.606819
854.6683, 1.577866
855.1505, 0.8733980
855.6326, 0.8214420
856.1147, 1.193260
856.5968, 1.683571
857.0789, 2.140984
857.5610, 4.397560
858.0432, 9.402023
858.5253, 13.23938
859.0074, 11.81889
859.4895, 7.066811
859.9716, 7.211555
860.4537, 11.70342
860.9359, 14.93668
861.4180, 12.38840
861.9001, 8.336807
862.3822, 5.132172
862.8643, 2.979668
863.3464, 2.352455
863.8286, 4.484550
864.3107, 5.982315
864.7928, 5.322296
865.2749, 3.143417
865.7570, 2.507576
866.2391, 3.328781
866.7213, 4.216805
867.2034, 4.389259
867.6855, 4.322105
868.1676, 4.500237
868.6497, 4.861450
869.1318, 5.222954
869.6140, 5.461334
870.0961, 5.793602
870.5782, 6.541481
871.0603, 7.310966
871.5424, 6.997482
872.0245, 5.480583
872.5067, 4.028770
872.9888, 2.932426
873.4709, 2.126167
873.9530, 1.361496
874.4351, 0.8189850
874.9172, 0.9303590
875.3994, 2.373810
875.8815, 3.686440
876.3636, 4.285637
876.8457, 4.450211
877.3278, 4.563072
877.8099, 4.559387
878.2921, 4.844292
878.7742, 5.713264
879.2563, 6.220711
879.7384, 4.509529
880.2205, 1.493324
880.7026, 0.1719590
881.1848, 0.1181490
881.6669, 0.9885100
882.1490, 2.081238
882.6311, 2.983742
883.1132, 3.305412
883.5953, 2.849365
884.0775, 2.174088
884.5596, 0.9754870
885.0417, 0.1250460
885.5238, 0.4821850
886.0059, 1.838097
886.4880, 2.905571
886.9702, 3.644814
887.4523, 4.378021
887.9344, 5.676186
888.4165, 6.824730
888.8986, 7.143906
889.3807, 6.603577
889.8629, 5.861389
890.3450, 4.559776
890.8271, 3.745117
891.3092, 3.941315
891.7913, 4.944290
892.2734, 5.646812
892.7556, 6.062477
893.2377, 6.424179
893.7198, 7.859612
894.2019, 9.077690
894.6840, 8.512039
895.1661, 6.629059
895.6483, 4.744049
896.1304, 2.980614
896.6125, 1.558472
897.0946, 0.1464080
897.5767, 0.7323380
898.0588, 0.6301960
898.5410, 4.389999
899.0231, 6.352974
899.5052, 5.029213
899.9873, 2.983810
900.4694, 3.999428
900.9515, 6.463089
901.4337, 7.159546
901.9158, 3.984596
902.3979, 1.802910
902.8800, 3.083977
903.3621, 5.133919
903.8442, 5.633865
904.3264, 4.287170
904.8085, 2.998680
905.2906, 1.787933
905.7727, 0.8732530
906.2548, 0.5255200
906.7369, 0.5670320
907.2191, 0.6612850
907.7012, 0.8529890
908.1833, 1.397095
908.6654, 3.233292
909.1475, 4.816795
909.6296, 5.218704
910.1118, 4.480911
910.5939, 3.855614
911.0760, 3.353912
911.5581, 2.899933
912.0402, 2.563423
912.5223, 2.349350
913.0045, 2.264816
913.4866, 2.292923
913.9687, 2.376259
914.4508, 2.553230
914.9329, 2.724060
915.4150, 3.156601
915.8972, 3.487869
916.3793, 2.490379
916.8614, 0.4692760
917.3435, 1.999107
917.8256, 0.9798280
918.3077, 0.9667510
918.7899, 0.8076020
919.2720, 0.4534230
919.7541, 0.2384570
920.2362, 3.085030
920.7183, 5.852493
921.2004, 5.889565
921.6826, 4.789337
922.1647, 4.239220
922.6468, 4.616730
923.1289, 4.608856
923.6110, 4.092812
924.0931, 3.509827
924.5753, 3.316360
925.0574, 3.331627
925.5395, 3.337273
926.0216, 3.307327
926.5037, 3.007294
926.9858, 1.764771
927.4680, 0.6828540
927.9501, 0.5614470
928.4322, 1.326210
928.9143, 2.110695
929.3964, 3.039284
929.8785, 3.490074
930.3607, 2.957085
930.8428, 1.961594
931.3249, 1.628326
931.8070, 1.846359
932.2891, 2.253609
932.7712, 3.033554
933.2534, 3.580208
933.7355, 3.534683
934.2176, 3.111755
934.6997, 2.737946
935.1818, 2.405045
935.6639, 2.107841
936.1461, 1.789154
936.6282, 1.660576
937.1103, 2.314392
937.5924, 3.310425
938.0745, 3.575256
938.5566, 2.739815
939.0388, 2.018913
939.5209, 2.157059
940.0030, 2.508125
940.4851, 2.575623
940.9672, 2.299858
941.4493, 2.155479
941.9315, 2.118469
942.4136, 2.348473
942.8957, 3.392929
943.3778, 4.604118
943.8599, 4.387939
944.3420, 3.041756
944.8242, 2.150467
945.3063, 3.173393
945.7884, 4.064331
946.2705, 3.544159
946.7526, 2.320305
947.2347, 2.547737
947.7169, 4.565483
948.1990, 5.788322
948.6811, 5.434982
949.1632, 4.283821
949.6453, 2.812782
950.1274, 1.510735
950.6096, 1.451805
951.0917, 3.768646
951.5738, 5.451141
952.0559, 5.209442
952.5380, 4.248032
953.0201, 3.319237
953.5023, 2.331841
953.9844, 2.286034
954.4665, 3.301743
954.9486, 4.192314
955.4307, 3.614197
955.9128, 2.571808
956.3950, 2.459633
956.8771, 3.218155
957.3591, 3.250877
957.8412, 0.2957080
958.3234, 1.351219
958.8055, 0.3598710
959.2876, 4.166016
959.7697, 4.950928
960.2518, 2.781563
960.7339, 0.9524920
961.2161, 0.6367950
961.6982, 1.132385
962.1803, 2.072159
962.6624, 3.183937
963.1445, 4.067131
963.6266, 5.321999
964.1088, 5.038055
964.5909, 1.921463
965.0730, 1.128159
965.5551, 0.3163380
966.0372, 3.738358
966.5193, 5.181961
967.0015, 3.576607
967.4836, 1.407921
967.9657, 0.2293700
968.4478, 0.9460370
968.9299, 7.0029996E-02
969.4120, 2.824860
969.8942, 4.703003
970.3763, 5.712837
970.8584, 5.520889
971.3405, 3.413223
971.8226, 0.5084760
972.3047, 6.1439998E-02
972.7869, 1.580513
973.2690, 3.055695
973.7511, 3.825066
974.2332, 4.096741
974.7153, 3.411888
975.1974, 2.449677
975.6796, 2.556763
976.1617, 4.515038
976.6438, 4.829910
977.1259, 2.925674
977.6080, 0.7727810
978.0901, 0.7367480
978.5723, 1.783981
979.0544, 1.691223
979.5365, 0.2733760
980.0186, 0.8719480
980.5007, 0.7976840
980.9828, 0.4057240
981.4650, 0.2928700
981.9471, 0.3104780
982.4292, 0.8163600
982.9113, 3.219887
983.3934, 5.241333
983.8755, 6.101089
984.3577, 6.439476
984.8398, 7.476273
985.3219, 8.565933
985.8040, 8.466049
986.2861, 4.946671
986.7682, 2.970947
987.2504, 4.052162
987.7325, 5.793076
988.2146, 5.450630
988.6967, 3.178795
989.1788, 2.244881
989.6609, 2.893784
990.1431, 3.573227
990.6252, 2.721375
991.1073, 1.604271
991.5894, 1.386978
992.0715, 2.113953
992.5536, 2.623596
993.0358, 2.541878
993.5179, 2.949989
994.0000, 4.555756
994.4821, 6.485222
994.9642, 6.170624
995.4464, 4.282257
995.9285, 3.231514
996.4106, 4.640617
996.8927, 5.598228
997.3748, 3.681175
997.8569, 1.021049
998.3391, 0.1083600
998.8212, 1.709961
999.3033, 2.332985
999.7854, 1.654526
1000.268, 1.137810
1000.750, 2.704140
1001.232, 4.892006
1001.714, 4.979904
1002.196, 3.159218
1002.678, 1.964684
1003.160, 3.022957
1003.642, 4.147278
1004.124, 4.678322
1004.607, 4.805206
1005.089, 5.053612
1005.571, 5.411758
1006.053, 5.582260
1006.535, 5.458298
1007.017, 5.194382
1007.499, 4.650269
1007.981, 4.193779
1008.464, 4.345032
1008.946, 5.773155
1009.428, 6.214584
1009.910, 5.304962
1010.392, 4.127274
1010.874, 3.498688
1011.356, 3.215958
1011.838, 2.365448
1012.320, 1.109390
1012.803, 0.3524480
1013.285, 1.148453
1013.767, 1.993515
1014.249, 1.870407
1014.731, 1.351929
1015.213, 1.721695
1015.695, 3.135162
1016.177, 4.452621
1016.659, 5.822250
1017.142, 6.787094
1017.624, 6.735886
1018.106, 6.075516
1018.588, 5.213272
1019.070, 4.144730
1019.552, 3.364532
1020.034, 3.164230
1020.516, 2.994568
1020.999, 2.443375
1021.481, 1.719696
1021.963, 2.190292
1022.445, 3.681366
1022.927, 4.900604
1023.409, 5.434692
1023.891, 5.578064
1024.373, 5.237228
1024.855, 4.679428
1025.338, 4.421707
1025.820, 4.736313
1026.302, 4.391205
1026.784, 3.214294
1027.266, 2.139572
1027.748, 2.393341
1028.230, 3.382904
1028.712, 3.966537
1029.195, 4.076385
1029.677, 4.382492
1030.159, 6.000092
1030.641, 6.753250
1031.123, 5.632690
1031.605, 3.216415
1032.087, 1.237381
1032.569, 0.2731780
1033.052, 0.9029690
1033.534, 0.2259220
1034.016, 0.6314390
1034.498, 0.4455260
1034.980, 4.3761998E-02
1035.462, 0.1042940
1035.944, 1.424454
1036.426, 2.172028
1036.908, 2.120239
1037.391, 2.124222
1037.873, 3.076859
1038.355, 4.417450
1038.837, 4.424515
1039.319, 3.398193
1039.801, 2.756760
1040.283, 4.053192
1040.765, 4.809433
1041.247, 3.851349
1041.730, 2.130402
1042.212, 0.9169460
1042.694, 0.2103580
1043.176, 0.9923550
1043.658, 3.673828
1044.140, 5.816895
1044.622, 3.995636
1045.104, 1.416656
1045.587, 1.683167
1046.069, 5.405945
1046.551, 7.146042
1047.033, 6.082184
1047.515, 4.581528
1047.997, 3.320053
1048.479, 2.448425
1048.961, 2.475113
1049.443, 3.153320
1049.926, 3.947037
1050.408, 5.068344
1050.890, 5.393387
1051.372, 3.519501
1051.854, 1.476685
1052.336, 0.8757630
1052.818, 1.772903
1053.300, 3.348389
1053.782, 5.599457
1054.265, 6.897141
1054.747, 5.365616
1055.229, 3.008759
1055.711, 1.096909
1056.193, 0.2380830
1056.675, 0.6894990
1057.157, 2.5574001E-02
1057.639, 0.8434140
1058.122, 1.834351
1058.604, 2.835007
1059.086, 3.991821
1059.568, 4.952927
1060.050, 4.828583
1060.532, 3.370361
1061.014, 2.173599
1061.496, 2.189407
1061.979, 2.257385
1062.461, 1.808044
1062.943, 1.019562
1063.425, 0.8877560
1063.907, 1.240570
1064.389, 1.345734
1064.871, 0.6746520
1065.353, 9.1843002E-02
1065.835, 0.4442750
1066.318, 1.179581
1066.800, 1.567978
1067.282, 1.414337
1067.764, 1.382874
1068.246, 1.412994
1068.728, 1.842972
1069.210, 3.733719
1069.692, 5.741486
1070.174, 5.102432
1070.657, 2.537277
1071.139, 0.9991910
1071.621, 2.655136
1072.103, 3.791840
1072.585, 3.814819
1073.067, 3.059006
1073.549, 1.366821
1074.031, 0.7459720
1074.514, 0.7877350
1074.996, 1.671173
1075.478, 4.302383
1075.960, 6.109238
1076.442, 7.144165
1076.924, 7.204178
1077.406, 6.475189
1077.888, 5.779526
1078.370, 5.103165
1078.853, 4.743347
1079.335, 4.937668
1079.817, 5.192841
1080.299, 4.980408
1080.781, 4.452316
1081.263, 3.835632
1081.745, 2.891037
1082.227, 2.793671
1082.709, 4.002655
1083.192, 4.884552
1083.674, 3.753387
1084.156, 1.758896
1084.638, 2.505859
1085.120, 5.060867
1085.602, 6.247650
1086.084, 3.152679
1086.566, 0.5607760
1087.048, 0.5550080
1087.531, 0.5432740
1088.013, 0.5517120
1088.495, 2.604843
1088.977, 4.301346
1089.459, 5.545410
1089.941, 5.791748
1090.423, 3.484909
1090.905, 1.078552
1091.388, 0.4333650
1091.870, 1.181152
1092.352, 1.806519
1092.834, 2.364227
1093.316, 2.372894
1093.798, 1.612274
1094.280, 0.6634830
1094.762, 0.1898500
1095.245, 0.6071780
1095.727, 8.2413003E-02
1096.209, 2.265854
1096.691, 3.619781
1097.173, 3.661499
1097.655, 3.433075
1098.137, 3.243408
1098.619, 3.297699
1099.101, 4.072510
1099.583, 5.114365
1100.066, 5.505051
1100.548, 4.257278
1101.030, 3.490784
1101.512, 4.249969
1101.994, 5.167282
1102.476, 5.191833
1102.958, 4.379288
1103.440, 3.427780
1103.923, 2.389893
1104.405, 1.715393
1104.887, 1.790054
1105.369, 1.876160
1105.851, 1.416779
1106.333, 0.6880340
1106.815, 9.3383998E-02
1107.297, 0.4659730
1107.780, 0.2413180
1108.262, 2.503738
1108.744, 4.574402
1109.226, 4.859573
1109.708, 4.147995
1110.190, 2.676590
1110.672, 0.7069400
1111.154, 0.3528900
1111.636, 2.544815
1112.119, 3.870148
1112.601, 3.356522
1113.083, 2.069778
1113.565, 1.243378
1114.047, 0.8991090
1114.529, 1.281052
1115.011, 2.697891
1115.493, 3.437759
1115.975, 2.586426
1116.458, 1.851685
1116.940, 2.060196
1117.422, 2.837387
1117.904, 2.901230
1118.386, 2.457260
1118.868, 2.269531
1119.350, 3.012390
1119.832, 3.254669
1120.315, 1.075455
1120.797, 0.6917570
1121.279, 0.7615970
1121.761, 5.370636
1122.243, 6.253479
1122.725, 3.652847
1123.207, 1.283371
1123.689, 1.692276
1124.172, 2.745163
1124.654, 3.253372
1125.136, 3.404663
1125.618, 3.614792
1126.100, 3.975220
1126.582, 3.982803
1127.064, 3.613846
1127.546, 2.995697
1128.028, 1.373657
1128.510, 0.2338410
1128.993, 2.146011
1129.475, 6.193146
1129.957, 7.181793
1130.439, 3.104645
1130.921, 0.9278720
1131.403, 2.163467
1131.885, 4.525330
1132.367, 5.415680
1132.850, 5.449234
1133.332, 5.561478
1133.814, 5.877274
1134.296, 5.574310
1134.778, 3.952118
1135.260, 2.641312
1135.742, 2.264587
1136.224, 2.317551
1136.707, 1.519409
1137.189, 0.2865300
1137.671, 0.2449650
1138.153, 0.3192440
1138.635, 1.044327
1139.117, 1.550171
1139.599, 2.192337
1140.081, 3.417404
1140.563, 4.890839
1141.046, 5.410873
1141.528, 5.126175
1142.010, 4.216934
1142.492, 1.928696
1142.974, 0.5468140
1143.456, 2.391418
1143.938, 4.832779
1144.420, 5.388672
1144.902, 3.941223
1145.385, 3.160538
1145.867, 3.048721
1146.349, 3.003464
1146.831, 2.727615
1147.313, 2.337433
1147.795, 1.714706
1148.277, 1.139771
1148.759, 1.083527
1149.242, 1.665527
1149.724, 2.058334
1150.206, 2.182327
1150.688, 2.580475
1151.170, 4.360352
1151.652, 6.058533
1152.134, 6.316528
1152.616, 5.286102
1153.099, 3.552567
1153.581, 0.5021210
1154.063, 0.3865200
1154.545, 1.823334
1155.027, 4.140839
1155.509, 2.091110
1155.991, 1.142029
1156.473, 0.9733280
1156.955, 2.640625
1157.438, 4.371628
1157.920, 2.419586
1158.402, 1.963150
1158.884, 4.781143
1159.366, 8.231308
1159.848, 8.380447
1160.330, 6.393921
1160.812, 3.725677
1161.294, 0.3913880
1161.777, 0.9846950
1162.259, 1.259735
1162.741, 3.367203
1163.223, 4.134430
1163.705, 3.838608
1164.187, 2.154251
1164.669, 4.5134999E-02
1165.151, 0.1484680
1165.634, 4.299057
1166.116, 6.682190
1166.598, 4.288864
1167.080, 1.813690
1167.562, 1.747009
1168.044, 3.252808
1168.526, 3.474777
1169.008, 2.780884
1169.490, 2.513611
1169.973, 3.518600
1170.455, 4.301666
1170.937, 4.382614
1171.419, 4.007141
1171.901, 2.975555
1172.383, 1.518982
1172.865, 1.657089
1173.347, 3.149139
1173.829, 4.648758
1174.312, 6.035690
1174.794, 6.603424
1175.276, 5.304474
1175.758, 3.605896
1176.240, 2.720459
1176.722, 2.658813
1177.204, 4.156433
1177.686, 7.021622
1178.169, 8.924316
1178.651, 7.346573
1179.133, 5.568054
1179.615, 5.296341
1180.097, 5.733948
1180.579, 5.696533
1181.061, 5.174652
1181.543, 5.059967
1182.026, 5.412613
1182.508, 5.267395
1182.990, 3.405167
1183.472, 1.326401
1183.954, 0.3232420
1184.436, 1.331955
1184.918, 1.201401
1185.400, 0.1197050
1185.882, 1.933212
1186.365, 4.259567
1186.847, 5.596130
1187.329, 3.187073
1187.811, 0.6136780
1188.293, 1.295380
1188.775, 4.273392
1189.257, 5.625000
1189.739, 5.226044
1190.221, 4.873520
1190.704, 4.952591
1191.186, 4.927155
1191.668, 3.805710
1192.150, 2.730453
1192.632, 3.067078
1193.114, 4.595383
1193.596, 4.988297
1194.078, 4.138824
1194.561, 3.079514
1195.043, 1.975174
1195.525, 1.160797
1196.007, 1.599716
1196.489, 2.158234
1196.971, 1.248627
1197.453, 1.185257
1197.935, 1.316528
1198.417, 1.160873
1198.900, 3.337448
1199.382, 4.188309
1199.864, 4.286667
1200.346, 3.679932
1200.828, 2.997101
1201.310, 3.000351
1201.792, 3.773331
1202.274, 5.313583
1202.756, 7.906967
1203.239, 8.608826
1203.721, 4.785767
1204.203, 0.6800840
1204.685, 1.669983
1205.167, 4.872604
1205.649, 6.334061
1206.131, 5.405319
1206.613, 4.227982
1207.096, 2.638367
1207.578, 2.208771
1208.060, 5.026505
1208.542, 7.822723
1209.024, 5.733353
1209.506, 1.711075
1209.988, 0.7806090
1210.470, 4.442062
1210.953, 6.104553
1211.435, 5.606522
1211.917, 4.449020
1212.399, 3.012009
1212.881, 2.068924
1213.363, 3.172348
1213.845, 5.048935
1214.327, 5.492767
1214.809, 3.694702
1215.292, 3.334122
1215.774, 4.633896
1216.256, 5.660172
1216.738, 4.236237
1217.220, 2.535507
1217.702, 2.680542
1218.184, 4.112762
1218.666, 5.760559
1219.148, 8.010681
1219.631, 8.205185
1220.113, 6.198685
1220.595, 4.053619
1221.077, 3.667999
1221.559, 3.720154
1222.041, 2.812042
1222.523, 1.451691
1223.005, 1.101852
1223.488, 2.178192
1223.970, 2.123840
1224.452, 0.6125490
1224.934, 0.2180180
1225.416, 2.514786
1225.898, 5.661835
1226.380, 6.400864
1226.862, 5.346985
1227.344, 4.299240
1227.827, 3.065292
1228.309, 3.509003
1228.791, 5.910797
1229.273, 8.260483
1229.755, 9.505280
1230.237, 9.453888
1230.719, 7.000565
1231.201, 3.259201
1231.683, 1.332184
1232.166, 1.370651
1232.648, 1.732803
1233.130, 2.260208
1233.612, 2.619507
1234.094, 2.378525
1234.576, 2.021179
1235.058, 1.857147
1235.540, 1.862549
1236.023, 1.876511
1236.505, 1.892914
1236.987, 2.668732
1237.469, 4.337189
1237.951, 5.677414
1238.433, 5.177628
1238.915, 4.647903
1239.397, 6.028763
1239.880, 7.982742
1240.362, 6.770462
1240.844, 2.715240
1241.326, 0.7899020
1241.808, 1.818314
1242.290, 3.418457
1242.772, 4.949951
1243.254, 5.704163
1243.736, 4.806656
1244.219, 3.061737
1244.701, 2.408356
1245.183, 2.678955
1245.665, 2.526596
1246.147, 1.672119
1246.629, 1.543030
1247.111, 3.896362
1247.593, 6.084564
1248.075, 7.172058
1248.558, 7.215393
1249.040, 5.656540
1249.522, 3.140625
1250.004, 2.766205
1250.486, 5.196777
1250.968, 6.817978
1251.450, 4.239868
1251.932, 2.635223
1252.415, 4.364777
1252.897, 7.507492
1253.379, 8.245651
1253.861, 7.220093
1254.343, 5.944992
1254.825, 4.635712
1255.307, 3.716278
1255.789, 3.596481
1256.271, 3.409210
1256.754, 2.662689
1257.236, 2.106857
1257.718, 3.979752
1258.200, 6.775406
1258.682, 7.377243
1259.164, 5.134216
1259.646, 2.899948
1260.128, 0.6323850
1260.610, 0.3659520
1261.093, 0.6464540
1261.575, 2.326645
1262.057, 2.828262
1262.539, 2.568207
1263.021, 1.784622
1263.503, 0.4458470
1263.985, 0.9567410
1264.467, 4.232773
1264.950, 6.284393
1265.432, 5.684387
1265.914, 4.144989
1266.396, 3.190125
1266.878, 2.800339
1267.360, 3.326187
1267.842, 4.767548
1268.324, 4.624741
1268.807, 2.602829
1269.289, 1.484406
1269.771, 2.259155
1270.253, 3.434387
1270.735, 3.626495
1271.217, 3.458420
1271.699, 3.589661
1272.181, 3.936401
1272.663, 3.643417
1273.146, 2.729935
1273.628, 2.239426
1274.110, 2.541550
1274.592, 2.961273
1275.074, 2.802856
1275.556, 2.812775
1276.038, 3.808060
1276.520, 5.279831
1277.002, 5.046707
1277.485, 3.398285
1277.967, 1.946442
1278.449, 1.007767
1278.931, 0.7940370
1279.413, 2.322845
1279.895, 3.531830
1280.377, 3.353088
1280.859, 2.363083
1281.342, 2.106812
1281.824, 2.278290
1282.306, 1.634369
1282.788, 0.3790590
1283.270, 0.7566530
1283.752, 3.208176
1284.234, 6.343704
1284.716, 6.891418
1285.198, 5.877640
1285.681, 4.284515
1286.163, 2.807755
1286.645, 2.919998
1287.127, 5.006897
1287.609, 6.590027
1288.091, 7.582886
1288.573, 7.491440
1289.055, 5.776306
1289.537, 4.004898
1290.020, 4.513458
1290.502, 6.047272
1290.984, 7.283798
1291.466, 8.061951
1291.948, 8.630234
1292.430, 9.132278
1292.912, 8.090683
1293.394, 4.766052
1293.877, 1.517685
1294.359, 0.1739350
1294.841, 0.1060790
1295.323, 1.270996
1295.805, 3.448730
1296.287, 4.661789
1296.769, 4.974030
1297.251, 5.370926
1297.734, 6.124039
1298.216, 6.405090
1298.698, 5.343445
1299.180, 3.992081
1299.662, 2.795807
1300.144, 1.437973
1300.626, 0.6471860
1301.108, 0.1075290
1301.590, 3.6499001E-02
1302.073, 0.2349400
1302.555, 0.9523470
1303.037, 3.366699
1303.519, 4.260986
1304.001, 2.725967
1304.483, 0.4824680
1304.965, 0.0000000E+00
##END=



