##NAMES=Ishikawaite
##RRUFFID=R070496
##IDEAL CHEMISTRY=(U^4+^,Fe^2+^,Y^3+^)Nb^5+^O_4_
##LOCALITY=Standpipe Hill mines, Topsham, Sagadahoc County, Maine, USA
##OWNER=RRUFF
##SOURCE=Michael Scott
##DESCRIPTION=Dark brown prismatic crystal
##STATUS=The identification of this mineral is not yet confirmed.
##URL=rruff.info/R070496
174.4325, 0.0000000E+00
174.9146, 30.37207
175.3967, 86.38086
175.8788, 147.0234
176.3610, 119.4541
176.8431, 36.91699
177.3252, 0.6835940
177.8073, 16.81445
178.2894, 37.93359
178.7715, 28.28516
179.2537, 2.306641
179.7358, 17.90137
180.2179, 20.90430
180.7000, 119.2559
181.1821, 187.1553
181.6642, 194.6494
182.1464, 195.7783
182.6285, 212.3555
183.1106, 238.7451
183.5927, 254.3584
184.0748, 236.5898
184.5569, 182.9365
185.0391, 150.3027
185.5212, 163.3848
186.0033, 176.6934
186.4854, 170.0273
186.9675, 150.8467
187.4496, 141.6455
187.9318, 165.1748
188.4139, 223.2090
188.8960, 256.6533
189.3781, 239.0879
189.8602, 220.0537
190.3423, 210.6289
190.8245, 210.7451
191.3066, 216.7109
191.7887, 226.2988
192.2708, 239.4258
192.7529, 252.1387
193.2350, 263.0322
193.7172, 274.8262
194.1993, 294.6885
194.6814, 316.1348
195.1635, 324.2051
195.6456, 303.9473
196.1277, 257.8398
196.6099, 244.6826
197.0920, 323.5723
197.5741, 377.4961
198.0562, 362.1748
198.5383, 304.3672
199.0204, 254.9922
199.5026, 249.1377
199.9847, 281.7129
200.4668, 300.5996
200.9489, 281.8672
201.4310, 273.8643
201.9131, 300.1816
202.3953, 341.0781
202.8774, 364.9160
203.3595, 351.9033
203.8416, 307.4229
204.3237, 263.0049
204.8058, 192.3193
205.2880, 153.1396
205.7701, 171.1650
206.2522, 221.4482
206.7343, 273.0137
207.2164, 309.5518
207.6985, 331.9863
208.1807, 344.2275
208.6628, 339.6260
209.1449, 331.0332
209.6270, 322.6191
210.1091, 310.0459
210.5912, 281.6113
211.0734, 230.7080
211.5555, 173.9131
212.0376, 161.3418
212.5197, 244.7500
213.0018, 302.7178
213.4839, 313.7998
213.9661, 300.3301
214.4482, 279.5537
214.9303, 258.9600
215.4124, 244.4482
215.8945, 251.2979
216.3766, 299.1641
216.8587, 337.9971
217.3409, 367.7021
217.8230, 387.1279
218.3051, 392.0225
218.7872, 382.1152
219.2693, 365.7764
219.7514, 358.1074
220.2336, 367.5947
220.7157, 369.6758
221.1978, 359.5947
221.6799, 346.1318
222.1620, 334.1543
222.6441, 325.2031
223.1263, 320.1777
223.6084, 321.8975
224.0905, 337.1631
224.5726, 342.0674
225.0547, 322.3164
225.5368, 305.1201
226.0190, 313.4883
226.5011, 345.2529
226.9832, 375.4805
227.4653, 373.3291
227.9474, 328.4688
228.4296, 295.4805
228.9117, 276.1123
229.3938, 266.2451
229.8759, 267.7725
230.3580, 278.2607
230.8401, 291.7051
231.3223, 302.8574
231.8044, 311.4961
232.2865, 318.8320
232.7686, 327.4004
233.2507, 333.8457
233.7328, 331.6133
234.2150, 325.8906
234.6971, 328.5166
235.1792, 349.3213
235.6613, 388.1787
236.1434, 416.3574
236.6255, 427.3701
237.1077, 433.4424
237.5898, 432.8711
238.0719, 430.8164
238.5540, 432.5840
239.0361, 442.5088
239.5182, 458.0576
240.0004, 467.8408
240.4825, 466.1807
240.9646, 467.1553
241.4467, 485.1377
241.9288, 503.5059
242.4109, 498.3672
242.8931, 456.7100
243.3752, 398.9033
243.8573, 373.4453
244.3394, 395.0664
244.8215, 420.1338
245.3036, 452.8584
245.7858, 478.3398
246.2679, 476.4629
246.7500, 440.9521
247.2321, 398.2051
247.7142, 395.5898
248.1963, 452.8887
248.6785, 482.8770
249.1606, 444.8467
249.6427, 394.2891
250.1248, 362.6406
250.6069, 355.8916
251.0890, 362.2656
251.5712, 370.4688
252.0533, 380.3809
252.5354, 393.3936
253.0175, 416.1084
253.4996, 436.2939
253.9817, 445.3574
254.4639, 444.6055
254.9460, 443.2061
255.4281, 453.1201
255.9102, 472.3428
256.3923, 472.9082
256.8745, 438.0195
257.3566, 404.9922
257.8387, 394.6895
258.3208, 401.5439
258.8029, 412.2461
259.2850, 422.7051
259.7672, 431.0967
260.2493, 430.5352
260.7314, 416.9570
261.2135, 402.9023
261.6956, 391.5205
262.1777, 384.6426
262.6599, 387.0361
263.1420, 407.9541
263.6241, 432.0322
264.1062, 435.9756
264.5883, 418.0420
265.0704, 389.2002
265.5526, 340.3105
266.0347, 289.1729
266.5168, 258.8447
266.9989, 259.0986
267.4810, 270.0283
267.9631, 276.7920
268.4453, 279.8447
268.9274, 278.2900
269.4095, 270.6768
269.8916, 258.6807
270.3737, 243.5186
270.8558, 223.3359
271.3380, 208.1572
271.8201, 201.9580
272.3022, 204.7568
272.7843, 219.7285
273.2664, 253.1680
273.7485, 287.6475
274.2307, 306.1104
274.7128, 307.8496
275.1949, 290.4473
275.6770, 230.0947
276.1591, 157.7812
276.6412, 125.2383
277.1234, 141.0391
277.6055, 170.3311
278.0876, 185.5674
278.5697, 187.3018
279.0518, 187.6133
279.5339, 183.5508
280.0161, 181.2373
280.4982, 189.1465
280.9803, 205.9854
281.4624, 219.2812
281.9445, 221.5635
282.4266, 213.0576
282.9088, 197.8818
283.3909, 159.3496
283.8730, 131.8916
284.3551, 136.6523
284.8372, 162.3018
285.3193, 184.1445
285.8015, 189.9502
286.2836, 184.7148
286.7657, 178.9629
287.2478, 171.7930
287.7299, 165.4678
288.2120, 162.1641
288.6942, 159.0225
289.1763, 151.8330
289.6584, 139.4561
290.1405, 125.3164
290.6226, 114.1328
291.1047, 105.3574
291.5869, 101.9990
292.0690, 107.3096
292.5511, 115.1270
293.0332, 126.3320
293.5153, 138.0059
293.9974, 139.1064
294.4796, 113.7686
294.9617, 56.22461
295.4438, 29.49902
295.9259, 59.23145
296.4080, 93.19629
296.8901, 117.1641
297.3723, 126.8994
297.8544, 127.6514
298.3365, 123.0078
298.8186, 113.3926
299.3007, 98.35742
299.7828, 64.90137
300.2650, 43.66406
300.7471, 49.99609
301.2292, 66.55664
301.7113, 72.14355
302.1934, 58.50879
302.6755, 39.49707
303.1577, 40.92578
303.6398, 70.25586
304.1219, 96.97949
304.6040, 129.4375
305.0861, 148.8389
305.5682, 130.2939
306.0504, 76.22168
306.5325, 28.68457
307.0146, 41.46094
307.4967, 113.6709
307.9788, 147.2402
308.4609, 107.2539
308.9431, 59.78516
309.4252, 48.09082
309.9073, 62.24609
310.3894, 71.26465
310.8715, 52.03320
311.3536, 17.38379
311.8358, 3.102539
312.3179, 7.065430
312.8000, 5.729492
313.2821, 1.724609
313.7642, 2.608398
314.2463, 2.791016
314.7285, 6.188477
315.2106, 13.65723
315.6927, 5.583008
316.1748, 15.50586
316.6569, 27.26172
317.1390, 15.67480
317.6212, 3.819336
318.1033, 2.395508
318.5854, 25.95215
319.0675, 50.11328
319.5496, 55.74219
320.0317, 50.00879
320.5139, 43.12109
320.9960, 36.95703
321.4781, 34.84375
321.9602, 44.51562
322.4423, 69.75781
322.9244, 75.46582
323.4066, 39.27148
323.8887, 1.305664
324.3708, 19.82715
324.8529, 16.37891
325.3350, 2.333984
325.8171, 15.86133
326.2993, 37.44336
326.7814, 52.58984
327.2635, 59.50391
327.7456, 63.47949
328.2277, 63.59668
328.7098, 62.21484
329.1920, 64.45605
329.6741, 72.60645
330.1562, 79.55762
330.6383, 67.24316
331.1204, 3.455078
331.6025, 23.46484
332.0847, 27.00293
332.5668, 82.17871
333.0489, 83.15527
333.5310, 28.27539
334.0131, 35.86328
334.4952, 60.63574
334.9774, 43.04883
335.4595, 19.62109
335.9416, 28.37305
336.4237, 62.55078
336.9058, 61.35938
337.3879, 37.56934
337.8701, 16.93652
338.3522, 15.16895
338.8343, 23.81543
339.3164, 20.13477
339.7985, 0.6093750
340.2806, 20.75488
340.7627, 38.96289
341.2448, 51.62109
341.7270, 54.36133
342.2091, 46.25488
342.6912, 29.82812
343.1733, 0.4531250
343.6554, 41.17773
344.1375, 61.38574
344.6197, 42.17285
345.1018, 18.73828
345.5839, 34.45898
346.0660, 84.34961
346.5481, 117.3740
347.0302, 100.7363
347.5124, 63.92090
347.9945, 48.35156
348.4766, 57.42285
348.9587, 68.21387
349.4408, 65.05273
349.9229, 49.63770
350.4051, 35.88965
350.8872, 13.00781
351.3693, 3.064453
351.8514, 35.04590
352.3335, 86.32520
352.8156, 102.5361
353.2978, 58.70117
353.7799, 12.54297
354.2620, 45.68750
354.7441, 8.058594
355.2262, 15.19238
355.7083, 12.81445
356.1905, 3.379883
356.6726, 1.317383
357.1547, 8.030273
357.6368, 16.39941
358.1189, 18.93164
358.6010, 14.87500
359.0832, 17.30176
359.5653, 37.05469
360.0474, 51.83984
360.5295, 48.42578
361.0116, 37.76172
361.4937, 40.00586
361.9759, 66.94531
362.4580, 103.0352
362.9401, 112.2656
363.4222, 85.61719
363.9043, 56.25879
364.3864, 17.52246
364.8686, 12.53027
365.3507, 15.12891
365.8328, 10.16895
366.3149, 36.30273
366.7970, 36.56250
367.2791, 16.60449
367.7613, 8.081055
368.2434, 14.83594
368.7255, 30.91309
369.2076, 57.33594
369.6897, 89.66602
370.1718, 117.8818
370.6540, 147.1611
371.1361, 164.9668
371.6182, 151.9580
372.1003, 112.0156
372.5824, 74.74609
373.0645, 52.29395
373.5467, 41.26367
374.0288, 32.83496
374.5109, 24.76270
374.9930, 23.66211
375.4751, 35.39746
375.9572, 53.19727
376.4394, 71.55566
376.9215, 88.62109
377.4036, 98.39453
377.8857, 92.10449
378.3678, 65.29199
378.8499, 59.31445
379.3321, 92.82715
379.8142, 122.1797
380.2963, 132.4346
380.7784, 126.6719
381.2605, 110.3281
381.7426, 85.47949
382.2248, 56.58984
382.7069, 40.36230
383.1890, 46.59082
383.6711, 47.00684
384.1532, 27.23047
384.6353, 9.098633
385.1175, 10.35352
385.5996, 31.78809
386.0817, 58.95801
386.5638, 80.68066
387.0459, 96.99219
387.5280, 108.9307
388.0102, 118.4756
388.4923, 120.1143
388.9744, 97.71582
389.4565, 64.82324
389.9386, 57.52734
390.4207, 97.03027
390.9029, 147.1016
391.3850, 169.5332
391.8671, 164.2979
392.3492, 150.5156
392.8313, 133.5303
393.3134, 119.1270
393.7956, 119.7129
394.2777, 137.8623
394.7598, 143.4932
395.2419, 113.0430
395.7240, 75.86523
396.2061, 64.16309
396.6883, 80.19336
397.1704, 107.0186
397.6525, 133.8965
398.1346, 159.2705
398.6167, 165.7344
399.0988, 134.6240
399.5810, 110.2529
400.0631, 111.7988
400.5452, 125.1348
401.0273, 130.1230
401.5094, 118.0615
401.9915, 99.05859
402.4737, 89.54980
402.9558, 92.30566
403.4379, 96.27832
403.9200, 102.0645
404.4021, 108.3906
404.8842, 115.6230
405.3664, 122.6729
405.8485, 127.4893
406.3306, 129.2090
406.8127, 127.5225
407.2948, 118.1006
407.7769, 95.48828
408.2591, 86.29102
408.7412, 122.9951
409.2233, 166.1416
409.7054, 165.1416
410.1875, 104.2324
410.6696, 51.28418
411.1518, 59.85352
411.6339, 103.0762
412.1160, 121.4785
412.5981, 107.1660
413.0802, 87.80762
413.5623, 90.14062
414.0445, 114.5840
414.5266, 127.8047
415.0087, 122.4521
415.4908, 114.2900
415.9729, 110.4316
416.4550, 109.1562
416.9372, 105.8887
417.4193, 98.41895
417.9014, 90.07031
418.3835, 88.73340
418.8656, 107.7363
419.3477, 108.1162
419.8299, 69.60449
420.3120, 32.37012
420.7941, 24.96094
421.2762, 42.57031
421.7583, 59.46582
422.2404, 55.42090
422.7226, 34.18359
423.2047, 18.04199
423.6868, 6.052734
424.1689, 6.108887
424.6510, 37.33838
425.1331, 72.79785
425.6153, 83.69092
426.0974, 63.18555
426.5795, 37.09033
427.0616, 21.45410
427.5437, 15.89355
428.0258, 21.91357
428.5080, 43.42871
428.9901, 62.45020
429.4722, 58.14551
429.9543, 34.30859
430.4364, 25.18066
430.9185, 42.04297
431.4007, 64.88477
431.8828, 82.76709
432.3649, 97.98730
432.8470, 120.9585
433.3291, 157.0098
433.8112, 189.6699
434.2934, 186.9932
434.7755, 128.6099
435.2576, 78.35010
435.7397, 25.95947
436.2218, 10.56055
436.7039, 13.54785
437.1861, 9.437988
437.6682, 35.44287
438.1503, 48.74805
438.6324, 54.63232
439.1145, 74.79639
439.5966, 122.7896
440.0788, 150.0239
440.5609, 118.7324
441.0430, 76.51172
441.5251, 62.74902
442.0072, 82.35156
442.4893, 104.3286
442.9715, 110.4917
443.4536, 104.9038
443.9357, 95.26221
444.4178, 82.03516
444.8999, 63.51709
445.3820, 31.99121
445.8642, 5.837402
446.3463, 20.69629
446.8284, 7.510742
447.3105, 33.29004
447.7926, 34.85791
448.2747, 25.22314
448.7569, 24.97266
449.2390, 39.40674
449.7211, 56.31055
450.2032, 59.58984
450.6853, 45.13379
451.1674, 40.54053
451.6496, 61.00586
452.1317, 74.68213
452.6138, 63.62988
453.0959, 40.20752
453.5780, 25.46729
454.0602, 29.40967
454.5423, 42.24707
455.0244, 46.53467
455.5065, 39.95459
455.9886, 45.83154
456.4707, 83.13037
456.9529, 117.3574
457.4350, 118.7041
457.9171, 92.97461
458.3992, 70.81689
458.8813, 62.23193
459.3634, 64.18945
459.8456, 79.84229
460.3277, 106.1348
460.8098, 120.1406
461.2919, 107.8389
461.7740, 83.45264
462.2561, 78.94727
462.7383, 106.8286
463.2204, 126.1968
463.7025, 131.6826
464.1846, 126.5669
464.6667, 109.1465
465.1488, 83.61914
465.6310, 60.12891
466.1131, 45.19580
466.5952, 38.83984
467.0773, 40.92334
467.5594, 57.45752
468.0415, 70.72998
468.5237, 74.89355
469.0058, 77.44336
469.4879, 87.90479
469.9700, 105.3677
470.4521, 116.7847
470.9342, 109.6729
471.4164, 90.37061
471.8985, 73.70654
472.3806, 57.33887
472.8627, 51.00488
473.3448, 66.55176
473.8269, 95.67139
474.3091, 114.5815
474.7912, 118.6621
475.2733, 120.9712
475.7554, 127.8618
476.2375, 134.7598
476.7196, 132.6035
477.2018, 121.1606
477.6839, 114.4819
478.1660, 129.0308
478.6481, 162.9590
479.1302, 173.3672
479.6123, 129.7388
480.0945, 97.84521
480.5766, 97.38184
481.0587, 110.5093
481.5408, 114.9155
482.0229, 105.0122
482.5050, 96.15088
482.9872, 111.4424
483.4693, 148.2881
483.9514, 165.8037
484.4335, 154.8804
484.9156, 139.1709
485.3977, 135.3296
485.8799, 136.1328
486.3620, 127.7490
486.8441, 98.79248
487.3262, 76.12744
487.8083, 83.92969
488.2904, 108.6123
488.7726, 121.0762
489.2547, 114.2383
489.7368, 103.7026
490.2189, 107.3721
490.7010, 127.6055
491.1831, 134.7925
491.6653, 120.1021
492.1474, 104.5195
492.6295, 93.30029
493.1116, 85.21240
493.5937, 78.81738
494.0758, 73.22070
494.5580, 67.56885
495.0401, 60.46338
495.5222, 51.07471
496.0043, 43.40479
496.4864, 34.82959
496.9685, 32.48535
497.4507, 43.80908
497.9328, 63.16211
498.4149, 81.44043
498.8970, 101.2559
499.3791, 110.8081
499.8612, 93.36914
500.3434, 59.24121
500.8255, 33.78320
501.3076, 23.13525
501.7897, 21.84131
502.2718, 26.25488
502.7539, 37.58301
503.2361, 39.13574
503.7182, 14.50684
504.2003, 1.183105
504.6824, 14.54541
505.1645, 43.88477
505.6466, 62.12451
506.1288, 61.53516
506.6109, 56.02100
507.0930, 68.65820
507.5751, 101.5532
508.0572, 109.1689
508.5393, 72.91504
509.0215, 38.66602
509.5036, 37.84668
509.9857, 53.25098
510.4678, 54.06445
510.9499, 24.67871
511.4320, 1.125000
511.9142, 7.583008
512.3963, 36.92676
512.8784, 55.89062
513.3605, 58.14893
513.8427, 50.49609
514.3248, 37.89941
514.8069, 20.17236
515.2890, 6.299316
515.7711, 4.008301
516.2532, 10.97314
516.7354, 13.57812
517.2175, 13.33936
517.6996, 11.01611
518.1817, 7.153809
518.6638, 3.753418
519.1459, 2.324219
519.6281, 3.027344
520.1102, 9.779785
520.5923, 28.23389
521.0744, 40.18359
521.5565, 29.63232
522.0386, 9.841797
522.5208, 2.088379
523.0029, 2.626465
523.4850, 0.1123050
523.9671, 3.480469
524.4492, 6.450195
524.9313, 3.433594
525.4135, 5.346191
525.8956, 8.538574
526.3777, 4.109863
526.8598, 28.93457
527.3419, 42.01074
527.8240, 32.30420
528.3062, 24.56689
528.7883, 29.06543
529.2704, 30.23145
529.7525, 9.595215
530.2346, 30.19629
530.7167, 66.10498
531.1989, 81.39697
531.6810, 79.54248
532.1631, 66.60938
532.6452, 38.96143
533.1273, 23.05713
533.6094, 39.10742
534.0916, 63.08643
534.5737, 55.10547
535.0558, 9.135742
535.5379, 18.01318
536.0200, 3.554688
536.5021, 39.06934
536.9843, 64.61621
537.4664, 77.07471
537.9485, 72.00977
538.4306, 45.77344
538.9127, 11.04932
539.3948, 2.699707
539.8770, 12.61133
540.3591, 29.20215
540.8412, 60.73340
541.3233, 80.12305
541.8054, 62.25781
542.2875, 22.73389
542.7697, 0.6025390
543.2518, 14.97949
543.7339, 41.16162
544.2160, 38.86133
544.6981, 14.43848
545.1802, 5.275879
545.6624, 22.00293
546.1445, 50.06982
546.6266, 79.23242
547.1087, 109.2109
547.5908, 121.4341
548.0729, 104.3853
548.5551, 83.65283
549.0372, 61.73389
549.5193, 43.98145
550.0014, 37.06787
550.4835, 42.49170
550.9656, 57.13818
551.4478, 80.04053
551.9299, 110.5054
552.4120, 136.9136
552.8941, 164.2021
553.3762, 176.7622
553.8583, 150.4697
554.3405, 113.6768
554.8226, 98.68018
555.3047, 111.5083
555.7868, 129.7217
556.2689, 145.7920
556.7510, 159.0903
557.2332, 172.4175
557.7153, 183.7832
558.1974, 178.6104
558.6795, 144.8384
559.1616, 97.04932
559.6437, 77.23633
560.1259, 103.4341
560.6080, 126.7725
561.0901, 149.1118
561.5722, 166.3530
562.0543, 175.0200
562.5364, 177.3159
563.0186, 176.4653
563.5007, 171.3984
563.9828, 169.0552
564.4649, 185.1753
564.9470, 216.8726
565.4291, 235.7217
565.9113, 234.4321
566.3934, 220.5244
566.8755, 194.9487
567.3576, 158.6025
567.8397, 145.3838
568.3218, 176.3550
568.8040, 205.1670
569.2861, 211.0952
569.7682, 207.8647
570.2503, 214.6924
570.7324, 234.2725
571.2145, 251.3906
571.6967, 248.9199
572.1788, 229.5781
572.6609, 218.7266
573.1430, 220.0161
573.6251, 219.6899
574.1072, 205.7964
574.5894, 192.5283
575.0715, 200.6533
575.5536, 233.6567
576.0357, 253.7178
576.5178, 233.5684
576.9999, 202.8965
577.4821, 189.3091
577.9642, 191.3091
578.4463, 200.6167
578.9284, 215.1538
579.4105, 227.6118
579.8926, 217.7485
580.3748, 166.9673
580.8569, 148.4736
581.3390, 193.0840
581.8211, 239.9116
582.3032, 273.5024
582.7853, 293.7368
583.2675, 300.2041
583.7496, 290.9985
584.2317, 274.7881
584.7138, 252.0781
585.1959, 228.6138
585.6780, 222.1060
586.1602, 234.7539
586.6422, 247.0586
587.1243, 244.1133
587.6064, 232.4688
588.0886, 235.3540
588.5707, 280.7397
589.0528, 300.5186
589.5349, 263.4570
590.0170, 223.0239
590.4991, 223.6616
590.9813, 257.3364
591.4634, 286.8696
591.9455, 290.0679
592.4276, 277.0200
592.9097, 263.0005
593.3918, 247.4829
593.8740, 234.0166
594.3561, 220.7080
594.8382, 212.0254
595.3203, 211.7046
595.8024, 220.0454
596.2845, 235.3828
596.7667, 272.1392
597.2488, 298.3975
597.7309, 297.9355
598.2130, 284.5425
598.6951, 270.2686
599.1772, 259.6191
599.6594, 259.5889
600.1415, 281.6274
600.6236, 316.8027
601.1057, 320.4668
601.5878, 281.5645
602.0699, 256.9800
602.5521, 271.6387
603.0342, 300.6943
603.5163, 317.4111
603.9984, 322.2363
604.4805, 327.0078
604.9626, 332.4609
605.4448, 340.5146
605.9269, 360.3179
606.4090, 381.9429
606.8911, 384.0132
607.3732, 360.5898
607.8553, 328.0366
608.3375, 304.3730
608.8196, 289.6226
609.3017, 288.9580
609.7838, 313.9121
610.2659, 331.7402
610.7480, 322.3325
611.2302, 305.2686
611.7123, 303.2046
612.1944, 319.0894
612.6765, 325.3403
613.1586, 292.3276
613.6407, 256.9971
614.1229, 267.1973
614.6050, 309.9858
615.0871, 335.8457
615.5692, 323.2388
616.0513, 295.1328
616.5334, 289.3613
617.0156, 312.2393
617.4977, 322.4780
617.9798, 308.8530
618.4619, 296.4604
618.9440, 295.0986
619.4261, 298.8647
619.9083, 300.0352
620.3904, 296.7847
620.8725, 294.4209
621.3546, 294.3057
621.8367, 298.2422
622.3188, 310.7866
622.8010, 330.5010
623.2831, 350.1099
623.7652, 366.7944
624.2473, 377.8691
624.7294, 377.5479
625.2115, 363.1333
625.6937, 346.3647
626.1758, 313.3818
626.6579, 292.8228
627.1400, 304.5869
627.6221, 331.4224
628.1042, 346.8921
628.5864, 343.2651
629.0685, 335.8989
629.5506, 338.4360
630.0327, 344.3203
630.5148, 338.8188
630.9969, 322.1240
631.4791, 308.7163
631.9612, 307.1914
632.4433, 312.7334
632.9254, 313.2056
633.4075, 303.9570
633.8896, 300.8628
634.3718, 313.1211
634.8539, 321.3989
635.3360, 311.4585
635.8181, 293.5005
636.3002, 285.8267
636.7823, 296.5293
637.2645, 307.2358
637.7466, 296.9448
638.2287, 276.2754
638.7108, 266.8472
639.1929, 270.3442
639.6750, 267.8296
640.1572, 245.1709
640.6393, 217.0342
641.1214, 220.6343
641.6035, 281.9351
642.0856, 315.5059
642.5677, 308.6157
643.0499, 288.7598
643.5320, 256.9336
644.0141, 224.0049
644.4962, 208.4556
644.9783, 218.7979
645.4604, 233.1133
645.9426, 229.6592
646.4247, 217.9800
646.9068, 215.6738
647.3889, 224.4111
647.8710, 242.4092
648.3531, 270.0938
648.8353, 302.1768
649.3174, 327.3003
649.7995, 345.9106
650.2816, 347.5166
650.7637, 322.9082
651.2458, 294.4951
651.7280, 264.2939
652.2101, 238.4097
652.6922, 226.9131
653.1743, 233.9536
653.6564, 240.3340
654.1385, 224.7559
654.6207, 201.9712
655.1028, 199.1948
655.5849, 216.5669
656.0670, 237.6265
656.5491, 255.2417
657.0313, 267.3643
657.5134, 267.9380
657.9955, 250.3394
658.4776, 237.2144
658.9597, 236.5928
659.4418, 233.2236
659.9240, 220.1387
660.4061, 202.2808
660.8882, 185.4609
661.3703, 169.9204
661.8524, 160.1577
662.3345, 165.4009
662.8167, 176.3296
663.2988, 179.8877
663.7809, 176.9585
664.2630, 174.9150
664.7451, 177.0308
665.2272, 180.4883
665.7094, 180.8369
666.1915, 177.6396
666.6736, 174.3052
667.1557, 173.5957
667.6378, 168.4321
668.1199, 145.3257
668.6021, 122.9800
669.0842, 128.5220
669.5663, 165.6035
670.0484, 190.9209
670.5305, 170.0088
671.0126, 141.7891
671.4948, 150.3276
671.9769, 180.6548
672.4590, 189.6475
672.9411, 163.5620
673.4232, 128.1270
673.9053, 115.4668
674.3875, 124.4482
674.8696, 124.1938
675.3517, 110.2397
675.8338, 98.06250
676.3159, 93.32275
676.7980, 92.01465
677.2802, 91.74561
677.7623, 92.29150
678.2444, 87.61914
678.7265, 69.36279
679.2086, 52.91895
679.6907, 47.41895
680.1729, 49.37793
680.6550, 56.19092
681.1371, 65.60254
681.6192, 70.19971
682.1013, 61.93994
682.5834, 44.94775
683.0656, 33.35791
683.5477, 27.27734
684.0298, 25.31299
684.5119, 27.50586
684.9940, 32.88818
685.4761, 41.20020
685.9583, 52.19775
686.4404, 63.31885
686.9225, 77.40527
687.4046, 87.74023
687.8867, 95.99316
688.3688, 97.24512
688.8510, 82.37549
689.3331, 55.37500
689.8152, 31.68848
690.2973, 21.16650
690.7794, 16.41455
691.2615, 1.700195
691.7437, 19.38623
692.2258, 17.98291
692.7079, 14.11230
693.1900, 38.89355
693.6721, 24.51758
694.1542, 14.91553
694.6364, 27.17236
695.1185, 24.64795
695.6006, 45.21777
696.0827, 3.215332
696.5648, 38.16211
697.0469, 40.57666
697.5291, 18.89160
698.0112, 5.012207
698.4933, 10.51123
698.9754, 17.11572
699.4575, 9.206055
699.9396, 6.865234
700.4218, 25.23584
700.9039, 42.86475
701.3860, 43.31006
701.8681, 16.96582
702.3502, 17.66406
702.8323, 26.65430
703.3145, 3.677246
703.7966, 6.079102
704.2787, 1.741699
704.7608, 16.20996
705.2429, 38.12500
705.7250, 61.79053
706.2072, 86.83887
706.6893, 113.5654
707.1714, 115.3550
707.6535, 55.87695
708.1356, 5.580078
708.6177, 24.66211
709.0999, 15.09961
709.5820, 0.7094730
710.0641, 15.14600
710.5462, 24.18506
711.0283, 23.24756
711.5104, 14.47705
711.9926, 4.619629
712.4747, 7.058105
712.9568, 13.42236
713.4389, 12.94873
713.9210, 5.805176
714.4031, 13.24365
714.8853, 41.63916
715.3674, 50.43604
715.8495, 22.60059
716.3316, 0.9116210
716.8137, 16.25586
717.2958, 21.94678
717.7780, 8.030762
718.2601, 16.36133
718.7422, 25.46582
719.2243, 3.457031
719.7064, 24.44629
720.1885, 26.14258
720.6707, 12.32910
721.1528, 13.47998
721.6349, 32.19385
722.1170, 53.92920
722.5991, 72.02832
723.0812, 83.02930
723.5634, 76.74316
724.0455, 42.94434
724.5276, 27.43896
725.0097, 38.99463
725.4918, 57.74609
725.9739, 87.41016
726.4561, 113.9771
726.9382, 115.3110
727.4203, 87.57178
727.9024, 66.65674
728.3845, 73.79297
728.8666, 85.77539
729.3488, 83.30420
729.8309, 73.20752
730.3130, 70.01758
730.7951, 76.88623
731.2772, 84.53662
731.7593, 82.65674
732.2415, 75.99072
732.7236, 83.23047
733.2057, 105.6904
733.6878, 122.2812
734.1699, 127.8682
734.6520, 126.2769
735.1342, 115.2349
735.6163, 98.07910
736.0984, 105.5088
736.5805, 169.7568
737.0626, 210.8022
737.5447, 204.3311
738.0269, 188.8774
738.5090, 188.9492
738.9911, 200.7568
739.4732, 209.9414
739.9553, 210.5786
740.4374, 210.7168
740.9196, 217.6353
741.4017, 228.3394
741.8838, 240.2129
742.3659, 251.8271
742.8480, 255.4673
743.3301, 247.1333
743.8123, 239.3276
744.2944, 254.4229
744.7765, 293.8579
745.2586, 315.1553
745.7407, 312.1865
746.2228, 307.0356
746.7050, 308.0044
747.1871, 309.3354
747.6692, 298.4307
748.1513, 276.1162
748.6334, 275.0420
749.1155, 318.1582
749.5977, 357.6899
750.0798, 373.3271
750.5619, 383.5210
751.0440, 411.0420
751.5261, 450.1558
752.0082, 469.7998
752.4904, 448.7847
752.9725, 419.7363
753.4546, 419.2656
753.9367, 437.9404
754.4188, 453.1426
754.9009, 463.9912
755.3831, 471.2676
755.8652, 472.9517
756.3473, 473.2466
756.8294, 485.7319
757.3115, 517.2026
757.7936, 536.6992
758.2758, 529.6118
758.7579, 531.7373
759.2400, 568.9878
759.7221, 616.6011
760.2042, 645.9492
760.6863, 656.0869
761.1685, 661.9321
761.6506, 660.1636
762.1327, 659.5015
762.6148, 666.4434
763.0969, 675.9424
763.5790, 683.4365
764.0612, 687.0229
764.5433, 682.7949
765.0254, 665.2598
765.5075, 651.0068
765.9896, 665.9653
766.4717, 701.6094
766.9539, 731.1909
767.4360, 750.0562
767.9181, 761.6294
768.4002, 767.6919
768.8823, 770.5259
769.3644, 774.5918
769.8466, 778.0059
770.3287, 789.0601
770.8108, 816.4824
771.2929, 838.6348
771.7750, 834.6836
772.2571, 825.1953
772.7393, 844.2930
773.2214, 899.9780
773.7035, 933.8379
774.1856, 910.6938
774.6677, 880.2690
775.1498, 860.3013
775.6320, 856.0723
776.1141, 882.1636
776.5962, 933.6338
777.0783, 974.5879
777.5604, 973.6802
778.0425, 954.6431
778.5247, 955.7417
779.0068, 972.9531
779.4889, 992.5469
779.9710, 1012.211
780.4531, 1023.134
780.9352, 1018.773
781.4174, 1003.487
781.8995, 985.6235
782.3816, 958.7451
782.8637, 953.9331
783.3458, 981.0776
783.8279, 1015.375
784.3101, 1055.729
784.7922, 1091.704
785.2743, 1107.976
785.7564, 1102.520
786.2385, 1095.144
786.7206, 1083.822
787.2028, 1077.603
787.6849, 1081.664
788.1670, 1092.176
788.6491, 1106.682
789.1312, 1123.297
789.6133, 1138.097
790.0955, 1148.926
790.5776, 1156.623
791.0597, 1163.440
791.5418, 1167.690
792.0239, 1163.122
792.5060, 1150.247
792.9882, 1138.836
793.4703, 1134.668
793.9524, 1133.763
794.4345, 1125.812
794.9166, 1108.711
795.3987, 1112.936
795.8809, 1150.608
796.3630, 1174.462
796.8451, 1161.397
797.3272, 1131.521
797.8093, 1106.907
798.2914, 1087.573
798.7736, 1076.804
799.2557, 1083.009
799.7378, 1086.351
800.2199, 1078.080
800.7020, 1068.789
801.1841, 1067.899
801.6663, 1073.813
802.1484, 1080.043
802.6305, 1085.728
803.1126, 1086.587
803.5947, 1075.316
804.0768, 1060.205
804.5590, 1051.052
805.0411, 1047.914
805.5232, 1047.883
806.0053, 1049.839
806.4874, 1054.889
806.9695, 1069.571
807.4517, 1088.086
807.9338, 1078.591
808.4159, 1040.503
808.8980, 1011.901
809.3801, 1004.646
809.8622, 1002.234
810.3444, 987.8579
810.8265, 965.1602
811.3086, 958.1440
811.7907, 982.1025
812.2728, 990.4219
812.7549, 963.0786
813.2371, 938.1274
813.7192, 945.5928
814.2013, 963.6201
814.6834, 952.8784
815.1655, 904.3164
815.6476, 854.1113
816.1298, 795.1309
816.6119, 755.5562
817.0940, 764.3477
817.5761, 795.9668
818.0582, 821.3389
818.5403, 832.3330
819.0225, 825.6602
819.5046, 789.9888
819.9867, 749.6045
820.4688, 741.3838
820.9509, 749.9238
821.4330, 736.6001
821.9152, 698.9692
822.3973, 655.6050
822.8794, 616.1377
823.3615, 589.6201
823.8436, 605.8721
824.3257, 665.0254
824.8079, 662.8413
825.2900, 583.1196
825.7721, 520.8496
826.2542, 517.6060
826.7363, 533.1777
827.2184, 517.5903
827.7006, 471.2993
828.1827, 445.9907
828.6648, 465.4150
829.1469, 470.0508
829.6290, 436.7124
830.1111, 403.7358
830.5933, 398.1567
831.0754, 410.1187
831.5575, 415.6670
832.0396, 410.1421
832.5217, 399.0234
833.0038, 375.7598
833.4860, 355.8896
833.9681, 360.9849
834.4502, 373.1250
834.9323, 357.2988
835.4144, 310.0303
835.8965, 269.1997
836.3787, 270.4736
836.8608, 282.7656
837.3429, 256.8818
837.8250, 209.2651
838.3071, 184.0117
838.7892, 185.7402
839.2714, 191.1216
839.7535, 186.0259
840.2356, 177.0664
840.7177, 180.6401
841.1998, 196.1963
841.6819, 188.2168
842.1641, 151.5986
842.6462, 118.1104
843.1283, 99.47852
843.6104, 88.94336
844.0925, 79.01709
844.5746, 69.62549
845.0568, 61.54297
845.5389, 48.12939
846.0210, 47.19775
846.5031, 74.33398
846.9852, 100.9604
847.4673, 111.4058
847.9495, 109.6328
848.4316, 105.3345
848.9137, 101.6484
849.3958, 87.49902
849.8779, 43.70410
850.3600, 6.761230
850.8422, 2.917480
851.3243, 14.86133
851.8064, 20.57910
852.2885, 16.55859
852.7706, 9.662109
853.2527, 1.302734
853.7349, 4.613281
854.2170, 1.287598
854.6991, 5.580078
855.1812, 4.584961
855.6633, 2.412109
856.1454, 2.540527
856.6276, 10.29248
857.1097, 25.85693
857.5918, 31.07129
858.0739, 27.95410
858.5560, 21.93945
859.0381, 13.55713
859.5203, 12.44238
860.0024, 22.04395
860.4845, 30.31006
860.9666, 25.58789
861.4487, 11.48242
861.9308, 1.757813
862.4130, 5.396484
862.8951, 2.212891
863.3772, 33.02441
863.8593, 62.28320
864.3414, 81.54639
864.8235, 87.89258
865.3057, 71.83789
865.7878, 26.07422
866.2699, 0.6054690
866.7520, 7.617676
867.2341, 17.87842
867.7162, 30.04590
868.1984, 39.71338
868.6805, 42.21191
869.1626, 39.37744
869.6447, 36.73242
870.1268, 32.91602
870.6089, 35.89160
871.0911, 52.76465
871.5732, 73.33545
872.0553, 97.60303
872.5374, 117.3086
873.0195, 116.1201
873.5016, 93.31689
873.9838, 74.02783
874.4659, 76.79297
874.9480, 85.77881
875.4301, 85.66064
875.9122, 81.24170
876.3943, 78.82324
876.8765, 80.04346
877.3586, 88.80225
877.8407, 107.7681
878.3228, 127.3208
878.8049, 131.8232
879.2870, 125.1484
879.7692, 124.5806
880.2513, 129.4771
880.7334, 123.9277
881.2155, 103.5020
881.6976, 90.72021
882.1797, 107.0029
882.6619, 141.2007
883.1440, 156.0586
883.6261, 149.1416
884.1082, 145.9692
884.5903, 148.1128
885.0724, 153.5664
885.5546, 162.7612
886.0367, 174.0249
886.5188, 185.2739
887.0009, 196.9609
887.4830, 201.7734
887.9651, 200.5142
888.4473, 192.7607
888.9294, 162.4907
889.4115, 139.1528
889.8936, 150.1548
890.3757, 181.8647
890.8578, 200.5142
891.3400, 200.0562
891.8221, 202.9644
892.3042, 219.7349
892.7863, 229.7104
893.2684, 213.5962
893.7505, 194.0093
894.2327, 200.5439
894.7148, 229.5352
895.1969, 246.0850
895.6790, 232.3516
896.1611, 214.7397
896.6432, 201.9824
897.1254, 194.0874
897.6075, 194.5249
898.0896, 199.6885
898.5717, 200.9810
899.0538, 195.9473
899.5359, 192.5952
900.0181, 201.6660
900.5002, 211.8154
900.9823, 205.1489
901.4644, 191.2559
901.9465, 190.2871
902.4286, 202.7070
902.9108, 213.9285
903.3929, 215.2349
903.8750, 211.0837
904.3571, 204.5447
904.8392, 198.1475
905.3214, 199.2554
905.8035, 205.8521
906.2856, 206.1777
906.7677, 197.3369
907.2498, 185.4082
907.7319, 174.1602
908.2141, 165.5796
908.6962, 165.4956
909.1783, 173.9810
909.6604, 188.0828
910.1425, 209.3625
910.6246, 220.3105
911.1068, 211.8508
911.5889, 193.7891
912.0710, 178.3022
912.5531, 165.3264
913.0352, 157.9214
913.5173, 156.7407
913.9995, 160.4153
914.4816, 175.0193
914.9637, 181.3118
915.4458, 161.4045
915.9279, 128.9392
916.4100, 115.1174
916.8922, 125.5093
917.3743, 131.9399
917.8564, 133.1824
918.3385, 132.2805
918.8206, 130.0962
919.3027, 125.8901
919.7849, 116.2690
920.2670, 103.8450
920.7491, 98.47583
921.2312, 106.1401
921.7133, 109.5688
922.1954, 106.0317
922.6776, 97.83374
923.1597, 78.86499
923.6418, 60.35083
924.1239, 59.72681
924.6060, 75.11694
925.0881, 79.97266
925.5703, 57.13232
926.0524, 35.87427
926.5345, 30.41357
927.0166, 29.14233
927.4987, 19.18872
927.9808, 7.631348
928.4630, 12.27271
928.9451, 36.14868
929.4272, 54.48999
929.9093, 52.84033
930.3914, 40.47656
930.8735, 14.80713
931.3557, 10.98755
931.8378, 17.29907
932.3199, 7.692871
932.8020, 1.459473
933.2841, 3.520020
933.7662, 2.879639
934.2484, 3.899902
934.7305, 4.055176
935.2126, 3.395508
935.6947, 13.48633
936.1768, 13.66943
936.6589, 3.864502
937.1411, 5.446045
937.6232, 8.481445
938.1053, 4.608643
938.5874, 11.82349
939.0695, 33.59180
939.5516, 42.90869
940.0338, 41.57886
940.5159, 41.38745
940.9980, 45.27490
941.4801, 46.44849
941.9622, 38.77466
942.4443, 26.86914
942.9265, 20.14404
943.4086, 17.76978
943.8907, 14.04810
944.3728, 9.049805
944.8549, 12.85522
945.3370, 29.92188
945.8192, 46.53687
946.3013, 48.16211
946.7834, 37.39844
947.2655, 20.99390
947.7476, 1.025146
948.2297, 7.054932
948.7119, 7.155518
949.1940, 18.82007
949.6761, 16.35669
950.1582, 8.410889
950.6403, 8.111328
951.1224, 14.01709
951.6046, 4.512451
952.0867, 25.37061
952.5688, 38.58691
953.0509, 24.56689
953.5330, 9.661377
954.0151, 10.15991
954.4973, 19.28125
954.9794, 24.39185
955.4615, 25.01465
955.9436, 29.33765
956.4257, 39.91431
956.9078, 46.35571
957.3900, 46.06372
957.8721, 41.81567
958.3542, 33.81274
958.8363, 24.10693
959.3184, 17.15991
959.8005, 10.15430
960.2827, 19.20898
960.7648, 62.06934
961.2469, 87.20483
961.7290, 65.97754
962.2111, 40.46680
962.6932, 51.06128
963.1754, 86.59375
963.6575, 100.9055
964.1396, 77.88232
964.6217, 70.10229
965.1038, 92.45093
965.5859, 110.5166
966.0681, 105.8770
966.5502, 98.13721
967.0323, 111.1870
967.5144, 139.4858
967.9965, 149.9365
968.4786, 126.5850
968.9608, 111.7747
969.4429, 114.9204
969.9250, 118.3931
970.4071, 112.1404
970.8892, 104.5139
971.3713, 106.3413
971.8535, 117.0142
972.3356, 125.0242
972.8177, 125.6885
973.2998, 128.3892
973.7819, 136.9739
974.2640, 145.1465
974.7462, 148.3936
975.2283, 150.1516
975.7104, 153.8503
976.1925, 159.9675
976.6746, 170.9009
977.1567, 199.2434
977.6389, 215.3120
978.1210, 202.6555
978.6031, 185.1416
979.0852, 171.6470
979.5673, 166.3689
980.0494, 178.9441
980.5316, 209.1995
981.0137, 227.4746
981.4958, 214.0872
981.9779, 204.0264
982.4600, 211.4260
982.9421, 222.9492
983.4243, 230.7356
983.9064, 234.9095
984.3885, 236.2698
984.8706, 235.0464
985.3527, 235.1195
985.8348, 240.7766
986.3170, 243.9353
986.7991, 235.1694
987.2812, 228.2101
987.7633, 236.4630
988.2454, 254.2911
988.7275, 272.3854
989.2097, 288.3750
989.6918, 292.7175
990.1739, 269.6129
990.6560, 250.7072
991.1381, 254.8452
991.6202, 265.8385
992.1024, 270.6666
992.5845, 270.5554
993.0666, 270.7767
993.5487, 272.3922
994.0308, 272.2615
994.5129, 260.1899
994.9951, 258.0803
995.4772, 292.1877
995.9593, 327.7489
996.4414, 327.4260
996.9235, 301.8688
997.4056, 282.2980
997.8878, 277.0068
998.3699, 274.9852
998.8520, 270.8315
999.3341, 268.9260
999.8162, 273.6847
1000.298, 281.4442
1000.780, 289.8357
1001.263, 296.9108
1001.745, 299.6530
1002.227, 297.1749
1002.709, 293.5726
1003.191, 288.9336
1003.673, 284.2175
1004.155, 279.9431
1004.637, 278.3727
1005.120, 285.3619
1005.602, 296.0498
1006.084, 294.6561
1006.566, 274.8916
1007.048, 262.8539
1007.530, 283.9596
1008.012, 301.0427
1008.494, 285.1241
1008.976, 261.1273
1009.459, 257.6759
1009.941, 268.6371
1010.423, 268.9983
1010.905, 250.9404
1011.387, 237.7585
1011.869, 249.9972
1012.351, 258.4463
1012.833, 237.8231
1013.315, 214.2728
1013.798, 216.0494
1014.280, 235.1024
1014.762, 247.3074
1015.244, 246.5779
1015.726, 247.0714
1016.208, 261.3508
1016.690, 268.6815
1017.172, 250.3878
1017.655, 228.8699
1018.137, 224.7012
1018.619, 235.0027
1019.101, 250.2723
1019.583, 268.7102
1020.065, 272.9653
1020.547, 243.8279
1021.029, 220.2891
1021.511, 225.9310
1021.994, 234.1466
1022.476, 218.9790
1022.958, 193.0782
1023.440, 183.3424
1023.922, 194.4456
1024.404, 204.7383
1024.886, 206.7439
1025.368, 210.5513
1025.851, 224.2804
1026.333, 235.4396
1026.815, 230.6884
1027.297, 219.1984
1027.779, 221.2345
1028.261, 240.1132
1028.743, 242.3555
1029.225, 198.9912
1029.708, 170.1720
1030.190, 181.2379
1030.672, 199.7344
1031.154, 209.6440
1031.636, 211.6892
1032.118, 205.7310
1032.600, 191.7117
1033.082, 184.4958
1033.564, 197.3608
1034.047, 200.4890
1034.529, 173.3585
1035.011, 152.7540
1035.493, 169.1178
1035.975, 197.9961
1036.457, 202.5121
1036.939, 182.4460
1037.421, 175.5410
1037.903, 202.1520
1038.386, 211.7820
1038.868, 185.9612
1039.350, 162.4347
1039.832, 156.7024
1040.314, 161.5348
1040.796, 171.9059
1041.278, 186.5267
1041.760, 191.5233
1042.243, 181.4971
1042.725, 171.7675
1043.207, 161.6449
1043.689, 153.8585
1044.171, 148.3995
1044.653, 147.3044
1045.135, 155.0692
1045.617, 168.7090
1046.099, 172.2583
1046.582, 160.1320
1047.064, 156.3131
1047.546, 165.0771
1048.028, 170.8539
1048.510, 169.2096
1048.992, 161.9824
1049.474, 148.7064
1049.956, 133.2076
1050.438, 128.3025
1050.921, 136.3521
1051.403, 140.2400
1051.885, 138.2788
1052.367, 135.3052
1052.849, 132.3900
1053.331, 130.6709
1053.813, 131.6167
1054.295, 132.0677
1054.778, 122.6652
1055.260, 103.8708
1055.742, 103.9421
1056.224, 123.8762
1056.706, 134.3772
1057.188, 129.1628
1057.670, 123.8267
1058.152, 128.3915
1058.635, 133.0068
1059.117, 119.3234
1059.599, 93.40613
1060.081, 84.45203
1060.563, 90.34656
1061.045, 98.43530
1061.527, 106.3667
1062.009, 110.4167
1062.491, 108.8113
1062.974, 103.4048
1063.456, 93.97852
1063.938, 84.66797
1064.420, 86.59009
1064.902, 96.33740
1065.384, 105.8330
1065.866, 113.0000
1066.348, 113.0610
1066.830, 105.0398
1067.313, 96.56958
1067.795, 93.87476
1068.277, 93.87231
1068.759, 92.32739
1069.241, 90.88159
1069.723, 95.30566
1070.205, 101.5715
1070.687, 97.11890
1071.170, 81.31714
1071.652, 68.76147
1072.134, 67.10767
1072.616, 69.44214
1073.098, 72.68262
1073.580, 74.05884
1074.062, 67.55713
1074.544, 59.10205
1075.026, 59.02759
1075.509, 66.44165
1075.991, 71.98047
1076.473, 72.54614
1076.955, 69.77783
1077.437, 58.79395
1077.919, 51.49097
1078.401, 60.15503
1078.883, 71.63062
1079.365, 71.47095
1079.848, 62.97778
1080.330, 57.38794
1080.812, 56.93286
1081.294, 57.70703
1081.776, 62.71460
1082.258, 64.31421
1082.740, 58.50537
1083.222, 48.61743
1083.704, 29.37646
1084.187, 10.68701
1084.669, 13.73926
1085.151, 40.98804
1085.633, 48.86206
1086.115, 17.01221
1086.597, 1.674316
1087.079, 16.88159
1087.561, 32.07715
1088.044, 33.78198
1088.526, 30.89136
1089.008, 33.79053
1089.490, 40.57056
1089.972, 41.09424
1090.454, 35.18604
1090.936, 21.05933
1091.418, 6.566406
1091.901, 19.28955
1092.383, 6.241455
1092.865, 15.04126
1093.347, 33.07007
1093.829, 44.39795
1094.311, 37.35742
1094.793, 13.21143
1095.275, 0.2587890
1095.757, 1.178223
1096.240, 0.5903320
1096.722, 3.604736
1097.204, 4.634277
1097.686, 1.555420
1098.168, 3.032715
1098.650, 6.549316
1099.132, 7.862549
1099.614, 2.566162
1100.096, 6.422363
1100.579, 12.52222
1101.061, 14.83936
1101.543, 12.30884
1102.025, 5.510742
1102.507, 1.505859
1102.989, 7.187256
1103.471, 14.22144
1103.953, 10.58936
1104.436, 5.070313
1104.918, 10.54297
1105.400, 22.81763
1105.882, 36.74341
1106.364, 48.55273
1106.846, 49.25513
1107.328, 33.03882
1107.810, 15.35400
1108.292, 1.345947
1108.775, 10.54150
1109.257, 1.718262
1109.739, 11.83105
1110.221, 16.89453
1110.703, 15.16626
1111.185, 12.44067
1111.667, 8.595215
1112.149, 12.51440
1112.631, 36.03394
1113.114, 52.29492
1113.596, 54.97192
1114.078, 49.52905
1114.560, 33.79102
1115.042, 16.22583
1115.524, 8.479248
1116.006, 10.04102
1116.488, 9.587891
1116.971, 1.663330
1117.453, 11.19702
1117.935, 48.70679
1118.417, 70.88159
1118.899, 60.30298
1119.381, 40.91382
1119.863, 27.36938
1120.345, 22.64331
1120.828, 34.32739
1121.310, 60.59741
1121.792, 65.46240
1122.274, 49.23633
1122.756, 40.19165
1123.238, 48.76758
1123.720, 55.27661
1124.202, 49.46851
1124.684, 42.91162
1125.167, 50.68921
1125.649, 63.58691
1126.131, 65.82446
1126.613, 61.88647
1127.095, 56.04810
1127.577, 47.35205
1128.059, 29.36963
1128.541, 4.042725
1129.023, 9.293457
1129.506, 5.760986
1129.988, 25.64185
1130.470, 34.25977
1130.952, 35.02783
1131.434, 34.64355
1131.916, 32.99072
1132.398, 28.82153
1132.880, 23.83716
1133.363, 21.22437
1133.845, 20.83643
1134.327, 18.88184
1134.809, 9.055664
1135.291, 7.121338
1135.773, 27.45996
1136.255, 48.40430
1136.737, 60.50024
1137.219, 64.48877
1137.702, 57.66772
1138.184, 40.29224
1138.666, 21.87402
1139.148, 2.907715
1139.630, 10.35400
1140.112, 5.062256
1140.594, 17.15796
1141.076, 13.84009
1141.558, 11.95044
1142.041, 18.63672
1142.523, 28.08545
1143.005, 27.16675
1143.487, 18.38989
1143.969, 25.58423
1144.451, 45.45605
1144.933, 49.47900
1145.415, 34.88452
1145.898, 26.34717
1146.380, 26.30273
1146.862, 32.34741
1147.344, 19.57935
1147.826, 3.349854
1148.308, 3.905273
1148.790, 12.57275
1149.272, 20.02905
1149.755, 24.31250
1150.237, 21.44336
1150.719, 11.89868
1151.201, 5.494385
1151.683, 7.003662
1152.165, 8.074219
1152.647, 0.0000000E+00
##END=



