##NAMES=Izoklakeite
##RRUFFID=R110044
##IDEAL CHEMISTRY=Pb^2+^_26.4_(Cu^1+^,Fe^2+^)_2_(Sb^3+^,Bi^3+^)_19.6_S^2-^_57_
##LOCALITY=Crabtree quarry, Wake County, North Carolina, USA
##OWNER=RRUFF
##SOURCE=Mark Feinglos
##DESCRIPTION=Lead-gray metallic aggregate of acicular crystals
##STATUS=The identification of this mineral has been confirmed only by single crystal X-ray diffraction.
##URL=rruff.info/R110044
201.3790, 0.0000000E+00
201.8611, 2.083069
202.3433, 3.765503
202.8254, 5.094147
203.3075, 5.126526
203.7896, 2.785797
204.2717, 4.8920002E-02
204.7538, 0.2724300
205.2360, 2.610382
205.7181, 5.370850
206.2002, 6.173584
206.6823, 4.710419
207.1644, 3.177338
207.6465, 1.259277
208.1287, 0.5074770
208.6108, 0.5854190
209.0929, 1.411804
209.5750, 3.999451
210.0571, 6.779327
210.5392, 10.34143
211.0214, 11.03220
211.5035, 7.016602
211.9856, 0.4196780
212.4677, 0.6836550
212.9498, 6.137909
213.4319, 13.02136
213.9141, 14.50150
214.3962, 8.355988
214.8783, 4.931824
215.3604, 5.849152
215.8425, 10.03241
216.3246, 13.37610
216.8067, 16.11624
217.2889, 17.62375
217.7710, 17.03482
218.2531, 13.01938
218.7352, 10.99210
219.2173, 12.29147
219.6994, 15.91394
220.1816, 16.75891
220.6637, 13.06189
221.1458, 9.617767
221.6279, 9.954681
222.1100, 16.32285
222.5921, 20.35434
223.0743, 20.49051
223.5564, 17.74829
224.0385, 16.98593
224.5206, 19.15689
225.0027, 21.85361
225.4848, 23.63724
225.9670, 24.22049
226.4491, 24.57257
226.9312, 24.65665
227.4133, 24.56290
227.8954, 24.64148
228.3775, 24.77640
228.8597, 25.27368
229.3418, 26.51590
229.8239, 29.31723
230.3060, 30.91068
230.7881, 30.65067
231.2702, 28.95764
231.7524, 27.76254
232.2345, 26.72504
232.7166, 26.66269
233.1987, 28.33829
233.6808, 33.09055
234.1629, 36.53104
234.6451, 37.88443
235.1272, 37.68359
235.6093, 38.32556
236.0914, 40.24185
236.5735, 42.40652
237.0556, 44.43048
237.5378, 46.99390
238.0199, 47.84695
238.5020, 46.07986
238.9841, 42.49991
239.4662, 40.50842
239.9483, 40.86688
240.4305, 41.79083
240.9126, 42.46112
241.3947, 43.19968
241.8768, 42.84628
242.3589, 40.29422
242.8410, 36.67914
243.3232, 36.36243
243.8053, 41.81909
244.2874, 47.17673
244.7695, 49.29337
245.2516, 46.53705
245.7337, 44.14737
246.2159, 41.99750
246.6980, 40.33200
247.1801, 40.06985
247.6622, 41.77103
248.1443, 44.00391
248.6264, 46.19550
249.1086, 48.66183
249.5907, 50.31085
250.0728, 50.80753
250.5549, 50.57352
251.0370, 50.76825
251.5191, 51.75235
252.0013, 52.59192
252.4834, 52.82233
252.9655, 52.14673
253.4476, 51.59473
253.9297, 50.79245
254.4118, 50.28873
254.8940, 51.63358
255.3761, 56.40332
255.8582, 60.23346
256.3403, 60.92923
256.8224, 57.12924
257.3046, 54.81482
257.7867, 54.76651
258.2688, 55.72556
258.7509, 55.09811
259.2330, 51.95032
259.7151, 48.92978
260.1973, 46.99689
260.6794, 46.39105
261.1615, 46.02441
261.6436, 45.96793
262.1257, 46.09250
262.6078, 46.25571
263.0900, 46.53336
263.5721, 46.78976
264.0542, 47.05057
264.5363, 47.36212
265.0184, 47.23856
265.5005, 46.28357
265.9827, 45.33948
266.4648, 45.95825
266.9469, 49.02148
267.4290, 51.08514
267.9111, 50.65930
268.3932, 47.51236
268.8754, 45.82889
269.3575, 45.99554
269.8396, 47.01251
270.3217, 47.94403
270.8038, 49.11963
271.2859, 48.82074
271.7681, 45.53461
272.2502, 39.48853
272.7323, 38.02756
273.2144, 42.64563
273.6965, 48.89734
274.1786, 52.16278
274.6608, 52.14594
275.1429, 50.72968
275.6250, 47.80444
276.1071, 43.73001
276.5892, 41.22424
277.0714, 40.62863
277.5535, 40.78470
278.0356, 40.85489
278.5177, 40.88480
278.9998, 40.31607
279.4819, 38.76474
279.9641, 36.56320
280.4462, 35.37213
280.9283, 35.35727
281.4104, 35.59775
281.8925, 35.55139
282.3746, 35.23032
282.8568, 33.95151
283.3389, 31.09680
283.8210, 27.64627
284.3031, 26.71310
284.7852, 28.57666
285.2673, 30.71008
285.7495, 31.35529
286.2316, 30.54938
286.7137, 28.95813
287.1958, 26.23529
287.6779, 23.50415
288.1600, 23.78763
288.6422, 27.27255
289.1243, 30.22784
289.6064, 29.64709
290.0885, 26.44263
290.5706, 24.45447
291.0527, 24.26285
291.5349, 25.04523
292.0170, 25.32805
292.4991, 25.27202
292.9812, 25.37108
293.4633, 26.42671
293.9454, 28.14465
294.4276, 28.40919
294.9097, 26.72253
295.3918, 24.83667
295.8739, 25.20724
296.3560, 27.42023
296.8381, 29.01042
297.3203, 28.11801
297.8024, 26.08394
298.2845, 25.73776
298.7666, 27.30070
299.2487, 29.09561
299.7308, 28.94899
300.2130, 27.45862
300.6951, 26.37851
301.1772, 26.91710
301.6593, 28.25206
302.1414, 29.35066
302.6235, 30.20990
303.1057, 30.03171
303.5878, 26.63983
304.0699, 21.91248
304.5520, 19.51001
305.0341, 22.16159
305.5162, 26.22835
305.9984, 27.83293
306.4805, 27.27629
306.9626, 26.57709
307.4447, 27.57512
307.9268, 29.12672
308.4089, 29.76033
308.8911, 28.46063
309.3732, 26.70457
309.8553, 25.04909
310.3374, 23.89232
310.8195, 24.01457
311.3016, 27.99365
311.7838, 32.36748
312.2659, 33.62636
312.7480, 29.72569
313.2301, 26.03894
313.7122, 26.23550
314.1943, 28.85306
314.6765, 30.87181
315.1586, 30.34979
315.6407, 29.02054
316.1228, 27.82147
316.6049, 26.90028
317.0870, 26.57874
317.5692, 27.23265
318.0513, 28.53618
318.5334, 30.03978
319.0155, 33.10953
319.4976, 35.03619
319.9797, 33.65913
320.4619, 28.45528
320.9440, 25.08331
321.4261, 26.54408
321.9082, 30.07248
322.3903, 33.05539
322.8724, 35.83211
323.3546, 37.09306
323.8367, 35.44141
324.3188, 31.05482
324.8009, 28.42348
325.2830, 30.12737
325.7651, 32.69685
326.2473, 33.88055
326.7294, 31.84528
327.2115, 30.28094
327.6936, 29.87656
328.1757, 30.36845
328.6578, 30.32317
329.1400, 28.82845
329.6221, 27.54393
330.1042, 27.27562
330.5863, 29.79539
331.0684, 30.36472
331.5505, 27.62315
332.0327, 23.15695
332.5148, 20.69650
332.9969, 22.06477
333.4790, 22.98216
333.9611, 21.92848
334.4432, 18.45529
334.9254, 14.69350
335.4075, 10.16174
335.8896, 5.773071
336.3717, 2.894791
336.8538, 1.977386
337.3359, 1.568512
337.8180, 1.137924
338.3001, 0.6940610
338.7823, 1.924377
339.2644, 5.668411
339.7465, 9.444656
340.2286, 10.69887
340.7107, 9.092590
341.1928, 6.841751
341.6750, 4.073914
342.1571, 1.103867
342.6392, 0.5814210
343.1213, 0.8926700
343.6034, 0.5331880
344.0855, 0.4949490
344.5677, 2.110764
345.0498, 2.037552
345.5319, 0.7076260
346.0140, 4.032486
346.4961, 2.990982
346.9782, 2.193848
347.4604, 6.306091
347.9425, 4.819473
348.4246, 0.3693080
348.9067, 1.579376
349.3888, 2.271606
349.8709, 6.711746
350.3531, 5.194092
350.8352, 0.6856080
351.3173, 4.974442
351.7994, 3.464630
352.2815, 0.6521910
352.7636, 1.616043
353.2458, 0.5738830
353.7279, 2.710220
354.2100, 1.307968
354.6921, 1.876923
355.1742, 3.789673
355.6563, 3.028702
356.1385, 1.123734
356.6206, 1.334732
357.1027, 4.024368
357.5848, 5.280792
358.0669, 2.539566
358.5490, 1.304291
359.0312, 3.286911
359.5133, 1.994873
359.9954, 0.6670070
360.4775, 1.357315
360.9596, 3.381851
361.4417, 5.276611
361.9239, 7.262360
362.4060, 8.347931
362.8881, 7.624649
363.3702, 4.604935
363.8523, 1.936234
364.3344, 0.7950590
364.8166, 0.3423310
365.2987, 0.3785170
365.7808, 3.108131
366.2629, 4.577751
366.7450, 3.386055
367.2271, 0.4506380
367.7093, 3.921494
368.1914, 7.986053
368.6735, 10.77608
369.1556, 11.02002
369.6377, 5.421188
370.1198, 1.341125
370.6020, 0.4363860
371.0841, 0.4300310
371.5662, 0.5516360
372.0483, 1.495682
372.5304, 1.718262
373.0125, 0.3967900
373.4947, 3.246384
373.9768, 6.262558
374.4589, 8.889999
374.9410, 10.72980
375.4231, 10.77182
375.9052, 8.087456
376.3874, 6.261208
376.8695, 6.830162
377.3516, 9.706688
377.8337, 10.75510
378.3158, 9.574257
378.7979, 7.733139
379.2801, 6.643669
379.7622, 6.303207
380.2443, 6.666214
380.7264, 8.168419
381.2085, 9.997574
381.6906, 9.578568
382.1728, 6.871277
382.6549, 4.187798
383.1370, 2.957130
383.6191, 3.033485
384.1012, 4.191872
384.5833, 6.695740
385.0655, 9.306946
385.5476, 10.16736
386.0297, 9.667900
386.5118, 9.199242
386.9939, 10.07411
387.4760, 11.11556
387.9582, 9.930695
388.4403, 6.439972
388.9224, 3.774567
389.4045, 5.093384
389.8866, 8.675018
390.3687, 12.19110
390.8509, 15.60468
391.3330, 17.88697
391.8151, 17.52346
392.2972, 15.14945
392.7793, 13.34576
393.2614, 14.33100
393.7436, 15.75892
394.2257, 15.70948
394.7078, 12.92770
395.1899, 10.92033
395.6720, 11.60421
396.1541, 13.72343
396.6363, 15.27408
397.1184, 15.02743
397.6005, 14.83546
398.0826, 15.61896
398.5647, 17.64606
399.0468, 18.56606
399.5290, 17.12983
400.0111, 15.05938
400.4932, 13.69523
400.9753, 13.20411
401.4574, 13.38381
401.9395, 15.09114
402.4217, 17.63512
402.9038, 17.47709
403.3859, 12.16866
403.8680, 7.430740
404.3501, 6.798149
404.8322, 12.07634
405.3144, 15.68183
405.7965, 17.23080
406.2786, 17.36482
406.7607, 16.96517
407.2428, 16.11683
407.7249, 15.63660
408.2071, 15.89891
408.6892, 16.67991
409.1713, 17.14281
409.6534, 17.73081
410.1355, 18.06196
410.6176, 16.85898
411.0998, 14.38613
411.5819, 12.89286
412.0640, 13.34980
412.5461, 14.75249
413.0282, 15.27367
413.5103, 15.02158
413.9925, 14.77392
414.4746, 15.57145
414.9567, 16.29588
415.4388, 14.82130
415.9209, 10.95680
416.4030, 7.787476
416.8852, 7.522209
417.3673, 9.222466
417.8494, 11.45547
418.3315, 14.79079
418.8136, 17.65575
419.2957, 19.10674
419.7779, 19.19016
420.2600, 18.35905
420.7421, 15.16036
421.2242, 12.10829
421.7063, 11.38153
422.1884, 15.31300
422.6706, 17.84453
423.1527, 16.20781
423.6348, 12.18427
424.1169, 9.451042
424.5990, 10.38259
425.0811, 11.35950
425.5633, 10.47867
426.0454, 7.059753
426.5275, 6.235390
427.0096, 10.09734
427.4917, 14.99396
427.9738, 17.60257
428.4560, 16.85509
428.9381, 15.94531
429.4202, 15.19746
429.9023, 14.11157
430.3844, 13.43449
430.8665, 12.00171
431.3487, 10.85357
431.8308, 9.975937
432.3129, 9.302490
432.7950, 10.49952
433.2771, 14.29594
433.7592, 18.00206
434.2414, 17.12248
434.7235, 12.15495
435.2056, 9.138924
435.6877, 10.91432
436.1698, 15.16127
436.6519, 17.00336
437.1341, 16.52850
437.6162, 15.45802
438.0983, 14.74846
438.5804, 14.37738
439.0625, 14.33257
439.5446, 14.64497
440.0268, 15.11987
440.5089, 16.10241
440.9910, 17.12887
441.4731, 17.18490
441.9552, 14.08430
442.4373, 11.30584
442.9195, 11.66542
443.4016, 15.18944
443.8837, 18.02962
444.3658, 18.33966
444.8479, 17.64371
445.3300, 17.15250
445.8122, 17.80820
446.2943, 17.69790
446.7764, 16.03548
447.2585, 13.46697
447.7406, 11.54768
448.2227, 10.32306
448.7049, 9.843681
449.1870, 10.64403
449.6691, 13.30876
450.1512, 13.31808
450.6333, 8.508667
451.1154, 3.417587
451.5976, 2.954491
452.0797, 9.075287
452.5618, 13.21155
453.0439, 13.71147
453.5260, 11.56930
454.0081, 9.471664
454.4903, 7.289101
454.9724, 5.988243
455.4545, 6.340958
455.9366, 8.157021
456.4187, 10.46210
456.9008, 13.41360
457.3830, 15.66337
457.8651, 14.98044
458.3472, 12.14616
458.8293, 9.689934
459.3114, 8.404678
459.7935, 7.898369
460.2757, 8.176132
460.7578, 8.984482
461.2399, 9.085007
461.7220, 6.605019
462.2041, 3.694588
462.6862, 2.754082
463.1684, 4.619476
463.6505, 6.154083
464.1326, 4.821037
464.6147, 2.486542
465.0968, 1.549133
465.5789, 5.002701
466.0611, 7.660530
466.5432, 7.336540
467.0253, 4.332787
467.5074, 2.379738
467.9895, 2.301262
468.4716, 3.054764
468.9538, 4.276688
469.4359, 6.570755
469.9180, 7.918800
470.4001, 7.744164
470.8822, 7.028389
471.3643, 7.659927
471.8465, 10.81329
472.3286, 11.70367
472.8107, 8.036163
473.2928, 1.017296
473.7749, 2.360390
474.2570, 1.650261
474.7392, 0.4632720
475.2213, 2.335342
475.7034, 3.972832
476.1855, 5.416405
476.6676, 6.681847
477.1497, 7.697647
477.6319, 8.567085
478.1140, 9.145546
478.5961, 8.928772
479.0782, 6.957672
479.5603, 4.531754
480.0424, 3.124886
480.5246, 2.663177
481.0067, 2.604065
481.4888, 2.321381
481.9709, 2.431076
482.4530, 3.962685
482.9352, 8.467049
483.4173, 10.95951
483.8994, 7.208282
484.3815, 0.6876680
484.8636, 3.268784
485.3457, 2.393997
485.8279, 3.3844002E-02
486.3100, 4.569626
486.7921, 11.12899
487.2742, 13.83444
487.7563, 9.530220
488.2384, 4.603798
488.7206, 2.820808
489.2027, 5.846916
489.6848, 7.409332
490.1669, 6.944389
490.6490, 5.534569
491.1311, 5.039299
491.6133, 5.678581
492.0954, 5.675194
492.5775, 4.054871
493.0596, 1.487030
493.5417, 0.5876310
494.0238, 1.462379
494.5060, 2.859940
494.9881, 4.184837
495.4702, 5.234352
495.9523, 5.585876
496.4344, 5.122978
496.9165, 4.166573
497.3987, 2.382462
497.8808, 0.3876270
498.3629, 0.6058040
498.8450, 1.279938
499.3271, 3.135658
499.8092, 2.457962
500.2914, 0.2180940
500.7735, 1.861099
501.2556, 0.1136930
501.7377, 2.409904
502.2198, 2.805428
502.7019, 0.2464750
503.1841, 1.781990
503.6662, 3.7949000E-02
504.1483, 3.024963
504.6304, 5.267708
505.1125, 6.578949
505.5946, 7.218941
506.0768, 7.085098
506.5589, 6.295929
507.0410, 5.375938
507.5231, 4.211517
508.0052, 3.235085
508.4873, 2.826340
508.9695, 3.109970
509.4516, 2.717400
509.9337, 1.295799
510.4158, 6.8793997E-02
510.8979, 0.3916320
511.3800, 2.042137
511.8622, 4.154633
512.3443, 6.956367
512.8264, 9.438263
513.3085, 10.22179
513.7906, 9.542397
514.2728, 8.227104
514.7549, 6.074127
515.2370, 3.918243
515.7191, 2.345200
516.2012, 1.389191
516.6833, 1.248772
517.1655, 2.723518
517.6476, 4.666763
518.1297, 6.103531
518.6118, 6.605164
519.0939, 6.859192
519.5760, 6.600616
520.0582, 6.183945
520.5403, 6.496346
521.0224, 8.258583
521.5045, 9.679352
521.9866, 10.33775
522.4688, 10.26874
522.9509, 9.349525
523.4330, 7.169121
523.9151, 5.069580
524.3972, 4.230530
524.8793, 4.686615
525.3615, 4.799416
525.8436, 4.356277
526.3257, 3.749763
526.8078, 3.510170
527.2899, 3.602562
527.7720, 3.925842
528.2542, 4.790955
528.7363, 5.587845
529.2184, 5.154060
529.7005, 3.750259
530.1826, 2.804527
530.6647, 3.122078
531.1469, 4.137726
531.6290, 5.684883
532.1111, 8.227699
532.5932, 9.641235
533.0753, 7.896744
533.5574, 5.046883
534.0396, 3.246239
534.5217, 4.052948
535.0038, 4.520012
535.4859, 3.940697
535.9680, 2.707153
536.4501, 2.019043
536.9323, 1.842232
537.4144, 2.302567
537.8965, 3.838837
538.3786, 6.508255
538.8607, 7.320869
539.3428, 5.799103
539.8250, 3.887138
540.3071, 3.529930
540.7892, 4.542786
541.2713, 5.174400
541.7534, 5.179749
542.2355, 4.671875
542.7177, 2.814766
543.1998, 0.5347900
543.6819, 1.2222000E-02
544.1640, 4.911995
544.6461, 10.10940
545.1282, 9.652885
545.6104, 4.469902
546.0925, 0.3509450
546.5746, 1.136055
547.0567, 3.410820
547.5388, 4.905396
548.0209, 5.031418
548.5031, 5.287437
548.9852, 6.999496
549.4673, 8.510574
549.9494, 7.990265
550.4315, 3.380768
550.9136, 0.1155470
551.3958, 2.079887
551.8779, 2.554832
552.3600, 1.289482
552.8421, 2.367615
553.3242, 5.491058
553.8063, 6.895996
554.2885, 6.695747
554.7706, 5.235870
555.2527, 2.330887
555.7348, 0.1019210
556.2169, 1.180763
556.6990, 4.379761
557.1812, 6.513641
557.6633, 6.978661
558.1454, 6.681450
558.6275, 6.463402
559.1096, 6.194786
559.5917, 5.324715
560.0739, 2.435013
560.5560, 3.0342000E-02
561.0381, 0.6174770
561.5202, 0.4076160
562.0023, 2.011024
562.4844, 4.796867
562.9666, 7.345367
563.4487, 9.187088
563.9308, 10.50378
564.4129, 10.17748
564.8950, 7.290794
565.3771, 3.761223
565.8593, 0.7589040
566.3414, 2.156952
566.8235, 2.291496
567.3056, 1.454620
567.7877, 6.794273
568.2698, 9.827431
568.7520, 10.64181
569.2341, 10.10644
569.7162, 7.899506
570.1983, 4.987411
570.6804, 2.724052
571.1625, 1.191605
571.6447, 0.8534390
572.1268, 3.111389
572.6089, 6.073883
573.0910, 8.037643
573.5731, 8.835365
574.0552, 8.555023
574.5374, 6.089233
575.0195, 3.149689
575.5016, 1.317871
575.9837, 2.183914
576.4658, 2.571091
576.9479, 1.702965
577.4301, 0.2836840
577.9122, 0.2318040
578.3943, 0.7655030
578.8764, 1.391487
579.3585, 0.8109660
579.8406, 0.6410370
580.3228, 0.4050290
580.8049, 1.724640
581.2870, 4.226456
581.7691, 6.619743
582.2512, 8.643570
582.7333, 9.011078
583.2155, 7.530731
583.6976, 5.577736
584.1797, 3.869934
584.6617, 2.678192
585.1439, 2.641243
585.6260, 4.920715
586.1081, 6.594696
586.5902, 4.913673
587.0723, 1.457161
587.5544, 0.6966710
588.0366, 0.1130600
588.5187, 1.295410
589.0008, 3.623589
589.4829, 6.724739
589.9650, 8.023895
590.4471, 6.247139
590.9293, 4.466545
591.4114, 4.131203
591.8935, 5.393921
592.3756, 7.279205
592.8577, 10.26615
593.3398, 12.58334
593.8220, 11.69509
594.3041, 8.090607
594.7862, 5.776855
595.2683, 5.830383
595.7504, 6.475975
596.2325, 5.016266
596.7147, 2.263649
597.1968, 0.3547590
597.6789, 0.8379750
598.1610, 1.975830
598.6431, 2.848969
599.1252, 3.390869
599.6074, 3.373726
600.0895, 0.8204120
600.5716, 0.7028350
601.0537, 1.567734
601.5358, 9.449005
602.0179, 12.75121
602.5001, 7.666733
602.9822, 1.637207
603.4643, 0.6701740
603.9464, 6.671196
604.4285, 10.01569
604.9106, 9.625160
605.3928, 7.389465
605.8749, 5.929802
606.3570, 5.211990
606.8391, 4.789238
607.3212, 4.291649
607.8033, 4.309334
608.2855, 6.520561
608.7676, 10.23837
609.2497, 13.21038
609.7318, 13.55263
610.2139, 12.55984
610.6960, 11.18629
611.1782, 9.512543
611.6603, 8.027397
612.1424, 6.861992
612.6245, 5.975517
613.1066, 5.309418
613.5887, 4.724525
614.0709, 4.661995
614.5530, 5.234993
615.0351, 6.224487
615.5172, 7.563354
615.9993, 9.475639
616.4814, 10.79213
616.9636, 11.37339
617.4457, 11.24194
617.9278, 10.06223
618.4099, 7.947609
618.8920, 6.186081
619.3741, 5.441422
619.8563, 5.330704
620.3384, 5.516296
620.8205, 5.940102
621.3026, 6.314575
621.7847, 6.841461
622.2668, 6.992088
622.7490, 6.007317
623.2311, 3.662086
623.7132, 2.181648
624.1953, 2.383301
624.6774, 3.421143
625.1595, 4.861549
625.6417, 7.334793
626.1238, 8.445656
626.6059, 7.602142
627.0880, 6.022514
627.5701, 5.427940
628.0522, 5.957878
628.5344, 5.969337
629.0165, 4.715851
629.4986, 3.352882
629.9807, 4.940735
630.4628, 8.825165
630.9449, 11.47396
631.4271, 10.10523
631.9092, 7.306404
632.3913, 5.377815
632.8734, 4.390869
633.3555, 4.624802
633.8376, 8.501015
634.3198, 11.82423
634.8019, 11.34219
635.2840, 5.590759
635.7661, 2.179970
636.2482, 4.066048
636.7303, 6.754990
637.2125, 6.934418
637.6946, 2.925644
638.1767, 1.289619
638.6588, 2.727798
639.1409, 5.816223
639.6230, 9.410378
640.1052, 13.36711
640.5873, 14.90388
641.0694, 12.59538
641.5515, 8.765594
642.0336, 6.392982
642.5157, 5.361862
642.9979, 5.312759
643.4800, 7.090881
643.9621, 8.950432
644.4442, 9.991890
644.9263, 10.13795
645.4084, 9.021645
645.8906, 4.460854
646.3727, 0.6017380
646.8548, 0.3047710
647.3369, 2.159958
647.8190, 4.319084
648.3011, 6.333733
648.7833, 7.774139
649.2654, 8.122116
649.7475, 7.273392
650.2296, 6.703339
650.7117, 6.567825
651.1938, 6.429863
651.6760, 5.380707
652.1581, 3.847450
652.6402, 3.279327
653.1223, 4.384918
653.6044, 5.863243
654.0865, 7.039658
654.5687, 7.695869
655.0508, 7.425957
655.5329, 4.829117
656.0150, 2.600510
656.4971, 1.763191
656.9792, 2.166336
657.4614, 2.968185
657.9435, 4.847511
658.4256, 5.985222
658.9077, 5.511986
659.3898, 3.495499
659.8719, 3.557457
660.3541, 6.172394
660.8362, 8.630936
661.3183, 8.744781
661.8004, 7.101349
662.2825, 5.874130
662.7646, 5.178261
663.2468, 4.967682
663.7289, 5.745468
664.2110, 6.771843
664.6931, 7.198578
665.1752, 7.072128
665.6573, 5.703751
666.1395, 0.8630290
666.6216, 4.657246
667.1037, 7.422653
667.5858, 4.356617
668.0679, 1.775299
668.5500, 0.4707180
669.0322, 0.2176280
669.5143, 1.970482
669.9964, 5.240929
670.4785, 7.352562
670.9606, 7.196281
671.4427, 5.530869
671.9249, 4.223679
672.4070, 3.272820
672.8891, 2.725052
673.3712, 2.282265
673.8533, 2.457687
674.3354, 4.492805
674.8176, 8.156853
675.2997, 10.89362
675.7818, 10.05779
676.2639, 8.900612
676.7460, 10.04844
677.2281, 15.16514
677.7103, 16.69298
678.1924, 11.81031
678.6745, 5.919586
679.1566, 2.803108
679.6387, 2.765274
680.1208, 4.553780
680.6030, 8.864189
681.0851, 13.03102
681.5672, 13.44940
682.0493, 10.79283
682.5314, 7.677925
683.0135, 4.263580
683.4957, 1.768517
683.9778, 2.109909
684.4599, 4.252808
684.9420, 6.226898
685.4241, 7.090668
685.9063, 7.893478
686.3884, 9.293922
686.8705, 10.98958
687.3526, 11.96247
687.8347, 12.55100
688.3168, 11.84663
688.7990, 9.098244
689.2811, 4.743507
689.7632, 1.913643
690.2453, 0.7101970
690.7274, 0.3580320
691.2095, 0.8060380
691.6917, 1.741310
692.1738, 1.982574
692.6559, 1.568741
693.1380, 1.694679
693.6201, 4.159538
694.1022, 7.138313
694.5844, 8.650375
695.0665, 8.424171
695.5486, 8.110298
696.0307, 8.069885
696.5128, 8.307274
696.9949, 8.914558
697.4771, 10.81726
697.9592, 10.91843
698.4413, 8.148605
698.9234, 4.954483
699.4055, 4.779175
699.8876, 7.697044
700.3698, 9.520180
700.8519, 9.456940
701.3340, 8.221146
701.8161, 6.188713
702.2982, 3.765190
702.7803, 1.932083
703.2625, 0.6601870
703.7446, 0.5827710
704.2267, 3.282112
704.7088, 7.381851
705.1909, 9.991669
705.6730, 8.884659
706.1552, 7.605034
706.6373, 6.947891
707.1194, 6.805008
707.6015, 6.670540
708.0836, 6.503120
708.5657, 6.471588
709.0479, 6.672592
709.5300, 7.060036
710.0121, 7.621933
710.4942, 8.330078
710.9763, 8.564774
711.4584, 7.327171
711.9406, 5.685020
712.4227, 4.953178
712.9048, 5.177864
713.3869, 5.838692
713.8690, 6.984070
714.3511, 8.247322
714.8333, 9.646065
715.3154, 11.72367
715.7975, 11.85104
716.2796, 8.777527
716.7617, 5.274742
717.2438, 3.587685
717.7260, 3.916634
718.2081, 3.994370
718.6902, 3.608940
719.1723, 3.294853
719.6544, 4.058304
720.1365, 5.367897
720.6187, 5.661034
721.1008, 4.126038
721.5829, 2.956520
722.0650, 4.838097
722.5471, 7.731911
723.0292, 8.938072
723.5114, 5.119652
723.9935, 2.669167
724.4756, 3.239456
724.9577, 5.232567
725.4398, 6.143875
725.9219, 5.704613
726.4041, 4.782997
726.8862, 2.999405
727.3683, 1.179352
727.8504, 1.738182
728.3325, 4.301201
728.8146, 6.373863
729.2968, 6.332893
729.7789, 5.640892
730.2610, 6.419533
730.7431, 8.035461
731.2252, 8.393929
731.7073, 4.865723
732.1895, 1.568848
732.6716, 0.4404370
733.1537, 1.420975
733.6358, 2.235664
734.1179, 2.687302
734.6000, 3.354179
735.0822, 4.714897
735.5643, 6.612350
736.0464, 7.343201
736.5285, 6.853706
737.0106, 5.818474
737.4927, 4.240814
737.9749, 2.611336
738.4570, 1.739410
738.9391, 1.670616
739.4212, 2.152092
739.9033, 3.785324
740.3854, 5.378738
740.8676, 5.856819
741.3497, 4.587067
741.8318, 4.414978
742.3139, 6.810699
742.7960, 8.825974
743.2781, 8.081787
743.7603, 3.976646
744.2424, 1.469559
744.7245, 0.7443240
745.2066, 1.369102
745.6887, 3.816071
746.1708, 7.203018
746.6530, 9.063820
747.1351, 8.794830
747.6172, 8.023438
748.0993, 7.808746
748.5814, 7.607674
749.0635, 7.151825
749.5457, 6.692581
750.0278, 5.335785
750.5099, 1.561333
750.9920, 2.215714
751.4741, 2.735924
751.9562, 1.095604
752.4384, 3.354248
752.9205, 2.789215
753.4026, 1.298241
753.8847, 2.153137
754.3668, 4.769539
754.8489, 6.857681
755.3311, 7.746674
755.8132, 7.820091
756.2953, 7.008934
756.7774, 5.678329
757.2595, 4.487122
757.7416, 3.146851
758.2238, 2.546211
758.7059, 3.728607
759.1880, 5.574524
759.6701, 5.360443
760.1522, 1.896957
760.6343, 0.4484630
761.1165, 3.199875
761.5986, 7.896416
762.0807, 8.448029
762.5628, 5.565262
763.0449, 3.508682
763.5270, 5.657570
764.0092, 8.267395
764.4913, 6.992203
764.9734, 3.152878
765.4555, 0.8435130
765.9376, 3.035515
766.4197, 5.454285
766.9019, 6.975327
767.3840, 7.568474
767.8661, 6.820641
768.3482, 4.174927
768.8303, 1.779205
769.3124, 0.2462310
769.7946, 0.2868270
770.2767, 1.495171
770.7588, 5.250343
771.2409, 7.788612
771.7230, 5.497742
772.2051, 2.233749
772.6873, 2.500732
773.1694, 5.789482
773.6515, 7.620811
774.1336, 4.149170
774.6157, 1.107529
775.0978, 1.440323
775.5800, 4.984673
776.0621, 7.113159
776.5442, 7.667480
777.0263, 7.239212
777.5084, 5.604225
777.9905, 3.194809
778.4727, 2.282356
778.9548, 2.795364
779.4369, 3.464798
779.9190, 3.336571
780.4011, 2.955017
780.8832, 3.028412
781.3654, 3.584267
781.8475, 3.557198
782.3296, 1.910294
782.8117, 0.2129140
783.2938, 1.034515
783.7759, 1.938217
784.2581, 0.7405700
784.7402, 3.340065
785.2223, 7.053185
785.7044, 7.854805
786.1865, 6.411209
786.6686, 5.092651
787.1508, 3.979195
787.6329, 3.533386
788.1150, 4.996758
788.5971, 6.719902
789.0792, 6.945923
789.5613, 5.326721
790.0435, 3.830650
790.5256, 2.839180
791.0077, 2.171013
791.4898, 1.802177
791.9719, 1.814613
792.4540, 1.357178
792.9362, 0.1908190
793.4183, 0.4318240
793.9004, 1.145271
794.3825, 4.053925
794.8646, 5.766167
795.3467, 6.107277
795.8289, 6.029839
796.3110, 6.485886
796.7931, 6.659637
797.2752, 5.656380
797.7573, 2.965408
798.2394, 0.8972020
798.7216, 0.2530670
799.2037, 0.7800670
799.6858, 0.8458860
800.1679, 0.4585040
800.6500, 0.5028460
801.1321, 2.071342
801.6143, 4.075249
802.0964, 7.291084
802.5785, 10.56852
803.0606, 11.56696
803.5427, 9.931648
804.0248, 7.289848
804.5070, 2.695068
804.9891, 1.212944
805.4712, 2.107101
805.9533, 1.538879
806.4354, 4.254913
806.9175, 6.172531
807.3997, 6.915710
807.8818, 5.464287
808.3639, 1.919273
808.8460, 0.7427900
809.3281, 2.519310
809.8102, 5.040779
810.2924, 6.463440
810.7745, 6.904282
811.2566, 6.234192
811.7387, 4.229446
812.2208, 3.217438
812.7029, 5.360497
813.1851, 7.936470
813.6672, 9.009766
814.1493, 8.209389
814.6314, 7.340569
815.1135, 6.249489
815.5956, 5.529449
816.0778, 6.420776
816.5599, 8.461685
817.0420, 9.467087
817.5241, 9.309845
818.0062, 8.673752
818.4883, 7.730980
818.9705, 6.794830
819.4526, 6.011269
819.9347, 5.301758
820.4168, 5.546608
820.8989, 9.151581
821.3810, 11.65922
821.8632, 10.10241
822.3453, 3.756027
822.8274, 0.6846080
823.3095, 1.216438
823.7916, 3.303062
824.2737, 6.733047
824.7559, 10.15285
825.2380, 10.10083
825.7201, 6.494751
826.2022, 3.125740
826.6843, 1.724754
827.1664, 1.805832
827.6486, 3.563637
828.1307, 7.455002
828.6128, 9.708427
829.0949, 9.687469
829.5770, 9.131775
830.0591, 8.916855
830.5413, 9.013603
831.0234, 9.254890
831.5055, 9.631935
831.9876, 9.524086
832.4697, 7.677696
832.9518, 5.627258
833.4340, 5.365555
833.9161, 6.855354
834.3982, 7.870865
834.8803, 6.858154
835.3624, 5.983284
835.8445, 6.316650
836.3267, 7.787163
836.8088, 8.853569
837.2909, 9.554184
837.7730, 9.627228
838.2551, 8.412445
838.7372, 6.622276
839.2194, 6.322227
839.7015, 7.256584
840.1836, 7.944252
840.6657, 7.170044
841.1478, 6.168816
841.6299, 5.623177
842.1121, 5.667168
842.5942, 6.044121
843.0763, 6.837547
843.5584, 7.729332
844.0405, 8.812309
844.5226, 9.856224
845.0048, 9.893639
845.4869, 8.799721
845.9690, 7.566589
846.4511, 6.786049
846.9332, 6.009209
847.4153, 4.194672
847.8975, 1.948250
848.3796, 0.9825130
848.8617, 2.907135
849.3438, 5.087784
849.8259, 7.427902
850.3080, 9.349350
850.7902, 8.852257
851.2723, 5.173386
851.7544, 2.702393
852.2365, 3.079193
852.7186, 4.792824
853.2007, 4.946037
853.6829, 4.219864
854.1650, 4.529549
854.6471, 8.131378
855.1292, 11.00357
855.6113, 9.817238
856.0934, 6.943260
856.5756, 7.097656
857.0577, 13.84312
857.5398, 15.93922
858.0219, 10.38723
858.5040, 2.549202
858.9861, 1.992912
859.4683, 7.302147
859.9504, 10.83687
860.4325, 10.56561
860.9146, 8.811821
861.3967, 6.638702
861.8788, 4.670998
862.3610, 3.680199
862.8431, 4.183289
863.3252, 5.041718
863.8073, 6.976059
864.2894, 8.578896
864.7715, 8.503174
865.2537, 6.693848
865.7358, 3.967903
866.2179, 0.1148300
866.7000, 2.965282
867.1821, 3.384308
867.6642, 1.720581
868.1464, 1.675186
868.6285, 7.163811
869.1106, 10.81332
869.5927, 9.997169
870.0748, 7.686348
870.5569, 5.815865
871.0391, 4.488441
871.5212, 2.637596
872.0033, 0.1634600
872.4854, 1.725430
872.9675, 0.8620990
873.4496, 5.640175
873.9318, 7.581322
874.4139, 6.737862
874.8960, 5.837723
875.3781, 6.863663
875.8602, 7.843735
876.3423, 7.246742
876.8245, 5.045113
877.3066, 4.089088
877.7887, 5.020210
878.2708, 6.240463
878.7529, 6.910118
879.2350, 7.186295
879.7172, 7.841217
880.1993, 8.754128
880.6814, 9.189240
881.1635, 8.251625
881.6456, 7.132149
882.1277, 6.841492
882.6099, 7.094536
883.0920, 7.003288
883.5741, 5.084099
884.0562, 4.835518
884.5383, 7.658356
885.0204, 11.75368
885.5026, 13.02111
885.9847, 11.62221
886.4668, 9.954872
886.9489, 8.608154
887.4310, 7.471107
887.9131, 6.032753
888.3953, 4.861443
888.8774, 4.867004
889.3595, 8.047142
889.8416, 9.715248
890.3237, 8.175766
890.8058, 5.787193
891.2880, 5.089668
891.7701, 6.252762
892.2522, 6.973518
892.7343, 7.025452
893.2164, 6.853485
893.6985, 7.153458
894.1807, 7.427330
894.6628, 6.649582
895.1449, 4.418289
895.6270, 3.035133
896.1091, 4.288269
896.5912, 5.808418
897.0734, 6.149315
897.5555, 5.204216
898.0376, 4.304993
898.5197, 3.418495
899.0018, 2.827065
899.4839, 2.850525
899.9661, 3.264191
900.4482, 4.004280
900.9303, 4.898186
901.4124, 4.910103
901.8945, 1.484940
902.3766, 0.9298550
902.8588, 0.6900560
903.3409, 5.325089
903.8230, 8.528618
904.3051, 10.30138
904.7872, 10.61160
905.2693, 9.018410
905.7515, 6.490372
906.2336, 5.004356
906.7157, 4.237747
907.1978, 3.227001
907.6799, 0.6242330
908.1620, 1.101601
908.6442, 0.2512860
909.1263, 2.007858
909.6084, 3.741909
910.0905, 4.903820
910.5726, 5.499268
911.0547, 5.420509
911.5369, 5.067753
912.0190, 5.207352
912.5011, 5.493458
912.9832, 4.607388
913.4653, 2.048733
913.9474, 0.1960490
914.4296, 1.108669
914.9117, 3.011452
915.3938, 4.446999
915.8759, 5.216267
916.3580, 5.891506
916.8401, 6.474873
917.3223, 6.955582
917.8044, 7.644608
918.2865, 8.223221
918.7686, 7.084980
919.2507, 4.429935
919.7328, 2.162384
920.2150, 1.212551
920.6971, 1.264332
921.1792, 2.909832
921.6613, 5.703831
922.1434, 6.456535
922.6255, 4.064079
923.1077, 2.159580
923.5898, 2.017273
924.0719, 2.749596
924.5540, 1.399475
925.0361, 1.110119
925.5182, 1.361225
926.0004, 3.555122
926.4825, 8.197418
926.9646, 8.992393
927.4467, 7.505531
927.9288, 5.988434
928.4109, 4.297569
928.8931, 3.342789
929.3752, 3.293388
929.8573, 3.719833
930.3394, 4.656136
930.8215, 5.862579
931.3036, 5.125351
931.7858, 2.049507
932.2679, 0.5610280
932.7500, 0.2471810
933.2321, 0.9147420
933.7142, 1.473640
934.1964, 1.272255
934.6785, 0.1737060
935.1606, 2.742771
935.6427, 4.228043
936.1248, 1.855007
936.6069, 3.071808
937.0891, 6.300041
937.5712, 7.990562
938.0533, 8.709732
938.5354, 8.219063
939.0175, 7.404663
939.4996, 6.417625
939.9818, 5.512589
940.4639, 5.499916
940.9460, 7.087875
941.4281, 7.558563
941.9102, 5.974930
942.3923, 3.953262
942.8745, 4.503571
943.3566, 6.777237
943.8387, 8.274803
944.3208, 8.244484
944.8029, 7.897964
945.2850, 7.494820
945.7672, 7.370262
946.2493, 8.036278
946.7314, 9.981911
947.2135, 10.53084
947.6956, 9.323624
948.1777, 7.946289
948.6599, 7.560921
949.1420, 7.950523
949.6241, 9.336853
950.1062, 11.39301
950.5883, 11.70776
951.0704, 6.086754
951.5526, 1.224243
952.0347, 1.397705
952.5168, 5.272522
952.9989, 8.019203
953.4810, 9.483421
953.9631, 10.56776
954.4453, 11.59516
954.9274, 12.25533
955.4095, 11.38789
955.8916, 9.851563
956.3737, 9.584297
956.8558, 12.11709
957.3380, 14.25207
957.8201, 14.66306
958.3022, 14.33810
958.7843, 14.22153
959.2664, 14.46835
959.7485, 14.07410
960.2307, 12.64639
960.7128, 11.52891
961.1949, 12.04558
961.6770, 13.30810
962.1591, 13.90795
962.6412, 13.82275
963.1234, 14.29061
963.6055, 16.63078
964.0876, 18.61216
964.5697, 19.39616
965.0518, 19.21265
965.5339, 19.08992
966.0161, 18.93713
966.4982, 18.58852
966.9803, 17.63665
967.4624, 16.84910
967.9445, 17.72395
968.4266, 19.25986
968.9088, 19.78644
969.3909, 17.83356
969.8730, 16.28115
970.3551, 15.32167
970.8372, 14.79797
971.3193, 14.84731
971.8015, 15.29923
972.2836, 14.38880
972.7657, 11.90478
973.2478, 10.02821
973.7299, 11.10543
974.2120, 13.01831
974.6942, 14.14432
975.1763, 14.32390
975.6584, 14.04472
976.1405, 13.37022
976.6226, 12.09241
977.1047, 9.636383
977.5869, 6.927727
978.0690, 7.079262
978.5511, 9.380783
979.0332, 11.18319
979.5153, 11.50635
979.9974, 10.96159
980.4796, 9.009148
980.9617, 6.770180
981.4438, 5.917549
981.9259, 7.184021
982.4080, 7.584030
982.8901, 6.778343
983.3723, 5.509354
983.8544, 4.211983
984.3365, 3.059258
984.8186, 2.847588
985.3007, 3.597961
985.7828, 3.874352
986.2650, 2.269814
986.7471, 1.087547
987.2292, 1.147331
987.7113, 2.024673
988.1934, 2.345551
988.6755, 2.075859
989.1577, 2.070709
989.6398, 2.860428
990.1219, 3.672371
990.6040, 3.321144
991.0861, 2.558449
991.5682, 2.629616
992.0504, 5.062225
992.5325, 6.543213
993.0146, 6.597504
993.4967, 5.660965
993.9788, 3.524452
994.4609, 0.5651020
994.9431, 0.8206860
995.4252, 4.492035
995.9073, 7.798645
996.3894, 7.958366
996.8715, 6.731583
997.3536, 4.621513
997.8358, 1.993507
998.3179, 1.625969
998.8000, 4.393501
999.2821, 7.389153
999.7642, 10.27704
1000.246, 12.21276
1000.728, 10.47023
1001.211, 6.414719
1001.693, 3.670395
1002.175, 3.898766
1002.657, 4.326935
1003.139, 4.010445
1003.621, 3.232735
1004.103, 2.018524
1004.585, 6.6300002E-03
1005.068, 0.1082530
1005.550, 2.593666
1006.032, 4.974968
1006.514, 5.343460
1006.996, 4.563225
1007.478, 3.027580
1007.960, 1.124550
1008.442, 0.7507480
1008.924, 4.073135
1009.407, 6.422951
1009.889, 6.673096
1010.371, 5.881157
1010.853, 6.564201
1011.335, 8.372093
1011.817, 8.740616
1012.299, 6.747513
1012.781, 4.709770
1013.263, 4.651115
1013.746, 5.201767
1014.228, 5.002480
1014.710, 3.801117
1015.192, 2.704285
1015.674, 1.737785
1016.156, 0.7923890
1016.638, 0.6499820
1017.120, 1.918430
1017.603, 1.028458
1018.085, 1.420456
1018.567, 3.283348
1019.049, 3.130600
1019.531, 2.798729
1020.013, 2.420189
1020.495, 2.440880
1020.977, 3.908318
1021.459, 6.879707
1021.942, 8.771935
1022.424, 9.270332
1022.906, 8.583481
1023.388, 5.478111
1023.870, 2.241905
1024.352, 1.523087
1024.834, 3.808357
1025.316, 5.340889
1025.799, 5.753319
1026.281, 5.604515
1026.763, 4.856033
1027.245, 3.912136
1027.727, 4.158615
1028.209, 5.141525
1028.691, 5.219948
1029.173, 2.299004
1029.656, 0.6747700
1030.138, 4.227547
1030.620, 8.892094
1031.102, 10.02002
1031.584, 6.570953
1032.066, 5.939713
1032.548, 8.649426
1033.030, 11.06550
1033.512, 9.705242
1033.995, 6.871010
1034.477, 4.850086
1034.959, 3.809666
1035.441, 3.922127
1035.923, 6.918884
1036.405, 8.407295
1036.887, 6.917942
1037.369, 4.194458
1037.851, 3.728134
1038.334, 5.013546
1038.816, 6.106419
1039.298, 6.559570
1039.780, 6.845505
1040.262, 7.135273
1040.744, 7.484261
1041.226, 8.157104
1041.708, 9.250729
1042.191, 8.958702
1042.673, 7.210907
1043.155, 4.669891
1043.637, 0.3838650
1044.119, 3.377644
1044.601, 2.895676
1045.083, 0.5081410
1045.565, 3.781845
1046.047, 6.859398
1046.530, 8.462246
1047.012, 8.151016
1047.494, 6.870499
1047.976, 5.259254
1048.458, 3.457367
1048.940, 3.438835
1049.422, 5.359581
1049.904, 6.864414
1050.386, 6.088287
1050.869, 4.812405
1051.351, 3.991467
1051.833, 3.587181
1052.315, 3.288990
1052.797, 3.033142
1053.279, 3.525005
1053.761, 5.273949
1054.243, 6.999886
1054.726, 6.805908
1055.208, 5.680901
1055.690, 5.106266
1056.172, 5.801125
1056.654, 5.581367
1057.136, 3.830551
1057.618, 1.998623
1058.100, 0.9097860
1058.583, 0.4413990
1059.065, 3.1651001E-02
1059.547, 0.3751830
1060.029, 4.0371001E-02
1060.511, 2.899551
1060.993, 5.005878
1061.475, 4.266270
1061.957, 2.356819
1062.439, 1.492886
1062.922, 1.752617
1063.404, 2.709778
1063.886, 4.480766
1064.368, 5.436752
1064.850, 3.078854
1065.332, 5.7243001E-02
1065.814, 1.790405
1066.296, 1.910290
1066.778, 0.1100960
1067.261, 5.038925
1067.743, 8.696266
1068.225, 9.315063
1068.707, 8.334312
1069.189, 8.364784
1069.671, 8.885426
1070.153, 8.619427
1070.635, 6.867779
1071.118, 5.267979
1071.600, 4.500092
1072.082, 4.115623
1072.564, 3.680477
1073.046, 3.305943
1073.528, 5.070152
1074.010, 8.738201
1074.492, 11.05547
1074.974, 8.809723
1075.457, 6.283192
1075.939, 7.200390
1076.421, 9.634762
1076.903, 10.34314
1077.385, 8.016140
1077.867, 7.100254
1078.349, 8.242275
1078.831, 9.213554
1079.313, 7.346802
1079.796, 4.322239
1080.278, 2.297939
1080.760, 1.429665
1081.242, 1.904297
1081.724, 6.102673
1082.206, 8.405754
1082.688, 6.864975
1083.170, 3.856236
1083.652, 4.424595
1084.135, 7.382153
1084.617, 7.719273
1085.099, 4.065918
1085.581, 1.134045
1086.063, 2.393364
1086.545, 4.649460
1087.027, 6.000809
1087.509, 6.487309
1087.992, 6.945648
1088.474, 7.388680
1088.956, 6.514523
1089.438, 2.631031
1089.920, 0.7395060
1090.402, 0.6421620
1090.884, 4.291595
1091.366, 6.836414
1091.849, 7.567150
1092.331, 7.725296
1092.813, 7.018978
1093.295, 6.732044
1093.777, 8.688530
1094.259, 11.27398
1094.741, 11.14915
1095.223, 8.936230
1095.705, 6.920498
1096.188, 5.973354
1096.670, 5.342129
1097.152, 5.152744
1097.634, 4.877361
1098.116, 3.346966
1098.598, 1.034134
1099.080, 0.3748400
1099.562, 1.565014
1100.044, 2.937172
1100.527, 3.830563
1101.009, 4.251183
1101.491, 3.911617
1101.973, 2.965797
1102.455, 2.876682
1102.937, 3.800449
1103.419, 4.495811
1103.901, 4.809402
1104.384, 4.371628
1104.866, 1.204666
1105.348, 1.840050
1105.830, 1.101719
1106.312, 4.503136
1106.794, 6.367126
1107.276, 3.455837
1107.758, 0.9499780
1108.240, 1.582306
1108.723, 3.496094
1109.205, 3.853882
1109.687, 3.239021
1110.169, 2.750496
1110.651, 2.324505
1111.133, 2.854214
1111.615, 4.877705
1112.097, 7.013523
1112.579, 8.616207
1113.062, 9.429810
1113.544, 7.631744
1114.026, 3.791912
1114.508, 0.7558140
1114.990, 0.2534100
1115.472, 0.3621370
1115.954, 0.5096320
1116.436, 0.9200900
1116.919, 2.242344
1117.401, 4.334023
1117.883, 5.097488
1118.365, 4.353905
1118.847, 3.315201
1119.329, 2.009697
1119.811, 1.490990
1120.293, 3.527035
1120.776, 6.918453
1121.258, 7.227917
1121.740, 4.039379
1122.222, 1.961365
1122.704, 2.127335
1123.186, 2.862576
1123.668, 2.055984
1124.150, 1.092007
1124.632, 1.791275
1125.115, 4.553993
1125.597, 5.796062
1126.079, 5.264191
1126.561, 3.876846
1127.043, 1.403328
1127.525, 0.8513490
1128.007, 0.1324540
1128.489, 2.130444
1128.971, 3.354858
1129.454, 2.107147
1129.936, 2.164955
1130.418, 4.608383
1130.900, 6.947704
1131.382, 7.479557
1131.864, 6.854561
1132.346, 7.649879
1132.828, 9.111675
1133.311, 8.752281
1133.793, 2.480709
1134.275, 1.655006
1134.757, 0.9391630
1135.239, 1.466625
1135.721, 2.720264
1136.203, 2.998207
1136.685, 4.058052
1137.167, 5.856232
1137.650, 7.352234
1138.132, 7.637711
1138.614, 7.776890
1139.096, 8.932144
1139.578, 9.960854
1140.060, 8.500610
1140.542, 4.459518
1141.024, 2.086281
1141.506, 1.866318
1141.989, 2.502193
1142.471, 3.216236
1142.953, 4.159431
1143.435, 6.040794
1143.917, 8.336723
1144.399, 8.489517
1144.881, 6.102283
1145.363, 4.335747
1145.846, 4.036377
1146.328, 3.967365
1146.810, 2.041576
1147.292, 0.1176830
1147.774, 0.5461270
1148.256, 3.964825
1148.738, 5.716278
1149.220, 5.146637
1149.703, 5.161003
1150.185, 7.281094
1150.667, 9.496502
1151.149, 9.270725
1151.631, 7.628666
1152.113, 5.979553
1152.595, 4.344883
1153.077, 3.986301
1153.559, 5.801685
1154.042, 6.774887
1154.524, 4.413357
1155.006, 0.9215970
1155.488, 2.196671
1155.970, 6.302181
1156.452, 8.438828
1156.934, 5.509464
1157.416, 3.331181
1157.898, 2.561985
1158.381, 2.784714
1158.863, 4.285923
1159.345, 6.499893
1159.827, 6.645767
1160.309, 5.296509
1160.791, 4.772461
1161.273, 6.671562
1161.755, 8.920319
1162.238, 11.75546
1162.720, 13.88408
1163.202, 13.36303
1163.684, 10.84641
1164.166, 9.105751
1164.648, 8.206615
1165.130, 7.882187
1165.612, 8.839592
1166.094, 9.372246
1166.577, 8.736275
1167.059, 7.261562
1167.541, 5.105465
1168.023, 2.363266
1168.505, 0.3887940
1168.987, 0.6914710
1169.469, 0.8826070
1169.951, 0.2633630
1170.433, 1.861019
1170.916, 3.755100
1171.398, 5.610821
1171.880, 6.745834
1172.362, 7.161308
1172.844, 6.212299
1173.326, 3.596638
1173.808, 1.082039
1174.290, 0.1231540
1174.773, 0.3925700
1175.255, 0.1674540
1175.737, 1.428967
1176.219, 3.416405
1176.701, 6.254349
1177.183, 7.101650
1177.665, 4.511116
1178.147, 2.187092
1178.630, 5.222134
1179.112, 9.174782
1179.594, 8.909073
1180.076, 4.237240
1180.558, 3.129936
1181.040, 6.105156
1181.522, 7.258297
1182.004, 3.243187
1182.486, 1.172192
1182.969, 0.3679120
1183.451, 2.757515
1183.933, 4.756508
1184.415, 5.117928
1184.897, 5.367935
1185.379, 5.423855
1185.861, 5.408813
1186.343, 4.948193
1186.825, 4.860744
1187.308, 7.255436
1187.790, 10.27629
1188.272, 10.62135
1188.754, 6.054401
1189.236, 4.869316
1189.718, 7.837814
1190.200, 10.25026
1190.682, 8.252277
1191.165, 4.660824
1191.647, 2.561100
1192.129, 1.645924
1192.611, 1.706200
1193.093, 2.571640
1193.575, 5.135605
1194.057, 10.17829
1194.539, 13.80322
1195.021, 11.22551
1195.504, 6.654076
1195.986, 6.561348
1196.468, 9.317238
1196.950, 9.749138
1197.432, 4.807358
1197.914, 2.635777
1198.396, 4.222752
1198.878, 6.796368
1199.360, 7.898960
1199.843, 8.228462
1200.325, 9.001678
1200.807, 9.943985
1201.289, 9.624519
1201.771, 6.804188
1202.253, 5.008606
1202.735, 4.692406
1203.217, 5.281502
1203.700, 6.758354
1204.182, 8.369514
1204.664, 9.167019
1205.146, 9.070175
1205.628, 8.083282
1206.110, 5.954628
1206.592, 3.323315
1207.074, 0.2700610
1207.557, 2.815380
1208.039, 0.3695980
1208.521, 3.926319
1209.003, 5.136543
1209.485, 3.074699
1209.967, 2.266689
1210.449, 4.262711
1210.931, 4.933952
1211.413, 2.842487
1211.896, 0.6977040
1212.378, 3.624912
1212.860, 8.207016
1213.342, 8.082024
1213.824, 2.580387
1214.306, 0.3125040
1214.788, 3.333466
1215.270, 6.166378
1215.752, 7.522263
1216.235, 7.701721
1216.717, 6.541874
1217.199, 4.759262
1217.681, 3.384296
1218.163, 2.576553
1218.645, 1.695499
1219.127, 0.5041280
1219.609, 0.2029150
1220.092, 5.9029002E-02
1220.574, 0.4105150
1221.056, 0.1601790
1221.538, 1.668991
1222.020, 1.008598
1222.502, 5.426167
1222.984, 8.884716
1223.466, 11.36993
1223.948, 12.50334
1224.431, 11.92184
1224.913, 10.36628
1225.395, 8.310440
1225.877, 6.270523
1226.359, 4.831230
1226.841, 4.040916
1227.323, 4.603493
1227.805, 7.081696
1228.287, 8.877907
1228.770, 8.743393
1229.252, 7.724960
1229.734, 7.073975
1230.216, 6.537155
1230.698, 5.664452
1231.180, 4.198074
1231.662, 3.559319
1232.144, 3.843605
1232.627, 4.276123
1233.109, 4.506462
1233.591, 4.816353
1234.073, 5.705116
1234.555, 6.824738
1235.037, 7.926682
1235.519, 9.260345
1236.001, 8.428673
1236.484, 5.126984
1236.966, 2.495735
1237.448, 2.567810
1237.930, 3.321098
1238.412, 2.581436
1238.894, 1.329704
1239.376, 1.009361
1239.858, 1.843864
1240.340, 2.144028
1240.823, 2.033051
1241.305, 1.693886
1241.787, 0.8124160
1242.269, 0.2240830
1242.751, 0.9073560
1243.233, 2.156029
1243.715, 2.899887
1244.197, 2.937637
1244.679, 5.007256
1245.162, 9.059883
1245.644, 11.64935
1246.126, 10.10700
1246.608, 7.658363
1247.090, 5.895729
1247.572, 4.831261
1248.054, 4.539604
1248.536, 5.077995
1249.019, 4.895287
1249.501, 4.057571
1249.983, 3.248436
1250.465, 2.780762
1250.947, 2.526558
1251.429, 1.841385
1251.911, 1.850288
1252.393, 4.168983
1252.875, 8.562218
1253.358, 10.53172
1253.840, 10.27470
1254.322, 9.217537
1254.804, 7.088608
1255.286, 5.565231
1255.768, 5.296974
1256.250, 5.905678
1256.732, 6.814011
1257.214, 7.757126
1257.697, 6.517860
1258.179, 3.634850
1258.661, 1.521126
1259.143, 1.865585
1259.625, 2.229599
1260.107, 1.977272
1260.589, 1.793991
1261.071, 2.249641
1261.554, 3.176155
1262.036, 4.997574
1262.518, 7.095520
1263.000, 7.528717
1263.482, 3.022766
1263.964, 0.6804730
1264.446, 1.467896
1264.928, 3.542900
1265.411, 5.965393
1265.893, 8.280533
1266.375, 9.761986
1266.857, 10.40967
1267.339, 10.22651
1267.821, 8.709641
1268.303, 7.293777
1268.785, 6.118752
1269.267, 4.609993
1269.750, 1.082970
1270.232, 2.072701
1270.714, 0.8945310
1271.196, 2.929260
1271.678, 5.499161
1272.160, 6.546173
1272.642, 5.763680
1273.124, 2.814957
1273.606, 0.8797610
1274.089, 3.335869
1274.571, 6.637169
1275.053, 7.777962
1275.535, 7.438492
1276.017, 6.954498
1276.499, 6.360252
1276.981, 5.762886
1277.463, 5.157158
1277.946, 4.319366
1278.428, 2.793678
1278.910, 1.349365
1279.392, 0.1035230
1279.874, 0.4848100
1280.356, 0.4047550
1280.838, 2.702988
1281.320, 3.675903
1281.802, 3.440277
1282.285, 3.185196
1282.767, 4.089905
1283.249, 4.397003
1283.731, 2.672791
1284.213, 0.9578020
1284.695, 1.317459
1285.177, 3.208870
1285.659, 4.070038
1286.141, 4.093910
1286.624, 4.124016
1287.106, 4.204277
1287.588, 4.328560
1288.070, 3.140549
1288.552, 1.905006
1289.034, 1.818275
1289.516, 2.456749
1289.998, 2.809143
1290.481, 3.146866
1290.963, 4.202576
1291.445, 7.485977
1291.927, 8.460060
1292.409, 7.356583
1292.891, 5.624306
1293.373, 4.103111
1293.855, 3.012993
1294.338, 3.259415
1294.820, 4.114212
1295.302, 4.070816
1295.784, 2.779991
1296.266, 1.630310
1296.748, 0.5986480
1297.230, 5.7541002E-02
1297.712, 8.0192998E-02
1298.194, 0.9212420
1298.677, 4.045250
1299.159, 7.233070
1299.641, 7.682137
1300.123, 5.294357
1300.605, 2.891579
1301.087, 0.8664550
1301.569, 3.6513999E-02
1302.051, 2.296829
1302.533, 2.599136
1303.016, 0.0000000E+00
##END=



