##NAMES=Kornerupine
##RRUFFID=R050214
##IDEAL CHEMISTRY=(Mg,Fe^2+^,Al,[box])_10_(Si,Al,B)_5_O_21_(OH,F)_2_
##LOCALITY=Sri Lanka
##OWNER=RRUFF
##SOURCE=Jibamitra Ganguly
##DESCRIPTION=Water-worn single crystal fragment
##STATUS=The identification of this mineral has been confirmed by X-ray diffraction and chemical analysis
##URL=rruff.info/R050214
##MEASURED CHEMISTRY=(Mg_3.63_[box]_0.21_Fe^2+^_0.14_Na_0.02_)_4_Al_6.00_(Si_2.44_Al_1.97_B_0.59_)_5_O_21_(OH) ;   B and Li not measured; B estimated by charge balance
145.8685, 0.0000000E+00
146.3506, 3.1647000E-02
146.8327, 0.3637700
147.3148, 1.101776
147.7969, 2.336395
148.2790, 3.327942
148.7612, 3.556458
149.2433, 3.242767
149.7254, 3.125183
150.2075, 3.533966
150.6896, 4.246918
151.1717, 4.893677
151.6539, 5.460571
152.1360, 6.088745
152.6181, 7.072540
153.1002, 8.528748
153.5823, 9.455841
154.0644, 8.588318
154.5466, 7.281982
155.0287, 6.682983
155.5108, 7.216156
155.9929, 8.332764
156.4750, 9.570160
156.9571, 9.516479
157.4393, 9.694580
157.9214, 9.420349
158.4035, 8.834625
158.8856, 8.957428
159.3677, 9.739532
159.8498, 11.13397
160.3320, 12.58221
160.8141, 11.84329
161.2962, 10.88888
161.7783, 10.31476
162.2604, 10.01947
162.7425, 9.846313
163.2247, 9.638550
163.7068, 9.325439
164.1889, 8.853638
164.6710, 8.723724
165.1531, 8.002960
165.6352, 5.801086
166.1174, 2.737244
166.5995, 0.2528990
167.0816, 0.5125120
167.5637, 0.4317930
168.0458, 0.7951660
168.5279, 2.2949001E-02
169.0101, 0.6430050
169.4922, 0.4508670
169.9743, 0.8053590
170.4564, 2.261169
170.9385, 2.640808
171.4206, 1.739075
171.9028, 1.184143
172.3849, 1.726990
172.8670, 2.398193
173.3491, 2.060608
173.8312, 0.5324100
174.3133, 0.9074710
174.7955, 0.9736940
175.2776, 0.1134640
175.7597, 0.7718510
176.2418, 1.441956
176.7239, 1.948303
177.2060, 2.416016
177.6882, 2.931885
178.1703, 3.201843
178.6524, 2.790955
179.1345, 2.006531
179.6166, 1.481750
180.0987, 1.488037
180.5809, 2.023743
181.0630, 3.196594
181.5451, 6.036438
182.0272, 8.216858
182.5093, 8.468140
182.9914, 7.310730
183.4736, 5.950989
183.9557, 5.362549
184.4378, 5.582275
184.9199, 5.455933
185.4020, 4.499451
185.8841, 3.603271
186.3663, 3.014404
186.8484, 2.732422
187.3305, 2.656067
187.8126, 2.727295
188.2947, 2.998596
188.7768, 3.120544
189.2590, 3.274292
189.7411, 3.156067
190.2232, 2.415710
190.7053, 1.180542
191.1874, 2.0020001E-02
191.6695, 0.5997920
192.1517, 0.3285520
192.6338, 0.3427120
193.1159, 0.8051760
193.5980, 1.384460
194.0801, 2.013794
194.5622, 2.631714
195.0444, 2.997131
195.5265, 2.813477
196.0086, 1.902710
196.4907, 1.023926
196.9728, 2.1240000E-02
197.4549, 0.9279790
197.9371, 1.247681
198.4192, 0.8934940
198.9013, 0.5441890
199.3834, 1.116943
199.8655, 2.631714
200.3476, 3.842651
200.8298, 4.287720
201.3119, 4.414917
201.7940, 4.709534
202.2761, 5.173950
202.7582, 6.093811
203.2403, 8.341064
203.7225, 11.65717
204.2046, 14.13757
204.6867, 14.39313
205.1688, 13.41888
205.6509, 13.55664
206.1330, 15.31580
206.6152, 17.81238
207.0973, 20.66132
207.5794, 23.71417
208.0615, 26.31030
208.5436, 27.60046
209.0257, 27.97467
209.5079, 29.45062
209.9900, 33.09106
210.4721, 36.58575
210.9542, 38.36823
211.4363, 38.88141
211.9184, 39.44379
212.4006, 41.13751
212.8827, 43.89264
213.3648, 46.21210
213.8469, 47.73871
214.3290, 49.13409
214.8111, 50.75348
215.2933, 52.49121
215.7754, 54.02411
216.2575, 54.95300
216.7396, 55.21619
217.2217, 56.09070
217.7038, 58.86652
218.1859, 61.11578
218.6681, 61.49774
219.1502, 60.61108
219.6323, 60.20648
220.1144, 62.04932
220.5965, 66.50494
221.0786, 69.15594
221.5608, 68.24615
222.0429, 67.36841
222.5250, 68.09467
223.0071, 70.01935
223.4892, 71.73865
223.9713, 72.01007
224.4535, 70.64502
224.9356, 69.77399
225.4177, 69.71820
225.8998, 69.74689
226.3819, 69.82361
226.8640, 69.74359
227.3462, 69.03650
227.8283, 67.15411
228.3104, 63.89069
228.7925, 61.75916
229.2746, 61.24390
229.7567, 61.16211
230.2389, 61.26428
230.7210, 61.38715
231.2031, 61.11493
231.6852, 60.00214
232.1673, 58.00378
232.6494, 56.40491
233.1316, 55.12256
233.6137, 54.36365
234.0958, 54.34595
234.5779, 54.99335
235.0600, 55.94995
235.5421, 57.12915
236.0243, 58.41864
236.5064, 59.13739
236.9885, 58.74658
237.4706, 58.22534
237.9527, 58.26923
238.4348, 58.84949
238.9170, 59.43933
239.3991, 59.61877
239.8812, 59.57062
240.3633, 59.94788
240.8454, 61.28406
241.3275, 62.60864
241.8097, 62.78430
242.2918, 61.87250
242.7739, 61.66003
243.2560, 63.72040
243.7381, 66.91846
244.2202, 68.99286
244.7024, 69.30902
245.1845, 69.05237
245.6666, 69.10596
246.1487, 69.46527
246.6308, 70.29810
247.1129, 72.35571
247.5951, 74.57758
248.0772, 75.43384
248.5593, 74.20947
249.0414, 72.90771
249.5235, 73.84100
250.0056, 77.23322
250.4878, 80.33459
250.9699, 82.12811
251.4520, 83.16034
251.9341, 83.71625
252.4162, 83.79114
252.8983, 83.81134
253.3805, 84.11365
253.8626, 84.70941
254.3447, 85.95441
254.8268, 88.42407
255.3089, 91.22784
255.7910, 94.05713
256.2732, 96.82281
256.7553, 98.98657
257.2374, 99.93378
257.7195, 99.57825
258.2016, 98.58167
258.6837, 96.48517
259.1659, 94.11877
259.6480, 92.14978
260.1301, 90.52148
260.6122, 88.34412
261.0943, 84.15900
261.5764, 77.45325
262.0586, 72.31598
262.5407, 70.87305
263.0228, 69.61182
263.5049, 66.88531
263.9870, 62.79712
264.4691, 58.56732
264.9513, 55.31696
265.4334, 53.13019
265.9155, 51.18219
266.3976, 49.94128
266.8797, 48.53687
267.3618, 46.35333
267.8440, 43.67285
268.3261, 41.38232
268.8082, 40.53302
269.2903, 41.24451
269.7724, 40.17218
270.2545, 35.09003
270.7367, 30.24390
271.2188, 26.84210
271.7009, 24.60504
272.1830, 22.72192
272.6651, 20.62451
273.1472, 18.32928
273.6294, 16.07690
274.1115, 13.82703
274.5936, 11.66907
275.0757, 9.444092
275.5578, 7.352417
276.0399, 5.762451
276.5221, 4.936829
277.0042, 4.728577
277.4863, 4.259399
277.9684, 3.483826
278.4505, 2.453308
278.9326, 0.5552980
279.4148, 1.433472
279.8969, 2.318665
280.3790, 1.471863
280.8611, 0.4309080
281.3432, 1.179260
281.8253, 1.502136
282.3075, 2.552979
282.7896, 0.6630860
283.2717, 2.543213
283.7538, 5.534180
284.2359, 7.692505
284.7180, 9.076538
285.2002, 9.716248
285.6823, 7.905457
286.1644, 7.792664
286.6465, 10.44110
287.1286, 14.17871
287.6107, 17.48108
288.0929, 19.95166
288.5750, 22.39215
289.0571, 26.13104
289.5392, 32.21033
290.0213, 37.53748
290.5034, 41.76404
290.9856, 45.33801
291.4677, 48.60699
291.9498, 51.59863
292.4319, 54.08221
292.9140, 55.68237
293.3961, 56.16150
293.8783, 56.80292
294.3604, 58.08453
294.8425, 59.04279
295.3246, 59.09027
295.8067, 58.22626
296.2888, 56.73431
296.7710, 54.77765
297.2531, 52.34430
297.7352, 50.24329
298.2173, 48.70258
298.6994, 47.21521
299.1815, 45.51886
299.6637, 43.68781
300.1458, 42.01239
300.6279, 40.74658
301.1100, 39.77289
301.5921, 38.01758
302.0742, 34.76074
302.5564, 31.68884
303.0385, 29.07086
303.5206, 26.98090
304.0027, 25.58704
304.4848, 25.02118
304.9669, 25.03357
305.4491, 24.88123
305.9312, 24.25934
306.4133, 23.90314
306.8954, 23.87933
307.3775, 24.19092
307.8596, 25.12469
308.3418, 26.79254
308.8239, 28.38422
309.3060, 28.30194
309.7881, 25.03265
310.2702, 23.30829
310.7523, 24.27826
311.2345, 26.33154
311.7166, 28.03949
312.1987, 29.09265
312.6808, 29.94037
313.1629, 31.07031
313.6451, 32.50372
314.1272, 34.18756
314.6093, 36.34039
315.0914, 38.53070
315.5735, 40.48376
316.0556, 42.18378
316.5378, 43.76331
317.0199, 45.34088
317.5020, 46.90515
317.9841, 48.52600
318.4662, 50.86084
318.9483, 52.60858
319.4305, 52.73749
319.9126, 51.75262
320.3947, 51.03064
320.8768, 51.39105
321.3589, 52.67456
321.8410, 54.07489
322.3232, 55.88586
322.8053, 57.47986
323.2874, 58.50098
323.7695, 59.25073
324.2516, 60.26471
324.7337, 61.77020
325.2159, 63.46362
325.6980, 64.64941
326.1801, 65.32227
326.6622, 65.44855
327.1443, 64.62616
327.6264, 63.45160
328.1086, 62.61255
328.5907, 62.25635
329.0728, 61.91412
329.5549, 60.98956
330.0370, 59.32080
330.5191, 57.44958
331.0013, 55.25159
331.4834, 52.95959
331.9655, 50.81158
332.4476, 48.77112
332.9297, 46.50507
333.4118, 43.61182
333.8940, 40.02917
334.3761, 37.37988
334.8582, 36.89612
335.3403, 35.90253
335.8224, 32.82135
336.3045, 28.36194
336.7867, 24.23743
337.2688, 21.47229
337.7509, 19.78253
338.2330, 17.88684
338.7151, 15.64825
339.1972, 13.36804
339.6793, 10.64099
340.1614, 7.997131
340.6436, 6.365967
341.1257, 6.011353
341.6078, 6.242310
342.0899, 5.739075
342.5720, 3.788452
343.0541, 2.308716
343.5363, 1.953064
344.0184, 1.618286
344.5005, 8.8257000E-02
344.9826, 2.636780
345.4647, 5.241516
345.9468, 6.156860
346.4290, 4.855225
346.9111, 4.386047
347.3932, 5.980835
347.8753, 7.099548
348.3574, 6.122864
348.8395, 3.602051
349.3217, 1.170227
349.8038, 1.5807999E-02
350.2859, 4.3152001E-02
350.7680, 0.2790530
351.2501, 1.225952
351.7322, 1.815430
352.2144, 1.770630
352.6965, 1.287170
353.1786, 0.6353150
353.6607, 6.4636000E-02
354.1428, 0.8679810
354.6249, 1.952759
355.1071, 3.712769
355.5892, 5.102356
356.0713, 5.866943
356.5534, 6.431580
357.0355, 7.058533
357.5176, 7.833496
357.9998, 8.776794
358.4819, 9.927246
358.9640, 11.33807
359.4461, 12.74982
359.9282, 14.23462
360.4103, 15.69275
360.8925, 17.10260
361.3746, 18.45166
361.8567, 19.65759
362.3388, 20.60687
362.8209, 21.36926
363.3030, 22.60785
363.7852, 24.37134
364.2673, 26.59351
364.7494, 29.04944
365.2315, 31.99182
365.7136, 36.45831
366.1957, 43.03406
366.6779, 49.33209
367.1600, 49.60461
367.6421, 40.39532
368.1242, 33.84491
368.6063, 32.82373
369.0884, 34.05157
369.5706, 35.87677
370.0527, 37.85974
370.5348, 39.78845
371.0169, 41.61316
371.4990, 43.35712
371.9811, 44.29474
372.4633, 43.44836
372.9454, 42.78833
373.4275, 43.29694
373.9096, 44.70062
374.3917, 46.29871
374.8738, 47.76733
375.3560, 49.08533
375.8381, 49.98010
376.3202, 50.00128
376.8023, 50.69623
377.2844, 53.75012
377.7665, 57.30084
378.2487, 59.10559
378.7308, 58.29138
379.2129, 56.77863
379.6950, 57.06055
380.1771, 59.23877
380.6592, 60.74664
381.1414, 60.31390
381.6235, 59.59924
382.1056, 60.16034
382.5877, 61.97089
383.0698, 63.60162
383.5519, 64.05640
384.0341, 63.66797
384.5162, 63.30109
384.9983, 62.77502
385.4804, 62.92419
385.9625, 65.29425
386.4446, 68.82404
386.9268, 71.14355
387.4089, 70.49915
387.8910, 69.27386
388.3731, 70.25470
388.8552, 73.35638
389.3373, 76.45721
389.8195, 78.61469
390.3016, 80.14478
390.7837, 81.73779
391.2658, 83.37964
391.7479, 85.12036
392.2300, 87.48224
392.7122, 89.89941
393.1943, 90.82947
393.6764, 89.62952
394.1585, 88.07245
394.6406, 88.55780
395.1227, 91.14673
395.6049, 92.85693
396.0870, 92.88477
396.5691, 92.15692
397.0512, 90.94147
397.5333, 89.46320
398.0154, 88.99658
398.4976, 90.84296
398.9797, 94.33337
399.4618, 95.35675
399.9439, 92.48486
400.4260, 89.27869
400.9081, 86.88373
401.3903, 84.82562
401.8724, 82.23871
402.3545, 78.74579
402.8366, 74.80695
403.3187, 71.46002
403.8008, 69.56293
404.2830, 66.80505
404.7651, 62.37427
405.2472, 57.53192
405.7293, 53.18066
406.2114, 49.54285
406.6935, 46.43585
407.1757, 43.65918
407.6578, 41.13452
408.1399, 38.50513
408.6220, 35.38550
409.1041, 32.52777
409.5862, 30.16064
410.0684, 28.20050
410.5505, 26.47870
411.0326, 24.92609
411.5147, 23.61847
411.9968, 22.78485
412.4789, 22.83417
412.9611, 22.35876
413.4432, 21.29858
413.9253, 19.75378
414.4074, 17.42169
414.8895, 14.53210
415.3716, 11.92920
415.8538, 10.44507
416.3359, 10.00769
416.8180, 9.364563
417.3001, 8.273987
417.7822, 7.331116
418.2643, 6.716858
418.7465, 6.365051
419.2286, 6.118286
419.7107, 5.865540
420.1928, 5.914490
420.6749, 7.088318
421.1570, 9.666870
421.6392, 11.27161
422.1213, 10.63861
422.6034, 9.351135
423.0855, 8.445862
423.5676, 7.996948
424.0497, 7.981201
424.5319, 8.677124
425.0140, 9.766052
425.4961, 10.45245
425.9782, 10.72119
426.4603, 10.49915
426.9424, 9.491089
427.4246, 7.950867
427.9067, 6.245300
428.3888, 3.589661
428.8709, 1.817871
429.3530, 3.201965
429.8351, 7.068054
430.3173, 10.36853
430.7994, 11.88751
431.2815, 12.16571
431.7636, 12.28741
432.2457, 12.49786
432.7278, 11.69958
433.2100, 8.486023
433.6921, 4.870117
434.1742, 3.135437
434.6563, 3.300354
435.1384, 3.797791
435.6205, 3.442505
436.1027, 2.414063
436.5848, 2.186768
437.0669, 3.784912
437.5490, 4.576355
438.0311, 3.024597
438.5132, 0.5278320
438.9954, 0.7241210
439.4775, 8.2030997E-02
439.9596, 2.037964
440.4417, 3.531738
440.9238, 4.266113
441.4059, 4.879761
441.8881, 4.700195
442.3702, 5.107910
442.8523, 7.531982
443.3344, 11.34106
443.8165, 14.60645
444.2986, 15.83313
444.7808, 15.19592
445.2629, 14.02063
445.7450, 11.17639
446.2271, 9.602295
446.7092, 10.71973
447.1913, 12.72559
447.6735, 14.01978
448.1556, 14.14368
448.6377, 13.48535
449.1198, 12.04639
449.6019, 9.716064
450.0840, 8.911499
450.5662, 11.24341
451.0483, 13.43787
451.5304, 13.45471
452.0125, 11.97571
452.4946, 10.68250
452.9767, 10.29114
453.4589, 10.50183
453.9410, 10.97156
454.4231, 11.72900
454.9052, 12.35632
455.3873, 12.30591
455.8694, 12.37122
456.3516, 13.89172
456.8337, 17.20728
457.3158, 19.83374
457.7979, 20.15149
458.2800, 19.12769
458.7621, 18.06165
459.2443, 17.06567
459.7264, 17.00818
460.2085, 18.93054
460.6906, 22.65100
461.1727, 25.65857
461.6548, 28.39917
462.1370, 29.90234
462.6191, 28.79089
463.1012, 26.25635
463.5833, 24.64746
464.0654, 24.85413
464.5475, 26.02075
465.0297, 26.73169
465.5118, 26.74194
465.9939, 26.82385
466.4760, 27.19800
466.9581, 27.44434
467.4402, 27.06580
467.9224, 26.31921
468.4045, 26.00415
468.8866, 26.76123
469.3687, 28.22107
469.8508, 28.64087
470.3329, 27.00623
470.8151, 25.99658
471.2972, 27.03345
471.7793, 28.11108
472.2614, 27.22241
472.7435, 24.19775
473.2256, 20.88367
473.7078, 19.18481
474.1899, 19.06824
474.6720, 18.91907
475.1541, 18.64258
475.6362, 18.47888
476.1183, 18.99109
476.6005, 19.57043
477.0826, 19.10474
477.5647, 16.88940
478.0468, 14.34021
478.5289, 13.10840
479.0110, 13.05579
479.4932, 12.85693
479.9753, 12.21521
480.4574, 11.20142
480.9395, 9.434570
481.4216, 7.023193
481.9037, 5.792114
482.3859, 7.500000
482.8680, 9.724121
483.3501, 10.22583
483.8322, 9.037231
484.3143, 6.964355
484.7964, 4.148438
485.2786, 1.140259
485.7607, 0.2735600
486.2428, 1.191162
486.7249, 1.874390
487.2070, 0.4300540
487.6891, 1.391602
488.1713, 1.821777
488.6534, 0.7628170
489.1355, 0.6561280
489.6176, 1.465454
490.0997, 1.676147
490.5818, 1.327637
491.0640, 0.7590330
491.5461, 2.093872
492.0282, 1.542725
492.5103, 0.3649900
492.9924, 0.1922610
493.4745, 1.460205
493.9567, 2.926147
494.4388, 2.725342
494.9209, 0.6247560
495.4030, 0.5039060
495.8851, 7.8247003E-02
496.3672, 0.8293460
496.8494, 2.103149
497.3315, 3.350098
497.8136, 3.813965
498.2957, 2.919800
498.7778, 1.610474
499.2599, 1.071411
499.7421, 1.261963
500.2242, 1.558350
500.7063, 1.950684
501.1884, 2.106323
501.6705, 1.426025
502.1526, 3.1005999E-02
502.6348, 1.079224
503.1169, 0.9147950
503.5990, 0.5659180
504.0811, 0.9936520
504.5632, 2.196899
505.0453, 3.887695
505.5274, 6.051392
506.0096, 8.373047
506.4917, 9.887085
506.9738, 10.07458
507.4559, 10.27002
507.9380, 10.92517
508.4201, 11.40527
508.9023, 10.71973
509.3844, 9.127563
509.8665, 8.149780
510.3486, 9.152466
510.8307, 11.87708
511.3128, 13.86780
511.7950, 14.49707
512.2771, 15.31384
512.7592, 17.26147
513.2413, 19.12915
513.7234, 19.63489
514.2056, 18.61047
514.6877, 17.06787
515.1698, 15.52039
515.6519, 14.10498
516.1340, 14.41174
516.6161, 17.66174
517.0983, 20.18689
517.5804, 18.77283
518.0625, 15.62744
518.5446, 14.07202
519.0267, 15.37537
519.5089, 16.81555
519.9910, 16.51025
520.4731, 14.79456
520.9552, 12.22559
521.4373, 8.707153
521.9194, 5.627930
522.4016, 4.467651
522.8837, 5.342163
523.3658, 6.178223
523.8479, 7.599487
524.3300, 8.329224
524.8121, 6.977173
525.2943, 4.713501
525.7764, 3.690918
526.2585, 4.663208
526.7406, 6.600220
527.2227, 7.986816
527.7048, 8.936890
528.1870, 8.893433
528.6691, 6.666992
529.1512, 4.687012
529.6333, 3.895752
530.1154, 4.035034
530.5975, 4.619019
531.0797, 5.472412
531.5618, 6.296021
532.0439, 6.526611
532.5260, 6.080688
533.0081, 5.679199
533.4902, 5.100952
533.9724, 4.997925
534.4545, 5.943848
534.9366, 7.748535
535.4187, 9.679810
535.9008, 12.18469
536.3829, 14.14502
536.8651, 13.61438
537.3472, 11.03540
537.8293, 9.428711
538.3114, 10.11707
538.7935, 11.86157
539.2756, 12.66089
539.7578, 12.30664
540.2399, 12.25842
540.7220, 12.48877
541.2041, 13.17603
541.6862, 15.00427
542.1683, 17.45508
542.6505, 19.14722
543.1326, 19.32092
543.6147, 18.37708
544.0968, 17.30164
544.5789, 15.76147
545.0610, 14.70850
545.5432, 14.47339
546.0253, 14.31006
546.5074, 13.92322
546.9895, 13.29761
547.4716, 12.49561
547.9537, 11.55933
548.4359, 10.50659
548.9180, 9.128784
549.4001, 7.265259
549.8822, 6.169556
550.3643, 6.742188
550.8464, 7.650635
551.3286, 7.354370
551.8107, 5.945313
552.2928, 4.953003
552.7749, 5.319702
553.2570, 6.175659
553.7391, 6.503540
554.2213, 6.358887
554.7034, 6.576660
555.1855, 7.698486
555.6676, 9.138550
556.1497, 9.739990
556.6318, 9.294556
557.1140, 8.368286
557.5961, 6.214844
558.0782, 4.150513
558.5603, 2.637695
559.0424, 1.965576
559.5245, 2.871704
560.0067, 5.940186
560.4888, 9.919556
560.9709, 11.75806
561.4530, 10.70618
561.9351, 9.600708
562.4172, 8.786621
562.8994, 7.962524
563.3815, 6.724609
563.8636, 5.328857
564.3457, 4.550049
564.8278, 5.054199
565.3099, 6.052856
565.7921, 6.241577
566.2742, 5.724243
566.7563, 5.959595
567.2384, 7.635376
567.7205, 9.696167
568.2026, 10.66492
568.6848, 10.60181
569.1669, 10.94775
569.6490, 12.43652
570.1311, 13.85498
570.6132, 14.45483
571.0953, 14.50232
571.5775, 14.17065
572.0596, 13.40173
572.5417, 12.48999
573.0238, 12.10522
573.5059, 12.57654
573.9880, 12.55371
574.4702, 10.97253
574.9523, 9.913696
575.4344, 10.51965
575.9165, 12.08618
576.3986, 13.38037
576.8807, 13.90320
577.3629, 13.88208
577.8450, 13.62097
578.3271, 13.21448
578.8092, 12.85449
579.2913, 12.09509
579.7734, 11.72046
580.2556, 12.46899
580.7377, 13.90686
581.2198, 14.99695
581.7019, 15.48889
582.1840, 15.65259
582.6661, 15.49121
583.1483, 15.15015
583.6304, 15.03503
584.1125, 15.24744
584.5946, 15.26636
585.0767, 14.36780
585.5588, 12.46301
586.0409, 12.12256
586.5230, 15.26819
587.0051, 17.57007
587.4872, 17.56030
587.9694, 16.52051
588.4515, 15.84778
588.9336, 15.85535
589.4157, 15.94226
589.8978, 15.24670
590.3799, 13.95715
590.8621, 14.04382
591.3442, 16.12256
591.8263, 18.11914
592.3084, 19.48254
592.7905, 20.06873
593.2726, 19.30066
593.7548, 16.89380
594.2369, 15.02417
594.7190, 15.44580
595.2011, 16.69263
595.6832, 16.43591
596.1653, 14.70349
596.6475, 13.33130
597.1296, 13.31287
597.6117, 14.53040
598.0938, 16.74622
598.5759, 22.49402
599.0580, 25.08777
599.5402, 22.28833
600.0223, 18.28821
600.5044, 15.24353
600.9865, 13.38281
601.4686, 12.48071
601.9507, 12.49023
602.4329, 13.00122
602.9150, 13.07507
603.3971, 12.60022
603.8792, 12.45813
604.3613, 12.93030
604.8434, 13.60266
605.3256, 14.13794
605.8077, 14.60718
606.2898, 15.27771
606.7719, 16.61987
607.2540, 17.74451
607.7361, 17.99243
608.2183, 17.50464
608.7004, 16.30884
609.1825, 14.36133
609.6646, 12.65271
610.1467, 12.34924
610.6288, 13.52686
611.1110, 14.28125
611.5931, 14.82703
612.0752, 14.75830
612.5573, 13.47852
613.0394, 11.82715
613.5215, 10.65198
614.0037, 10.11963
614.4858, 9.887939
614.9679, 9.807129
615.4500, 9.802246
615.9321, 9.365112
616.4142, 8.391113
616.8964, 7.359131
617.3785, 6.340820
617.8606, 5.479370
618.3427, 4.902710
618.8248, 4.605713
619.3069, 4.593628
619.7891, 5.617310
620.2712, 6.427979
620.7533, 5.328979
621.2354, 2.738892
621.7175, 0.6334230
622.1996, 8.4229996E-03
622.6818, 0.2257080
623.1639, 4.6631001E-02
623.6460, 0.8554690
624.1281, 1.206055
624.6102, 0.3835450
625.0923, 0.2960210
625.5745, 1.6113000E-02
626.0566, 0.7368160
626.5387, 0.6463620
627.0208, 0.7512210
627.5029, 1.968506
627.9850, 0.7185060
628.4672, 2.517212
628.9493, 4.208862
629.4314, 3.697998
629.9135, 2.906982
630.3956, 3.440918
630.8777, 4.397827
631.3599, 3.260986
631.8420, 1.383667
632.3241, 4.942139
632.8062, 5.455200
633.2883, 4.535645
633.7704, 3.762573
634.2526, 3.182861
634.7347, 1.709351
635.2168, 1.585815
635.6989, 5.298706
636.1810, 4.883911
636.6631, 2.098877
637.1453, 6.925293
637.6274, 7.541626
638.1095, 7.095459
638.5916, 6.886597
639.0737, 6.813599
639.5558, 6.379883
640.0380, 5.199097
640.5201, 4.049683
641.0022, 3.693481
641.4843, 4.043823
641.9664, 5.038574
642.4485, 6.786499
642.9307, 8.163086
643.4128, 8.027100
643.8949, 6.608154
644.3770, 5.969849
644.8591, 6.040527
645.3412, 6.839600
645.8234, 8.610840
646.3055, 10.92981
646.7876, 13.83545
647.2697, 16.97729
647.7518, 19.39001
648.2339, 20.31824
648.7161, 20.13208
649.1982, 19.75159
649.6803, 19.12549
650.1624, 18.54810
650.6445, 18.15198
651.1266, 17.72375
651.6088, 16.81750
652.0909, 15.65942
652.5730, 15.16797
653.0551, 16.12805
653.5372, 17.17517
654.0193, 17.21216
654.5015, 16.88989
654.9836, 17.50061
655.4657, 19.25488
655.9478, 21.25171
656.4299, 22.72815
656.9120, 23.64453
657.3942, 23.75110
657.8763, 22.74658
658.3584, 21.34692
658.8405, 18.68872
659.3226, 16.49463
659.8047, 16.37622
660.2869, 18.03687
660.7690, 19.70203
661.2511, 20.42322
661.7332, 20.62659
662.2153, 21.23889
662.6974, 22.00647
663.1796, 21.04395
663.6617, 17.37769
664.1438, 14.04553
664.6259, 14.85938
665.1080, 19.92053
665.5901, 21.38843
666.0723, 15.63879
666.5544, 11.16821
667.0365, 10.12622
667.5186, 11.40796
668.0007, 14.77942
668.4828, 19.31812
668.9650, 22.56409
669.4471, 22.52722
669.9292, 20.22900
670.4113, 17.72461
670.8934, 14.62549
671.3755, 13.38965
671.8577, 15.78198
672.3398, 18.82764
672.8219, 19.15820
673.3040, 17.29224
673.7861, 15.85229
674.2682, 15.40063
674.7504, 15.25928
675.2325, 14.88086
675.7146, 14.68701
676.1967, 15.69678
676.6788, 17.83472
677.1609, 19.18896
677.6431, 17.47583
678.1252, 13.88892
678.6073, 16.08643
679.0894, 28.01001
679.5715, 35.82568
680.0536, 32.10059
680.5358, 27.18481
681.0179, 29.49365
681.5000, 37.09766
681.9821, 40.96240
682.4642, 35.15015
682.9464, 27.78247
683.4285, 25.19287
683.9106, 26.04053
684.3927, 27.55591
684.8748, 29.14917
685.3569, 31.44019
685.8391, 35.29150
686.3212, 40.16406
686.8033, 42.95190
687.2854, 42.44946
687.7675, 42.08032
688.2496, 41.60742
688.7318, 41.66187
689.2139, 43.16089
689.6960, 45.91455
690.1781, 48.41431
690.6602, 49.76929
691.1423, 51.12012
691.6245, 54.33398
692.1066, 58.75854
692.5887, 61.55347
693.0708, 61.87354
693.5529, 62.40869
694.0350, 66.17432
694.5172, 72.69507
694.9993, 76.82471
695.4814, 76.02246
695.9635, 76.33838
696.4456, 78.50073
696.9277, 81.57788
697.4099, 85.73340
697.8920, 90.22461
698.3741, 93.34863
698.8562, 94.08228
699.3383, 93.85376
699.8204, 94.78418
700.3026, 96.67041
700.7847, 97.90088
701.2668, 98.06885
701.7489, 98.34326
702.2310, 99.78516
702.7131, 101.8718
703.1953, 102.6689
703.6774, 100.9941
704.1595, 100.4731
704.6416, 104.0710
705.1237, 106.8308
705.6058, 104.3062
706.0880, 98.05347
706.5701, 92.25073
707.0522, 88.87378
707.5343, 86.29712
708.0164, 81.80371
708.4985, 75.61475
708.9807, 71.29712
709.4628, 69.58643
709.9449, 68.01611
710.4270, 65.35742
710.9091, 61.91187
711.3912, 58.34473
711.8734, 54.72119
712.3555, 50.70068
712.8376, 46.09351
713.3197, 41.19092
713.8018, 35.15454
714.2839, 29.19727
714.7661, 26.15649
715.2482, 26.90625
715.7303, 28.31885
716.2124, 26.27490
716.6945, 21.05884
717.1766, 16.73535
717.6588, 13.25854
718.1409, 10.97583
718.6230, 10.95190
719.1051, 11.42017
719.5872, 9.668945
720.0693, 5.627930
720.5515, 2.627197
721.0336, 2.180420
721.5157, 2.067627
721.9978, 0.6757810
722.4799, 1.150635
722.9620, 1.729980
723.4442, 0.8256840
723.9263, 4.9805000E-02
724.4084, 1.067627
724.8905, 3.348633
725.3726, 3.897461
725.8547, 2.038086
726.3369, 1.462646
726.8190, 4.551270
727.3011, 7.555908
727.7832, 6.184082
728.2653, 1.476074
728.7474, 1.605957
729.2296, 1.009766
729.7117, 0.2373050
730.1938, 0.6684570
730.6759, 1.920410
731.1580, 3.910645
731.6401, 6.384521
732.1223, 8.373047
732.6044, 9.104736
733.0865, 9.338379
733.5686, 10.97803
734.0507, 14.16211
734.5328, 18.02612
735.0150, 23.54028
735.4971, 27.92139
735.9792, 27.75757
736.4613, 25.46265
736.9434, 26.11865
737.4255, 31.29150
737.9077, 35.98828
738.3898, 37.07446
738.8719, 38.14404
739.3540, 43.90649
739.8361, 52.45630
740.3182, 57.91479
740.8004, 57.72461
741.2825, 55.16406
741.7646, 54.70776
742.2467, 56.37695
742.7288, 59.16040
743.2109, 63.44702
743.6931, 67.85815
744.1752, 71.84473
744.6573, 75.65430
745.1394, 79.97363
745.6215, 84.97266
746.1036, 88.42480
746.5858, 88.43359
747.0679, 88.24463
747.5500, 89.03345
748.0321, 91.03955
748.5142, 95.17847
748.9963, 101.2419
749.4785, 106.9468
749.9606, 110.4451
750.4427, 111.9512
750.9248, 111.7822
751.4069, 109.7083
751.8890, 107.9683
752.3712, 107.0891
752.8533, 106.6135
753.3354, 106.7568
753.8175, 107.1626
754.2996, 105.7004
754.7817, 100.2922
755.2639, 95.93970
755.7460, 95.49561
756.2281, 95.30518
756.7102, 91.22705
757.1923, 84.53296
757.6744, 80.09424
758.1566, 80.59692
758.6387, 82.40039
759.1208, 79.47827
759.6029, 72.53979
760.0850, 68.10083
760.5671, 67.22144
761.0493, 65.36768
761.5314, 59.33447
762.0135, 51.70605
762.4956, 47.94629
762.9777, 49.83105
763.4598, 49.28345
763.9420, 44.08350
764.4241, 38.81543
764.9062, 35.57520
765.3883, 33.52686
765.8704, 31.04102
766.3525, 27.43848
766.8347, 24.10400
767.3168, 21.86182
767.7989, 20.37964
768.2810, 18.79492
768.7631, 17.07080
769.2452, 15.78442
769.7274, 15.13403
770.2095, 14.68408
770.6916, 14.04321
771.1737, 13.21777
771.6558, 12.21143
772.1379, 10.07202
772.6201, 9.201904
773.1022, 11.38403
773.5843, 13.26099
774.0664, 12.34155
774.5485, 9.576172
775.0306, 7.135986
775.5128, 5.608398
775.9949, 5.468262
776.4770, 8.291260
776.9591, 12.25098
777.4412, 13.91553
777.9233, 13.32520
778.4055, 12.39038
778.8876, 11.98291
779.3697, 11.98315
779.8518, 12.16724
780.3339, 12.40430
780.8160, 13.58911
781.2982, 16.72681
781.7803, 19.27417
782.2624, 19.48682
782.7445, 19.34399
783.2266, 21.61157
783.7087, 25.96704
784.1909, 27.92529
784.6730, 23.32178
785.1551, 18.30835
785.6372, 17.29834
786.1193, 18.79956
786.6014, 20.47778
787.0836, 21.78003
787.5657, 22.70801
788.0478, 23.20752
788.5299, 23.49048
789.0120, 24.05127
789.4941, 24.92163
789.9763, 25.77417
790.4584, 26.47632
790.9405, 27.44531
791.4226, 29.24390
791.9047, 31.28613
792.3868, 32.50342
792.8690, 33.09424
793.3511, 32.21387
793.8332, 27.04517
794.3153, 23.27710
794.7974, 25.16772
795.2795, 29.85352
795.7617, 33.44604
796.2438, 34.92285
796.7259, 35.02075
797.2080, 34.00244
797.6901, 32.24316
798.1722, 30.14111
798.6544, 27.82495
799.1365, 26.76123
799.6186, 27.49390
800.1007, 28.14380
800.5828, 26.92749
801.0649, 24.34521
801.5471, 22.96387
802.0292, 25.05566
802.5113, 24.39502
802.9934, 17.27954
803.4755, 11.27759
803.9576, 10.70386
804.4398, 13.50171
804.9219, 16.27441
805.4040, 18.25073
805.8861, 19.64575
806.3682, 20.68921
806.8503, 21.13770
807.3325, 20.62256
807.8146, 19.25269
808.2967, 16.75000
808.7788, 13.20166
809.2609, 11.00293
809.7430, 13.26416
810.2252, 18.82935
810.7073, 20.22729
811.1894, 16.41357
811.6715, 12.51440
812.1536, 9.199463
812.6357, 6.496826
813.1179, 4.594238
813.6000, 3.331299
814.0821, 2.287109
814.5642, 1.621338
815.0463, 0.8095700
815.5284, 0.8459470
816.0106, 2.172119
816.4927, 1.957275
816.9748, 0.8469240
817.4569, 0.2221680
817.9390, 0.5187990
818.4211, 0.9848630
818.9033, 0.8447270
819.3854, 0.3708500
819.8675, 0.1232910
820.3496, 0.1267090
820.8317, 0.3574220
821.3138, 0.7900390
821.7960, 1.891846
822.2781, 4.714355
822.7602, 8.650146
823.2423, 7.869873
823.7244, 2.677246
824.2065, 8.550537
824.6887, 4.260742
825.1708, 0.6411130
825.6529, 0.8315430
826.1350, 1.824463
826.6171, 3.251953
827.0992, 2.296631
827.5814, 1.984863
828.0635, 4.061035
828.5456, 7.244141
829.0277, 11.33228
829.5098, 15.39990
829.9919, 17.28418
830.4741, 16.51221
830.9562, 15.14697
831.4383, 15.52930
831.9204, 16.63843
832.4025, 14.25391
832.8846, 8.033936
833.3668, 4.144287
833.8489, 4.320557
834.3310, 5.590332
834.8131, 5.768066
835.2952, 5.113281
835.7773, 4.633789
836.2595, 3.634766
836.7416, 4.111816
837.2237, 8.435303
837.7058, 11.73535
838.1879, 10.74512
838.6700, 7.826172
839.1522, 6.500488
839.6343, 7.458008
840.1164, 8.712646
840.5985, 9.170898
841.0806, 9.290527
841.5627, 9.201904
842.0449, 9.268311
842.5270, 10.67993
843.0091, 13.40259
843.4912, 15.51465
843.9733, 15.41919
844.4554, 14.05542
844.9376, 13.81909
845.4197, 14.70630
845.9018, 16.62158
846.3839, 20.20117
846.8660, 22.86743
847.3481, 23.11938
847.8303, 21.60181
848.3124, 18.70044
848.7945, 13.31836
849.2766, 12.34790
849.7587, 21.16699
850.2408, 28.54395
850.7230, 29.61694
851.2051, 27.53198
851.6872, 24.49219
852.1693, 21.59058
852.6514, 21.09888
853.1335, 24.98975
853.6157, 30.00049
854.0978, 33.10034
854.5799, 34.98511
855.0620, 36.48047
855.5441, 37.73657
856.0262, 40.46094
856.5084, 45.60352
856.9905, 51.07007
857.4726, 52.26172
857.9547, 49.16016
858.4368, 50.02783
858.9189, 56.39185
859.4011, 60.85693
859.8832, 60.50488
860.3653, 58.83154
860.8474, 58.69067
861.3295, 59.92407
861.8116, 62.07983
862.2938, 64.60718
862.7759, 68.92236
863.2580, 77.25806
863.7401, 85.93604
864.2222, 93.08960
864.7043, 97.99829
865.1865, 99.91138
865.6686, 98.59009
866.1507, 97.28223
866.6328, 98.08813
867.1149, 100.1318
867.5970, 101.9556
868.0792, 104.2290
868.5613, 109.4128
869.0434, 117.5464
869.5255, 124.8862
870.0076, 128.3223
870.4897, 129.0427
870.9719, 129.8923
871.4540, 130.8999
871.9361, 133.3667
872.4182, 137.8923
872.9003, 141.8833
873.3824, 143.3926
873.8646, 144.1445
874.3467, 147.9531
874.8288, 156.2747
875.3109, 159.8110
875.7930, 153.5649
876.2751, 149.5442
876.7573, 151.6855
877.2394, 155.7158
877.7215, 159.2510
878.2036, 161.4192
878.6857, 160.5876
879.1678, 154.8667
879.6500, 149.4526
880.1321, 148.1167
880.6142, 148.1108
881.0963, 146.9473
881.5784, 145.2258
882.0605, 143.1128
882.5427, 140.9377
883.0248, 139.8862
883.5069, 142.6218
883.9890, 146.7615
884.4711, 143.5068
884.9532, 133.3481
885.4354, 125.5728
885.9175, 122.2014
886.3996, 120.2668
886.8817, 117.9062
887.3638, 114.9397
887.8459, 110.7405
888.3281, 104.7385
888.8102, 99.13916
889.2923, 94.71069
889.7744, 89.53418
890.2565, 80.07520
890.7386, 71.43066
891.2208, 70.50854
891.7029, 76.63354
892.1850, 79.26392
892.6671, 73.84595
893.1492, 67.72095
893.6313, 63.61938
894.1135, 59.97095
894.5956, 55.03589
895.0777, 49.43091
895.5598, 45.03638
896.0419, 42.56738
896.5240, 40.39453
897.0062, 36.60693
897.4883, 32.48755
897.9704, 30.97070
898.4525, 31.01587
898.9346, 28.29102
899.4167, 21.90820
899.8989, 16.18066
900.3810, 14.72656
900.8631, 16.30908
901.3452, 17.97168
901.8273, 19.80371
902.3094, 20.05469
902.7916, 18.28320
903.2737, 15.83008
903.7558, 13.05420
904.2379, 10.29102
904.7200, 7.979492
905.2021, 6.087891
905.6843, 4.892090
906.1664, 5.867676
906.6485, 5.565918
907.1306, 0.8798830
907.6127, 2.756836
908.0948, 0.4936520
908.5770, 5.573242
909.0591, 10.62256
909.5412, 14.10156
910.0233, 14.20947
910.5054, 7.333496
910.9875, 0.4604490
911.4697, 5.634766
911.9518, 7.906250
912.4339, 5.828613
912.9160, 0.2851560
913.3981, 3.343262
913.8802, 0.5175780
914.3624, 4.166016
914.8445, 3.732910
915.3265, 1.7578000E-02
915.8087, 2.140625
916.2908, 2.270996
916.7729, 1.043457
917.2550, 1.324219
917.7371, 3.125488
918.2192, 1.620605
918.7014, 2.768066
919.1835, 5.152832
919.6656, 5.552734
920.1477, 3.321777
920.6298, 3.615723
921.1119, 8.520020
921.5941, 5.160645
922.0762, 3.462891
922.5583, 8.077148
923.0404, 6.844238
923.5225, 6.352539
924.0046, 6.805176
924.4868, 7.762207
924.9689, 11.09326
925.4510, 13.48291
925.9331, 10.80371
926.4152, 3.728027
926.8973, 2.850098
927.3795, 9.562988
927.8616, 12.19678
928.3437, 5.086426
928.8258, 3.512207
929.3079, 6.096680
929.7900, 4.481445
930.2722, 3.348633
930.7543, 4.073242
931.2364, 5.528320
931.7185, 8.118164
932.2006, 9.765625
932.6827, 5.935059
933.1649, 0.6831050
933.6470, 3.193848
934.1291, 0.9809570
934.6112, 2.213379
935.0933, 4.287598
935.5754, 5.888184
936.0576, 8.751953
936.5397, 12.46094
937.0218, 11.55713
937.5039, 5.609375
937.9860, 2.351074
938.4681, 4.083008
938.9503, 8.899414
939.4324, 15.88330
939.9145, 23.89111
940.3966, 28.00439
940.8787, 26.61523
941.3608, 25.54541
941.8430, 23.30566
942.3251, 23.91504
942.8072, 31.02539
943.2893, 40.37402
943.7714, 47.14795
944.2535, 51.39697
944.7357, 54.80176
945.2178, 56.73193
945.6999, 58.88867
946.1820, 61.64746
946.6641, 64.63525
947.1462, 67.52148
947.6284, 70.50000
948.1105, 74.06592
948.5926, 78.28906
949.0747, 82.06006
949.5568, 84.08545
950.0389, 86.30078
950.5211, 90.18555
951.0032, 95.12109
951.4853, 101.1646
951.9674, 107.4717
952.4495, 111.1147
952.9316, 110.4863
953.4138, 110.3447
953.8959, 117.0078
954.3780, 126.9731
954.8601, 134.4971
955.3422, 139.3203
955.8243, 139.8564
956.3065, 136.3604
956.7886, 135.2891
957.2707, 141.8345
957.7528, 152.7314
958.2349, 161.9482
958.7170, 169.4365
959.1992, 173.5298
959.6813, 173.7979
960.1634, 174.9829
960.6455, 179.2588
961.1276, 182.9707
961.6097, 181.4800
962.0919, 176.0210
962.5740, 175.0859
963.0561, 180.9146
963.5382, 184.4424
964.0203, 184.3569
964.5024, 183.1108
964.9846, 180.5586
965.4667, 178.1768
965.9488, 179.7026
966.4309, 185.6719
966.9130, 187.0771
967.3951, 179.4062
967.8773, 173.5020
968.3594, 173.5967
968.8415, 173.0200
969.3236, 165.9214
969.8057, 156.0068
970.2878, 150.3662
970.7700, 150.4766
971.2521, 151.1270
971.7342, 151.4653
972.2163, 150.3613
972.6984, 146.4399
973.1805, 142.2495
973.6627, 140.1870
974.1448, 139.8389
974.6269, 140.0991
975.1090, 140.7725
975.5911, 138.4370
976.0732, 127.7925
976.5554, 115.8047
977.0375, 110.2783
977.5196, 108.5781
978.0017, 105.5264
978.4838, 100.0771
978.9659, 94.32568
979.4481, 90.01221
979.9302, 86.44629
980.4123, 81.72949
980.8944, 76.62109
981.3765, 72.83252
981.8586, 70.44580
982.3408, 69.56396
982.8229, 70.13477
983.3050, 71.36328
983.7871, 72.86719
984.2692, 73.40918
984.7513, 68.29639
985.2335, 58.05566
985.7156, 54.60693
986.1977, 59.66455
986.6798, 62.65283
987.1619, 58.90039
987.6440, 54.20215
988.1262, 54.75342
988.6083, 59.40088
989.0904, 62.76465
989.5725, 64.81543
990.0546, 65.33984
990.5367, 64.47412
991.0189, 61.24414
991.5010, 53.77539
991.9831, 45.92529
992.4652, 41.73682
992.9473, 41.08643
993.4294, 44.01318
993.9116, 54.50977
994.3937, 61.32861
994.8758, 60.41016
995.3579, 59.52734
995.8400, 62.48926
996.3221, 67.95410
996.8043, 74.98828
997.2864, 83.32959
997.7685, 87.59082
998.2506, 83.61768
998.7327, 81.78174
999.2148, 87.00684
999.6970, 92.11084
1000.179, 91.08887
1000.661, 87.47559
1001.143, 87.61182
1001.625, 92.42090
1002.108, 97.53516
1002.590, 102.4048
1003.072, 106.0396
1003.554, 106.2144
1004.036, 106.2671
1004.518, 110.3472
1005.000, 116.5229
1005.482, 119.7905
1005.964, 118.7700
1006.447, 118.4736
1006.929, 122.9463
1007.411, 128.1689
1007.893, 131.3838
1008.375, 133.1255
1008.857, 134.8931
1009.339, 136.1084
1009.821, 134.0176
1010.304, 127.6504
1010.786, 122.1362
1011.268, 122.6162
1011.750, 125.8550
1012.232, 128.4956
1012.714, 130.3804
1013.196, 131.8809
1013.678, 132.7974
1014.160, 131.7393
1014.643, 127.2646
1015.125, 122.6748
1015.607, 123.9702
1016.089, 121.4131
1016.571, 121.2280
1017.053, 122.7554
1017.535, 121.9707
1018.017, 125.3516
1018.500, 126.8740
1018.982, 122.9580
1019.464, 118.6445
1019.946, 122.6631
1020.428, 132.4824
1020.910, 136.0679
1021.392, 134.0884
1021.874, 133.4233
1022.356, 135.5410
1022.839, 135.4814
1023.321, 129.1660
1023.803, 120.1265
1024.285, 114.2031
1024.767, 111.3149
1025.249, 109.6846
1025.731, 109.1143
1026.213, 112.1782
1026.696, 120.6377
1027.178, 124.3145
1027.660, 115.2881
1028.142, 100.1680
1028.624, 91.83301
1029.106, 90.43750
1029.588, 93.47266
1030.070, 103.0708
1030.552, 106.9712
1031.035, 101.2114
1031.517, 92.73291
1031.999, 85.35010
1032.481, 79.72266
1032.963, 77.74365
1033.445, 80.11768
1033.927, 80.23779
1034.409, 77.01465
1034.891, 74.39111
1035.374, 73.39893
1035.856, 72.74561
1036.338, 71.44385
1036.820, 70.02588
1037.302, 70.17480
1037.784, 65.70117
1038.266, 70.57373
1038.748, 57.83545
1039.231, 48.03906
1039.713, 45.14600
1040.195, 44.04150
1040.677, 42.13818
1041.159, 39.27490
1041.641, 34.74268
1042.123, 27.67627
1042.605, 23.00732
1043.088, 20.86816
1043.570, 20.95020
1044.052, 26.54297
1044.534, 31.17188
1045.016, 30.61816
1045.498, 26.10547
1045.980, 18.84619
1046.462, 7.727051
1046.944, 1.896484
1047.427, 5.236816
1047.909, 9.684570
1048.391, 15.92041
1048.873, 19.70752
1049.355, 15.42041
1049.837, 7.721191
1050.319, 6.004395
1050.801, 11.74463
1051.283, 14.67383
1051.766, 12.44727
1052.248, 8.289551
1052.730, 0.9355470
1053.212, 5.864746
1053.694, 11.02930
1054.176, 13.36768
1054.658, 9.827148
1055.140, 1.8066000E-02
1055.623, 7.365723
1056.105, 7.791016
1056.587, 8.800293
1057.069, 15.58057
1057.551, 20.75195
1058.033, 17.11377
1058.515, 9.357422
1058.997, 4.871094
1059.479, 4.647461
1059.962, 6.159180
1060.444, 9.091309
1060.926, 13.03564
1061.408, 19.15967
1061.890, 24.71240
1062.372, 27.83594
1062.854, 29.05762
1063.336, 30.29688
1063.818, 31.30371
1064.301, 27.14111
1064.783, 10.43018
1065.265, 1.815430
1065.747, 0.1191410
1066.229, 5.232422
1066.711, 8.621094
1067.193, 10.16992
1067.675, 10.92334
1068.158, 10.93457
1068.640, 9.033691
1069.122, 2.856934
1069.604, 1.377930
1070.086, 2.187988
1070.568, 5.157227
1071.050, 1.865234
1071.532, 10.81689
1072.015, 9.193359
1072.497, 1.460938
1072.979, 7.844238
1073.461, 4.295410
1073.943, 0.4101560
1074.425, 0.3168950
1074.907, 1.518555
1075.389, 2.634277
1075.871, 3.845703
1076.354, 6.068848
1076.836, 8.666016
1077.318, 9.541992
1077.800, 7.863281
1078.282, 5.854980
1078.764, 5.184570
1079.246, 3.795410
1079.728, 2.281738
1080.210, 7.481934
1080.693, 2.715332
1081.175, 7.841797
1081.657, 11.65625
1082.139, 4.916992
1082.621, 1.110352
1083.103, 0.2304690
1083.585, 1.983887
1084.067, 2.716309
1084.549, 3.089355
1085.032, 4.303223
1085.514, 6.014648
1085.996, 7.013672
1086.478, 7.112305
1086.960, 8.234375
1087.442, 12.60986
1087.924, 15.99805
1088.406, 14.90137
1088.889, 13.44629
1089.371, 15.87891
1089.853, 19.93848
1090.335, 21.49219
1090.817, 20.03418
1091.299, 18.21582
1091.781, 15.61133
1092.263, 15.07178
1092.745, 18.88135
1093.228, 23.95850
1093.710, 30.18359
1094.192, 35.02344
1094.674, 34.58057
1095.156, 29.26855
1095.638, 23.23096
1096.120, 16.71924
1096.602, 12.00098
1097.084, 10.67529
1097.567, 10.51416
1098.049, 10.00879
1098.531, 10.10107
1099.013, 12.46777
1099.495, 16.53418
1099.977, 20.82275
1100.459, 26.31641
1100.941, 26.22363
1101.424, 11.36426
1101.906, 4.4922002E-02
1102.388, 2.288086
1102.870, 8.799805
1103.352, 13.36621
1103.834, 15.06299
1104.316, 11.83252
1104.798, 2.609375
1105.281, 1.863281
1105.763, 4.571777
1106.245, 10.44873
1106.727, 11.92236
1107.209, 12.40918
1107.691, 13.41602
1108.173, 15.41064
1108.655, 20.52979
1109.137, 28.47852
1109.620, 30.14258
1110.102, 16.32812
1110.584, 8.567383
1111.066, 15.81396
1111.548, 21.78564
1112.030, 17.06689
1112.512, 9.504395
1112.994, 8.271484
1113.476, 11.97754
1113.959, 13.12891
1114.441, 9.197754
1114.923, 7.670898
1115.405, 12.34961
1115.887, 14.30322
1116.369, 7.911621
1116.851, 1.408203
1117.333, 2.906738
1117.816, 8.658203
1118.298, 7.481934
1118.780, 11.49463
1119.262, 17.51074
1119.744, 14.01172
1120.226, 16.58936
1120.708, 21.64209
1121.190, 14.10791
1121.672, 7.400879
1122.155, 3.107422
1122.637, 4.173340
1123.119, 10.43555
1123.601, 17.21338
1124.083, 27.22363
1124.565, 28.18945
1125.047, 15.00098
1125.529, 3.690430
1126.011, 0.8056640
1126.494, 2.946777
1126.976, 7.208008
1127.458, 12.84863
1127.940, 16.73047
1128.422, 18.67041
1128.904, 19.50146
1129.386, 18.65869
1129.868, 17.60400
1130.351, 16.86035
1130.833, 15.67383
1131.315, 13.64746
1131.797, 11.48438
1132.279, 10.60791
1132.761, 10.91895
1133.243, 11.27002
1133.725, 11.59814
1134.208, 18.79297
1134.690, 34.42334
1135.172, 43.05127
1135.654, 36.51953
1136.136, 23.78906
1136.618, 15.46436
1137.100, 10.09326
1137.582, 2.102051
1138.064, 7.551758
1138.547, 11.89697
1139.029, 10.83447
1139.511, 6.915039
1139.993, 1.219238
1140.475, 3.106934
1140.957, 3.527344
1141.439, 2.143555
1141.921, 2.045898
1142.403, 2.704102
1142.886, 2.524414
1143.368, 1.784180
1143.850, 0.7294920
1144.332, 8.1055000E-02
1144.814, 3.606934
1145.296, 13.30273
1145.778, 22.05908
1146.260, 20.61816
1146.743, 16.30127
1147.225, 19.25928
1147.707, 25.48828
1148.189, 28.71777
1148.671, 29.35938
1149.153, 31.06543
1149.635, 34.57178
1150.117, 36.86719
1150.599, 35.52246
1151.082, 33.84375
1151.564, 34.59180
1152.046, 35.84668
1152.528, 36.18945
1153.010, 35.52148
1153.492, 33.72461
1153.974, 30.77832
1154.456, 25.62305
1154.938, 16.49609
1155.421, 12.84863
1155.903, 23.95020
1156.385, 34.86328
1156.867, 38.50684
1157.349, 38.81836
1157.831, 37.22070
1158.313, 35.85840
1158.795, 39.41211
1159.278, 48.33398
1159.760, 52.90430
1160.242, 50.52930
1160.724, 46.10840
1161.206, 36.26562
1161.688, 29.37793
1162.170, 31.28516
1162.652, 36.01660
1163.135, 36.25488
1163.617, 34.29102
1164.099, 39.48340
1164.581, 56.24805
1165.063, 62.96191
1165.545, 53.36816
1166.027, 48.24707
1166.509, 54.48242
1166.991, 60.66504
1167.474, 59.44434
1167.956, 53.85059
1168.438, 48.96191
1168.920, 45.07031
1169.402, 44.21777
1169.884, 46.73730
1170.366, 49.89062
1170.848, 53.80762
1171.330, 54.20801
1171.813, 48.98242
1172.295, 46.60645
1172.777, 55.51758
1173.259, 68.90723
1173.741, 72.06250
1174.223, 66.69824
1174.705, 60.65918
1175.187, 54.51953
1175.670, 49.24609
1176.152, 45.48438
1176.634, 47.83594
1177.116, 58.40820
1177.598, 66.88184
1178.080, 60.63477
1178.562, 49.40137
1179.044, 49.64355
1179.526, 43.83008
1180.009, 41.21387
1180.491, 42.09961
1180.973, 40.33496
1181.455, 46.75293
1181.937, 50.43066
1182.419, 45.11035
1182.901, 38.78613
1183.383, 36.82812
1183.865, 36.62891
1184.348, 36.19141
1184.830, 36.47070
1185.312, 39.59668
1185.794, 44.13477
1186.276, 45.81641
1186.758, 43.88379
1187.240, 44.87109
1187.722, 55.23340
1188.205, 62.03809
1188.687, 58.85449
1189.169, 54.79297
1189.651, 55.88184
1190.133, 57.61523
1190.615, 54.50391
1191.097, 47.63965
1191.579, 42.20996
1192.062, 37.98340
1192.544, 35.89941
1193.026, 37.02246
1193.508, 38.20117
1193.990, 38.78906
1194.472, 39.12109
1194.954, 39.53809
1195.436, 39.79883
1195.918, 39.21680
1196.401, 38.33887
1196.883, 35.53809
1197.365, 29.89648
1197.847, 34.87305
1198.329, 51.54980
1198.811, 54.48047
1199.293, 36.69238
1199.775, 17.88086
1200.257, 10.73242
1200.740, 11.74512
1201.222, 17.45898
1201.704, 26.40527
1202.186, 37.41016
1202.668, 47.96289
1203.150, 49.20508
1203.632, 42.80859
1204.114, 37.27930
1204.597, 35.42285
1205.079, 36.46289
1205.561, 41.45312
1206.043, 44.23828
1206.525, 36.80566
1207.007, 27.22070
1207.489, 23.62305
1207.971, 22.82422
1208.453, 20.53809
1208.936, 16.64453
1209.418, 11.89844
1209.900, 6.434570
1210.382, 3.760742
1210.864, 6.592773
1211.346, 9.952148
1211.828, 10.49512
1212.310, 13.65527
1212.792, 27.88672
1213.275, 41.88281
1213.757, 40.55078
1214.239, 28.64551
1214.721, 23.30664
1215.203, 26.50195
1215.685, 25.49121
1216.167, 16.53516
1216.649, 14.80566
1217.132, 26.00391
1217.614, 34.26270
1218.096, 31.32129
1218.578, 23.07520
1219.060, 15.88281
1219.542, 10.08789
1220.024, 7.664063
1220.506, 2.271484
1220.989, 4.194336
1221.471, 3.165039
1221.953, 6.851563
1222.435, 5.648438
1222.917, 3.654297
1223.399, 3.015625
1223.881, 2.666016
1224.363, 2.935547
1224.845, 1.052734
1225.328, 10.16895
1225.810, 23.46191
1226.292, 27.62207
1226.774, 25.27832
1227.256, 22.79297
1227.738, 21.47559
1228.220, 20.30176
1228.702, 19.04492
1229.184, 18.08789
1229.667, 13.81445
1230.149, 12.27344
1230.631, 18.12500
1231.113, 25.35938
1231.595, 30.91016
1232.077, 34.56250
1232.559, 35.97363
1233.041, 35.08105
1233.524, 31.37793
1234.006, 21.74219
1234.488, 18.10645
1234.970, 22.17871
1235.452, 28.23438
1235.934, 36.06738
1236.416, 42.91895
1236.898, 47.76758
1237.380, 48.10938
1237.863, 38.06055
1238.345, 21.88867
1238.827, 17.51367
1239.309, 23.33887
1239.791, 30.00684
1240.273, 36.46875
1240.755, 40.55859
1241.237, 41.83008
1241.719, 41.30469
1242.202, 39.41992
1242.684, 38.49902
1243.166, 41.60938
1243.648, 44.77148
1244.130, 42.59473
1244.612, 46.30664
1245.094, 42.63184
1245.576, 48.36719
1246.059, 50.29004
1246.541, 48.15820
1247.023, 46.34863
1247.505, 47.70410
1247.987, 44.28516
1248.469, 27.54785
1248.951, 14.87695
1249.433, 15.63770
1249.916, 17.99121
1250.398, 12.08887
1250.880, 4.774414
1251.362, 5.659180
1251.844, 12.91016
1252.326, 16.87500
1252.808, 17.03516
1253.290, 11.42773
1253.772, 1.962891
1254.255, 5.514648
1254.737, 6.958984
1255.219, 18.31055
1255.701, 19.23047
1256.183, 15.18457
1256.665, 7.408203
1257.147, 0.4667970
1257.629, 8.417969
1258.111, 22.15918
1258.594, 20.00391
1259.076, 8.063477
1259.558, 2.018555
1260.040, 3.219727
1260.522, 4.780273
1261.004, 4.650391
1261.486, 6.745117
1261.968, 16.58008
1262.451, 23.64941
1262.933, 19.05469
1263.415, 15.34961
1263.897, 23.80469
1264.379, 34.32617
1264.861, 35.19141
1265.343, 28.76562
1265.825, 24.23047
1266.307, 22.05957
1266.790, 18.57031
1267.272, 12.26758
1267.754, 8.438477
1268.236, 8.208984
1268.718, 10.61426
1269.200, 16.30566
1269.682, 25.05566
1270.164, 35.00195
1270.646, 40.96680
1271.129, 30.57910
1271.611, 9.493164
1272.093, 8.578125
1272.575, 21.95898
1273.057, 25.22461
1273.539, 19.69727
1274.021, 16.22168
1274.503, 17.81543
1274.986, 17.94434
1275.468, 13.71387
1275.950, 10.75977
1276.432, 14.36914
1276.914, 17.57812
1277.396, 16.15332
1277.878, 13.18164
1278.360, 9.779297
1278.843, 6.478516
1279.325, 2.401367
1279.807, 1.0742000E-02
1280.289, 3.009766
1280.771, 14.07324
1281.253, 19.04492
1281.735, 17.74805
1282.217, 15.10840
1282.699, 10.96289
1283.182, 6.126953
1283.664, 2.737305
1284.146, 0.9150390
1284.628, 4.6875000E-02
1285.110, 4.4922002E-02
1285.592, 0.1562500
1286.074, 0.0000000E+00
##END=



