##NAMES=Kunatite
##RRUFFID=R120055
##IDEAL CHEMISTRY=Cu^2+^Fe^3+^_2_(P^5+^O_4_)_2_(OH)_2_&#183;4H_2_O
##LOCALITY=Krasno, Horni Slakov, Bohemia, Czech Republic
##OWNER=RRUFF
##SOURCE=William W Pinch
##DESCRIPTION=Spherical aggregates of pale green acicular crystals on quartz, associated with triplite
##STATUS=The identification of this mineral is not yet confirmed.
##URL=rruff.info/R120055
118.1981, 0.0000000E+00
118.6802, 0.1082310
119.1623, 9.7159997E-02
119.6444, 1.481140
120.1266, 3.035835
120.6087, 4.337166
121.0908, 5.354111
121.5729, 6.260597
122.0550, 6.982201
122.5371, 7.638237
123.0193, 8.208252
123.5014, 8.637527
123.9835, 9.343719
124.4656, 11.38366
124.9477, 13.48804
125.4298, 14.18535
125.9120, 12.41786
126.3941, 9.624611
126.8762, 9.262604
127.3583, 13.00626
127.8404, 16.47946
128.3225, 18.20052
128.8047, 18.93277
129.2868, 19.70458
129.7689, 21.20289
130.2510, 23.35499
130.7331, 25.08084
131.2152, 26.33069
131.6974, 27.16283
132.1795, 27.39189
132.6616, 27.16664
133.1437, 26.79218
133.6258, 26.51572
134.1079, 26.33458
134.5901, 26.29450
135.0722, 26.73122
135.5543, 27.02192
136.0364, 26.68498
136.5185, 25.72615
137.0006, 24.62721
137.4828, 23.94357
137.9649, 23.76480
138.4470, 23.61819
138.9291, 23.59838
139.4112, 23.56168
139.8933, 23.41093
140.3755, 23.17407
140.8576, 22.69314
141.3397, 21.70630
141.8218, 20.27985
142.3039, 18.57948
142.7860, 16.07114
143.2681, 13.17665
143.7503, 11.56335
144.2324, 12.40279
144.7145, 13.76852
145.1966, 13.94377
145.6787, 12.90517
146.1608, 11.40810
146.6430, 10.03906
147.1251, 8.815506
147.6072, 7.529663
148.0893, 5.452034
148.5714, 3.743134
149.0535, 3.319382
149.5357, 4.320023
150.0178, 5.835335
150.4999, 6.427658
150.9820, 5.421661
151.4641, 4.970612
151.9462, 6.042938
152.4284, 7.224861
152.9105, 7.146973
153.3926, 5.342064
153.8747, 2.691887
154.3568, 1.429657
154.8389, 3.594788
155.3211, 4.787743
155.8032, 3.999138
156.2853, 2.369514
156.7674, 1.381721
157.2495, 1.831177
157.7316, 3.248970
158.2138, 3.623756
158.6959, 1.591255
159.1780, 0.4034040
159.6601, 1.209450
160.1422, 3.252899
160.6243, 4.822701
161.1065, 5.444107
161.5886, 5.900345
162.0707, 5.815041
162.5528, 4.694344
163.0349, 4.364113
163.5170, 5.808235
163.9991, 8.383789
164.4813, 10.59031
164.9634, 11.36544
165.4455, 11.11644
165.9276, 11.26000
166.4097, 10.90366
166.8918, 10.57947
167.3740, 11.01862
167.8561, 12.31506
168.3382, 14.04592
168.8203, 16.37173
169.3024, 18.88599
169.7845, 21.08671
170.2667, 22.73159
170.7488, 23.97090
171.2309, 25.07748
171.7130, 25.83181
172.1951, 26.88439
172.6772, 28.60426
173.1594, 30.70975
173.6415, 32.79469
174.1236, 34.56110
174.6057, 36.11309
175.0878, 38.08100
175.5699, 40.86974
176.0521, 43.70795
176.5342, 46.22833
177.0163, 48.61343
177.4984, 51.19398
177.9805, 54.30951
178.4626, 57.97436
178.9448, 60.84750
179.4269, 62.15451
179.9090, 63.43863
180.3911, 65.09694
180.8732, 67.11414
181.3553, 69.37423
181.8375, 71.88667
182.3196, 74.79015
182.8017, 76.37286
183.2838, 76.00644
183.7659, 75.20695
184.2480, 74.90952
184.7301, 75.00406
185.2123, 74.52406
185.6944, 72.39053
186.1765, 68.27400
186.6586, 65.38869
187.1407, 65.44172
187.6228, 65.50808
188.1050, 63.04451
188.5871, 57.86905
189.0692, 52.20801
189.5513, 48.16547
190.0334, 45.75220
190.5155, 43.50118
190.9977, 41.91175
191.4798, 40.13211
191.9619, 36.84262
192.4440, 31.62286
192.9261, 26.29229
193.4082, 23.04005
193.8904, 21.22451
194.3725, 18.95147
194.8546, 14.80669
195.3367, 9.939079
195.8188, 6.745682
196.3009, 5.897766
196.7831, 5.720123
197.2652, 5.093956
197.7473, 4.123161
198.2294, 3.056946
198.7115, 1.838127
199.1936, 0.5749440
199.6758, 0.2275850
200.1579, 0.3667370
200.6400, 0.2714310
201.1221, 0.1424870
201.6042, 1.0094000E-02
202.0863, 0.1972580
202.5685, 0.7687150
203.0506, 1.630775
203.5327, 0.9920200
204.0148, 3.403263
204.4969, 6.974937
204.9790, 7.474129
205.4612, 5.679218
205.9433, 3.646542
206.4254, 3.108917
206.9075, 4.166351
207.3896, 4.784626
207.8717, 5.037518
208.3539, 4.741810
208.8360, 3.291950
209.3181, 1.127060
209.8002, 0.6883390
210.2823, 1.133156
210.7644, 1.5488000E-02
211.2466, 0.7888030
211.7287, 0.9655950
212.2108, 1.150681
212.6929, 2.102520
213.1750, 3.426071
213.6571, 3.869343
214.1393, 2.116135
214.6214, 2.323700
215.1035, 5.550125
215.5856, 7.350937
216.0677, 8.450222
216.5498, 8.961449
217.0320, 9.027809
217.5141, 9.000488
217.9962, 9.221756
218.4783, 9.746239
218.9604, 9.931881
219.4425, 9.184814
219.9247, 8.608776
220.4068, 8.828491
220.8889, 9.874649
221.3710, 11.57684
221.8531, 14.10711
222.3352, 17.47458
222.8174, 19.24944
223.2995, 17.65131
223.7816, 15.77494
224.2637, 16.12982
224.7458, 18.78640
225.2279, 21.90156
225.7100, 24.01417
226.1922, 25.23613
226.6743, 26.76834
227.1564, 29.18208
227.6385, 31.62062
228.1206, 33.09147
228.6027, 33.51659
229.0849, 33.97203
229.5670, 35.36691
230.0491, 37.39820
230.5312, 39.21718
231.0133, 40.22111
231.4954, 41.20613
231.9776, 43.16331
232.4597, 46.19698
232.9418, 49.47203
233.4239, 52.49706
233.9060, 55.43182
234.3881, 58.53833
234.8703, 61.95549
235.3524, 65.51018
235.8345, 69.02910
236.3166, 72.55938
236.7987, 75.93414
237.2808, 78.90443
237.7630, 81.73460
238.2451, 84.85760
238.7272, 88.71714
239.2093, 92.47491
239.6914, 94.54587
240.1735, 94.38489
240.6557, 94.29578
241.1378, 95.11439
241.6199, 96.45950
242.1020, 98.24844
242.5841, 100.6538
243.0662, 102.8485
243.5484, 103.2314
244.0305, 101.1629
244.5126, 98.98627
244.9947, 97.18296
245.4768, 95.64497
245.9589, 94.43596
246.4410, 93.60546
246.9232, 92.75105
247.4053, 91.10590
247.8874, 88.37197
248.3695, 85.52489
248.8516, 82.11266
249.3337, 79.02845
249.8159, 77.26463
250.2980, 77.07385
250.7801, 77.43533
251.2622, 76.60675
251.7443, 74.11406
252.2264, 71.44337
252.7086, 68.70993
253.1907, 65.90057
253.6728, 62.80680
254.1549, 59.45093
254.6370, 56.26326
255.1191, 53.94115
255.6013, 52.95965
256.0834, 51.87211
256.5655, 51.07423
257.0476, 49.87099
257.5297, 47.44868
258.0118, 43.87592
258.4940, 40.15222
258.9761, 37.63056
259.4582, 36.76022
259.9403, 36.05506
260.4224, 35.97340
260.9045, 35.69418
261.3867, 34.39033
261.8688, 31.90303
262.3509, 29.22815
262.8330, 27.71862
263.3151, 27.99347
263.7972, 27.89417
264.2794, 27.11639
264.7615, 26.05612
265.2436, 24.97863
265.7257, 23.93432
266.2078, 22.85745
266.6899, 21.68418
267.1721, 20.37210
267.6542, 19.60364
268.1363, 19.50018
268.6184, 19.49127
269.1005, 19.44653
269.5826, 19.33541
270.0648, 18.96503
270.5469, 18.00576
271.0290, 16.38245
271.5111, 16.03182
271.9932, 18.05804
272.4753, 20.33757
272.9575, 21.92615
273.4396, 22.81438
273.9217, 23.18768
274.4038, 23.12954
274.8859, 22.66472
275.3680, 22.09378
275.8501, 20.21890
276.3322, 19.50971
276.8144, 21.83770
277.2965, 25.99040
277.7786, 29.19336
278.2607, 29.83695
278.7428, 28.54295
279.2249, 27.96135
279.7071, 28.64516
280.1892, 29.23457
280.6713, 29.00733
281.1534, 28.50156
281.6355, 28.78614
282.1176, 30.40338
282.5998, 32.80175
283.0819, 34.53035
283.5640, 35.36429
284.0461, 36.10145
284.5282, 36.69528
285.0103, 37.34108
285.4925, 38.42295
285.9746, 40.11348
286.4567, 41.99738
286.9388, 43.33282
287.4209, 43.91755
287.9030, 44.67802
288.3852, 45.94238
288.8673, 47.37849
289.3494, 48.66266
289.8315, 49.73162
290.3136, 50.44484
290.7957, 50.47733
291.2779, 49.69567
291.7600, 49.29089
292.2421, 49.22809
292.7242, 49.67974
293.2063, 51.28058
293.6884, 54.07290
294.1706, 56.41917
294.6527, 56.49144
295.1348, 54.25197
295.6169, 53.10168
296.0990, 53.71810
296.5811, 55.05939
297.0633, 56.66486
297.5454, 58.41551
298.0275, 59.66266
298.5096, 59.73891
298.9917, 58.86934
299.4738, 58.67305
299.9560, 59.37998
300.4381, 60.53030
300.9202, 62.26116
301.4023, 64.38280
301.8844, 65.87402
302.3665, 66.09858
302.8487, 65.44855
303.3308, 65.14869
303.8129, 65.17701
304.2950, 65.51653
304.7771, 66.52892
305.2592, 67.93470
305.7414, 68.95869
306.2235, 69.24622
306.7056, 69.12498
307.1877, 69.22574
307.6698, 69.59592
308.1519, 69.94078
308.6341, 69.99960
309.1162, 70.00631
309.5983, 70.71918
310.0804, 72.50758
310.5625, 73.95799
311.0446, 72.77878
311.5268, 68.92154
312.0089, 65.95115
312.4910, 65.09262
312.9731, 65.23842
313.4552, 65.41833
313.9373, 65.53376
314.4195, 64.85264
314.9016, 62.10557
315.3837, 57.53154
315.8658, 54.56702
316.3479, 54.90803
316.8300, 55.58797
317.3121, 53.92326
317.7943, 50.12627
318.2764, 46.80005
318.7585, 45.92076
319.2406, 46.92584
319.7227, 46.81272
320.2048, 44.86985
320.6870, 42.39788
321.1691, 40.08161
321.6512, 37.93039
322.1333, 35.84839
322.6154, 33.78128
323.0975, 31.70844
323.5797, 29.66843
324.0618, 27.62445
324.5439, 25.62952
325.0260, 23.67246
325.5081, 21.83116
325.9902, 20.10878
326.4724, 18.40222
326.9545, 16.77333
327.4366, 15.43772
327.9187, 14.38030
328.4008, 13.57324
328.8829, 13.30100
329.3651, 13.15085
329.8472, 12.57476
330.3293, 11.47404
330.8114, 10.27452
331.2935, 9.397953
331.7756, 8.896065
332.2578, 8.413803
332.7399, 7.482590
333.2220, 6.872810
333.7041, 7.640560
334.1862, 9.608620
334.6683, 11.14727
335.1505, 11.04686
335.6326, 9.313442
336.1147, 7.176548
336.5968, 3.494476
337.0789, 0.7392430
337.5610, 0.2314110
338.0432, 1.447124
338.5253, 3.400085
339.0074, 5.858715
339.4895, 8.276165
339.9716, 8.849491
340.4537, 6.526825
340.9359, 4.610714
341.4180, 3.748497
341.9001, 3.622082
342.3822, 4.050259
342.8643, 4.982410
343.3464, 5.877995
343.8286, 5.908539
344.3107, 4.557453
344.7928, 3.846825
345.2749, 4.232285
345.7570, 4.959881
346.2391, 5.584743
346.7213, 6.009911
347.2034, 6.186092
347.6855, 6.044075
348.1676, 5.565022
348.6497, 5.045635
349.1318, 4.037281
349.6140, 3.435940
350.0961, 4.106308
350.5782, 5.505878
351.0603, 6.270771
351.5424, 5.509815
352.0245, 3.712723
352.5067, 3.002354
352.9888, 4.822971
353.4709, 5.941242
353.9530, 5.375198
354.4351, 4.135872
354.9172, 3.363857
355.3994, 3.463654
355.8815, 4.158524
356.3636, 5.092587
356.8457, 7.152534
357.3278, 7.465542
357.8099, 4.336349
358.2920, 0.8885650
358.7741, 0.5674670
359.2563, 1.3401000E-02
359.7384, 1.075592
360.2205, 1.051605
360.7026, 0.2417830
361.1847, 0.8468480
361.6668, 0.1710430
362.1490, 0.5308190
362.6311, 0.7512020
363.1132, 0.6973500
363.5953, 0.8698840
364.0774, 1.607277
364.5595, 2.701408
365.0417, 3.272331
365.5238, 3.237068
366.0059, 2.708149
366.4880, 0.9647030
366.9701, 0.8671340
367.4522, 1.520546
367.9344, 0.6422580
368.4165, 0.8570180
368.8986, 1.539059
369.3807, 1.044128
369.8628, 0.6923870
370.3449, 0.8339200
370.8271, 0.8666040
371.3092, 0.4662930
371.7913, 0.3614690
372.2734, 1.478893
372.7555, 3.063076
373.2376, 5.057240
373.7198, 5.440567
374.2019, 2.729378
374.6840, 0.1505970
375.1661, 1.484108
375.6482, 2.250172
376.1303, 2.157501
376.6125, 1.030865
377.0946, 0.5187680
377.5767, 0.9898570
378.0588, 0.1301040
378.5409, 0.8758470
379.0230, 0.3682900
379.5052, 0.5152130
379.9873, 1.163822
380.4694, 1.452976
380.9515, 1.530369
381.4336, 1.467331
381.9157, 1.268528
382.3979, 1.235004
382.8800, 1.852520
383.3621, 2.069893
383.8442, 0.7880550
384.3263, 1.544529
384.8084, 3.327831
385.2906, 3.369656
385.7727, 2.309685
386.2548, 1.559132
386.7369, 1.161419
387.2190, 0.9302710
387.7011, 0.9300580
388.1833, 0.9859810
388.6654, 0.8189770
389.1475, 0.2784730
389.6296, 0.3157920
390.1117, 0.6242220
390.5938, 0.6954000
391.0760, 0.9917490
391.5581, 1.974838
392.0402, 2.841137
392.5223, 2.337700
393.0044, 0.3790440
393.4865, 1.476612
393.9687, 2.785954
394.4508, 3.561668
394.9329, 3.681042
395.4150, 3.082279
395.8971, 2.257626
396.3792, 1.293114
396.8614, 0.3645060
397.3435, 0.7942470
397.8256, 4.195736
398.3077, 7.618786
398.7898, 9.016113
399.2719, 8.746418
399.7540, 8.260765
400.2361, 8.285854
400.7183, 8.560482
401.2004, 8.257004
401.6825, 6.698479
402.1646, 5.825031
402.6467, 6.598621
403.1288, 7.946945
403.6110, 8.393597
404.0931, 7.671204
404.5752, 7.051228
405.0573, 8.191921
405.5394, 11.71024
406.0215, 13.81971
406.5037, 13.19149
406.9858, 12.59721
407.4679, 13.64744
407.9500, 15.88482
408.4321, 17.99446
408.9142, 19.20360
409.3964, 19.56544
409.8785, 19.33408
410.3606, 17.40177
410.8427, 16.32959
411.3248, 17.08292
411.8069, 18.36121
412.2891, 18.63796
412.7712, 17.64061
413.2533, 16.67284
413.7354, 17.78944
414.2175, 21.90328
414.6996, 24.45152
415.1818, 24.15000
415.6639, 23.41384
416.1460, 22.83211
416.6281, 22.52948
417.1102, 22.67336
417.5923, 23.37289
418.0745, 24.50834
418.5566, 25.68297
419.0387, 26.80245
419.5208, 28.15849
420.0029, 30.79533
420.4850, 33.10976
420.9672, 33.07287
421.4493, 30.12868
421.9314, 26.97136
422.4135, 26.51895
422.8956, 28.64842
423.3777, 30.75662
423.8599, 32.54161
424.3420, 34.10703
424.8241, 35.48658
425.3062, 36.70446
425.7883, 37.86606
426.2704, 39.26293
426.7526, 40.42550
427.2347, 40.42522
427.7168, 39.17535
428.1989, 38.29929
428.6810, 39.05701
429.1631, 40.53313
429.6453, 40.59409
430.1274, 38.57280
430.6095, 36.50712
431.0916, 35.85437
431.5737, 35.89108
432.0558, 34.90281
432.5380, 32.27572
433.0201, 29.42470
433.5022, 28.19161
433.9843, 28.85198
434.4664, 29.09827
434.9485, 28.07520
435.4307, 27.19833
435.9128, 27.91833
436.3949, 29.73411
436.8770, 30.87338
437.3591, 30.17805
437.8412, 28.23780
438.3234, 27.29771
438.8055, 28.42505
439.2876, 29.24455
439.7697, 29.65698
440.2518, 29.66346
440.7339, 29.15490
441.2160, 28.18350
441.6982, 27.01207
442.1803, 25.77162
442.6624, 24.27066
443.1445, 23.32922
443.6266, 23.40279
444.1087, 23.57755
444.5909, 23.36021
445.0730, 23.09825
445.5551, 23.50716
446.0372, 25.02541
446.5193, 27.02880
447.0014, 27.97114
447.4836, 27.28111
447.9657, 27.19090
448.4478, 29.03218
448.9299, 30.94124
449.4120, 31.70437
449.8941, 31.27859
450.3763, 30.44629
450.8584, 29.87760
451.3405, 29.39012
451.8226, 28.19836
452.3047, 25.87840
452.7868, 23.89800
453.2690, 23.48581
453.7511, 23.87951
454.2332, 24.02753
454.7153, 23.56297
455.1974, 23.06848
455.6795, 23.18840
456.1617, 23.70691
456.6438, 23.54009
457.1259, 22.07339
457.6080, 20.47852
458.0901, 20.62028
458.5722, 22.49097
459.0544, 23.68790
459.5365, 23.45695
460.0186, 22.61205
460.5007, 21.57763
460.9828, 20.50088
461.4649, 19.86716
461.9471, 20.06212
462.4292, 20.89049
462.9113, 21.33089
463.3934, 20.87702
463.8755, 20.42150
464.3576, 20.22504
464.8398, 20.05281
465.3219, 19.53304
465.8040, 18.64712
466.2861, 17.83490
466.7682, 17.65845
467.2503, 18.25721
467.7325, 18.11665
468.2146, 16.22847
468.6967, 14.66865
469.1788, 13.99725
469.6609, 14.03816
470.1430, 14.50883
470.6252, 15.29131
471.1073, 16.19304
471.5894, 17.06063
472.0715, 18.18988
472.5536, 17.96137
473.0357, 14.59466
473.5179, 11.11099
474.0000, 9.241356
474.4821, 8.812374
474.9642, 8.630783
475.4463, 8.083981
475.9284, 7.343430
476.4106, 6.454727
476.8927, 5.235359
477.3748, 4.834953
477.8569, 6.363747
478.3390, 8.786171
478.8211, 10.54407
479.3033, 11.62259
479.7854, 11.85854
480.2675, 10.50428
480.7496, 8.413029
481.2317, 7.193478
481.7138, 7.147915
482.1959, 7.490540
482.6780, 7.563759
483.1602, 7.369228
483.6423, 7.267651
484.1244, 7.568836
484.6065, 7.624279
485.0886, 6.919178
485.5707, 5.839790
486.0529, 4.992786
486.5350, 4.605209
487.0171, 4.672554
487.4992, 5.215092
487.9813, 6.402103
488.4634, 7.636841
488.9456, 9.296734
489.4277, 10.64054
489.9098, 11.42454
490.3919, 11.59050
490.8740, 10.91353
491.3561, 9.088352
491.8383, 6.820164
492.3204, 6.275791
492.8025, 8.316769
493.2846, 9.707180
493.7667, 8.951061
494.2488, 7.901554
494.7310, 7.964283
495.2131, 9.112724
495.6952, 10.06824
496.1773, 9.584045
496.6594, 8.261364
497.1415, 7.971882
497.6237, 9.054916
498.1058, 9.688713
498.5879, 8.210064
499.0700, 5.896847
499.5521, 5.304611
500.0342, 7.233189
500.5164, 9.230835
500.9985, 10.37401
501.4806, 10.69829
501.9627, 10.09116
502.4448, 8.518284
502.9269, 6.603352
503.4091, 4.705822
503.8912, 2.809418
504.3733, 2.544983
504.8554, 5.647503
505.3375, 8.255795
505.8196, 8.911556
506.3018, 8.216911
506.7839, 6.879837
507.2660, 5.213074
507.7481, 3.711849
508.2302, 3.228786
508.7123, 4.125233
509.1945, 4.732193
509.6766, 4.868633
510.1587, 4.892700
510.6408, 4.863609
511.1229, 4.831100
511.6050, 4.858559
512.0872, 4.977242
512.5693, 5.173153
513.0514, 5.633724
513.5335, 6.510708
514.0156, 6.386921
514.4977, 3.809998
514.9799, 1.294563
515.4620, 1.383442
515.9441, 3.657696
516.4262, 5.215694
516.9083, 3.899509
517.3904, 1.746517
517.8726, 1.934902
518.3547, 4.257584
518.8368, 5.205902
519.3189, 2.577396
519.8010, 1.773544
520.2831, 3.394894
520.7653, 1.420910
521.2474, 8.6594000E-02
521.7295, 4.7061998E-02
522.2116, 0.5735740
522.6937, 0.3569790
523.1758, 0.5928840
523.6580, 1.619751
524.1401, 2.280220
524.6222, 2.581600
525.1043, 2.554520
525.5864, 2.057663
526.0685, 1.404179
526.5507, 8.9221999E-02
527.0328, 1.001453
527.5149, 0.9495390
527.9970, 0.2241400
528.4791, 1.591251
528.9612, 2.534271
529.4434, 3.015556
529.9255, 2.608395
530.4076, 0.7598720
530.8897, 0.6885760
531.3718, 0.3242110
531.8539, 0.5532990
532.3361, 0.4460560
532.8182, 1.031567
533.3003, 2.326077
533.7824, 2.285248
534.2645, 1.366508
534.7466, 0.5884360
535.2288, 0.1036680
535.7109, 0.6465910
536.1930, 2.438915
536.6751, 4.872612
537.1572, 5.570709
537.6393, 2.800007
538.1215, 0.5741580
538.6036, 0.2578390
539.0857, 0.9990960
539.5678, 1.813023
540.0499, 2.461689
540.5320, 3.222710
541.0142, 4.510506
541.4963, 6.373947
541.9784, 7.078815
542.4604, 5.329739
542.9426, 3.917503
543.4247, 3.827290
543.9068, 4.156689
544.3889, 3.526295
544.8710, 1.652340
545.3531, 0.1999360
545.8353, 1.399239
546.3174, 4.999710
546.7995, 8.054661
547.2816, 10.58087
547.7637, 12.18468
548.2458, 11.79455
548.7280, 10.47943
549.2101, 10.03130
549.6922, 11.17937
550.1743, 12.30135
550.6564, 12.34871
551.1385, 11.64352
551.6207, 10.65050
552.1028, 9.447906
552.5849, 8.688511
553.0670, 9.191593
553.5491, 10.96505
554.0313, 11.55777
554.5134, 10.16454
554.9955, 8.743877
555.4776, 7.464516
555.9597, 6.615124
556.4418, 6.742290
556.9240, 7.883236
557.4061, 9.264481
557.8882, 10.06590
558.3703, 10.30830
558.8524, 10.04110
559.3345, 8.379848
559.8167, 7.377716
560.2988, 8.491367
560.7809, 10.20765
561.2630, 10.30409
561.7451, 8.034626
562.2272, 6.208702
562.7094, 8.209999
563.1915, 12.72083
563.6736, 15.01394
564.1557, 14.19382
564.6378, 12.62354
565.1199, 11.57233
565.6021, 11.18956
566.0842, 11.81322
566.5663, 14.24806
567.0484, 16.53317
567.5305, 17.82511
568.0126, 18.68365
568.4948, 20.24788
568.9769, 22.48597
569.4590, 23.65482
569.9411, 21.87129
570.4232, 17.52476
570.9053, 15.06069
571.3875, 15.24072
571.8696, 16.06230
572.3517, 17.90827
572.8338, 19.81370
573.3159, 20.94236
573.7980, 21.16691
574.2802, 20.81658
574.7623, 19.94616
575.2444, 18.71686
575.7265, 17.93589
576.2086, 17.91290
576.6907, 17.18896
577.1729, 14.12806
577.6550, 10.29893
578.1371, 8.610977
578.6192, 9.972252
579.1013, 10.66554
579.5834, 7.936565
580.0656, 4.544725
580.5477, 4.218248
581.0298, 6.787210
581.5119, 9.021423
581.9940, 8.755051
582.4761, 6.751152
582.9583, 5.757536
583.4404, 7.461662
583.9225, 7.617922
584.4046, 4.592037
584.8867, 1.370186
585.3688, 9.5279999E-02
585.8510, 0.1678030
586.3331, 1.095907
586.8152, 2.133286
587.2973, 3.232616
587.7794, 4.281261
588.2615, 5.330648
588.7437, 5.972862
589.2258, 6.153057
589.7079, 5.884666
590.1900, 4.648272
590.6721, 2.708467
591.1542, 2.072166
591.6364, 4.921568
592.1185, 8.130804
592.6006, 8.789612
593.0827, 7.529026
593.5648, 6.300646
594.0469, 5.805893
594.5291, 5.671103
595.0112, 5.392326
595.4933, 4.952501
595.9754, 4.422968
596.4575, 2.948994
596.9396, 2.338638
597.4218, 4.144842
597.9039, 6.880156
598.3860, 8.468689
598.8681, 8.237234
599.3502, 7.050102
599.8323, 5.361225
600.3145, 3.152504
600.7966, 2.108179
601.2787, 2.618294
601.7608, 3.952141
602.2429, 7.024466
602.7250, 10.24088
603.2072, 10.70810
603.6893, 7.122128
604.1714, 3.652472
604.6535, 2.404718
605.1356, 2.561256
605.6177, 3.316099
606.0999, 4.420805
606.5820, 5.063505
607.0641, 4.586912
607.5462, 3.273066
608.0283, 2.392025
608.5104, 2.148760
608.9926, 2.087000
609.4747, 2.063831
609.9568, 2.310102
610.4389, 3.110498
610.9210, 4.350569
611.4031, 5.691101
611.8853, 7.057152
612.3674, 8.186651
612.8495, 8.533020
613.3316, 8.082157
613.8137, 7.065306
614.2958, 5.231604
614.7780, 3.220461
615.2601, 1.528782
615.7422, 0.1598000
616.2243, 0.6854710
616.7064, 0.7940120
617.1885, 0.5392880
617.6707, 7.1672000E-02
618.1528, 0.8329030
618.6349, 1.371414
619.1170, 1.572092
619.5991, 1.470516
620.0812, 1.032049
620.5634, 0.1941670
621.0455, 0.1026490
621.5276, 0.7449520
622.0097, 1.410706
622.4918, 1.528570
622.9739, 1.386780
623.4561, 1.257052
623.9382, 1.201654
624.4203, 1.174481
624.9023, 1.062562
625.3845, 0.9620000
625.8666, 1.405442
626.3487, 2.515291
626.8308, 2.620459
627.3129, 0.2234260
627.7950, 2.922859
628.2772, 3.055237
628.7593, 0.5635990
629.2414, 3.037449
629.7235, 3.036165
630.2056, 2.223553
630.6877, 1.294520
631.1699, 0.5396730
631.6520, 0.5415770
632.1341, 1.571288
632.6162, 2.787457
633.0983, 2.552354
633.5804, 0.4054370
634.0626, 0.8567180
634.5447, 0.9977130
635.0268, 0.4481240
635.5089, 1.028127
635.9910, 2.855961
636.4731, 4.248224
636.9553, 5.083733
637.4374, 5.150507
637.9195, 3.665429
638.4016, 1.514629
638.8837, 0.2909660
639.3658, 0.1934080
639.8480, 0.8924110
640.3301, 2.366170
640.8122, 4.256933
641.2943, 5.371630
641.7764, 5.687960
642.2585, 5.167921
642.7407, 2.454012
643.2228, 0.1070310
643.7049, 0.1132230
644.1870, 1.913519
644.6691, 3.920652
645.1512, 5.399705
645.6334, 6.237661
646.1155, 5.968863
646.5976, 4.604508
647.0797, 3.653351
647.5618, 3.415390
648.0439, 3.462874
648.5261, 3.496777
649.0082, 3.566008
649.4903, 3.853141
649.9724, 4.753781
650.4545, 5.282573
650.9366, 4.722418
651.4188, 3.759996
651.9009, 3.127871
652.3830, 2.952106
652.8651, 3.145954
653.3472, 3.685201
653.8293, 4.457136
654.3115, 5.164096
654.7936, 6.243967
655.2757, 6.183601
655.7578, 3.470521
656.2399, 0.6615300
656.7220, 1.175073
657.2042, 1.958044
657.6863, 1.589369
658.1684, 0.5993660
658.6505, 2.935967
659.1326, 3.749907
659.6147, 3.448445
660.0969, 3.070114
660.5790, 2.827135
661.0611, 2.860209
661.5432, 3.382957
662.0253, 4.316614
662.5074, 4.787278
662.9896, 3.646300
663.4717, 3.579136
663.9538, 6.245260
664.4359, 8.979580
664.9180, 9.390806
665.4001, 7.770067
665.8823, 6.161784
666.3644, 5.895108
666.8465, 6.236316
667.3286, 5.507969
667.8107, 3.773380
668.2928, 3.604914
668.7750, 6.305686
669.2571, 8.926265
669.7392, 8.253134
670.2213, 4.667567
670.7034, 2.505877
671.1855, 2.269230
671.6677, 2.929933
672.1498, 5.162870
672.6319, 7.546437
673.1140, 8.283372
673.5961, 7.372585
674.0782, 6.293738
674.5604, 6.176045
675.0425, 6.861689
675.5246, 8.132713
676.0067, 10.46599
676.4888, 11.04904
676.9709, 7.650485
677.4531, 4.239054
677.9352, 4.449881
678.4173, 7.294397
678.8994, 9.341775
679.3815, 9.652951
679.8636, 9.316580
680.3458, 8.608438
680.8279, 7.751534
681.3100, 7.063510
681.7921, 6.597623
682.2742, 6.258481
682.7563, 5.772517
683.2385, 5.149738
683.7206, 4.680567
684.2027, 4.463092
684.6848, 4.361849
685.1669, 4.240914
685.6490, 4.109036
686.1312, 4.146669
686.6133, 4.665838
687.0954, 5.832164
687.5775, 8.358383
688.0596, 10.45102
688.5417, 10.17789
689.0239, 8.292132
689.5060, 6.376258
689.9881, 4.752479
690.4702, 3.658012
690.9523, 3.320037
691.4344, 3.590882
691.9166, 3.833847
692.3987, 3.609958
692.8808, 4.389503
693.3629, 8.366431
693.8450, 11.35649
694.3271, 9.797803
694.8093, 5.174219
695.2914, 1.563169
695.7735, 0.8373270
696.2556, 1.443558
696.7377, 1.800283
697.2198, 2.074001
697.7020, 3.143970
698.1841, 5.299671
698.6662, 6.497072
699.1483, 4.975619
699.6304, 1.629987
700.1125, 0.3125350
700.5947, 3.9487001E-02
701.0768, 0.3956120
701.5589, 1.355561
702.0410, 2.264174
702.5231, 2.630619
703.0052, 2.608721
703.4874, 2.571014
703.9695, 2.680440
704.4516, 2.932807
704.9337, 3.259912
705.4158, 3.750556
705.8979, 5.080376
706.3801, 7.484426
706.8622, 9.539558
707.3442, 10.55634
707.8264, 10.57191
708.3085, 9.456723
708.7906, 6.255976
709.2727, 4.411896
709.7548, 5.347922
710.2369, 6.531218
710.7191, 6.367412
711.2012, 5.426918
711.6833, 4.891490
712.1654, 5.127028
712.6475, 5.564647
713.1296, 5.508519
713.6118, 5.070436
714.0939, 4.799080
714.5760, 4.609711
715.0581, 4.933393
715.5402, 6.496006
716.0223, 8.347832
716.5045, 8.391109
716.9866, 6.238590
717.4687, 4.579423
717.9508, 3.877686
718.4329, 3.463045
718.9150, 2.908335
719.3972, 2.475502
719.8793, 2.595995
720.3614, 3.357035
720.8435, 4.480740
721.3256, 6.087431
721.8077, 7.771410
722.2899, 7.484873
722.7720, 4.890203
723.2541, 3.165794
723.7362, 3.632897
724.2183, 4.908018
724.7004, 5.461536
725.1826, 5.308257
725.6647, 5.059929
726.1468, 4.526140
726.6289, 4.184346
727.1110, 4.397720
727.5931, 4.769489
728.0753, 4.888708
728.5574, 4.680243
729.0395, 4.257531
729.5216, 3.710197
730.0037, 3.036498
730.4858, 2.056499
730.9680, 0.7437630
731.4501, 6.1490000E-03
731.9322, 7.4470997E-02
732.4143, 0.5285910
732.8964, 0.9701980
733.3785, 1.478374
733.8607, 2.430138
734.3428, 4.610930
734.8249, 6.139520
735.3070, 6.504189
735.7891, 5.915127
736.2712, 3.745022
736.7534, 0.9669440
737.2355, 2.5185000E-02
737.7176, 2.104007
738.1997, 4.909346
738.6818, 4.291053
739.1639, 0.6980710
739.6461, 1.503424
740.1282, 1.844163
740.6103, 1.293401
741.0924, 7.4202999E-02
741.5745, 1.479341
742.0566, 2.671983
742.5388, 3.564491
743.0209, 3.954453
743.5030, 3.483036
743.9851, 2.863315
744.4672, 2.366717
744.9493, 2.007535
745.4315, 1.765279
745.9136, 1.634132
746.3957, 1.615272
746.8778, 1.788103
747.3599, 2.061554
747.8420, 2.220084
748.3242, 2.265644
748.8063, 1.810205
749.2884, 0.4535520
749.7705, 0.7765690
750.2526, 0.5885110
750.7347, 1.114029
751.2169, 2.618370
751.6990, 4.182728
752.1811, 5.230564
752.6632, 5.308056
753.1453, 5.040949
753.6274, 5.325249
754.1096, 5.925728
754.5917, 5.421573
755.0738, 2.434767
755.5559, 0.8172520
756.0380, 0.7299000
756.5201, 1.894013
757.0023, 3.434339
757.4844, 3.235336
757.9665, 2.861525
758.4486, 3.594958
758.9307, 5.023464
759.4128, 5.777327
759.8950, 5.881468
760.3771, 5.181811
760.8592, 1.877591
761.3413, 0.2882040
761.8234, 1.665312
762.3055, 5.500195
762.7877, 7.433094
763.2698, 6.356680
763.7519, 4.968027
764.2340, 5.781452
764.7161, 7.277625
765.1982, 6.683666
765.6804, 4.325651
766.1625, 2.669659
766.6446, 2.701812
767.1267, 3.216037
767.6088, 2.553556
768.0909, 0.6333720
768.5731, 0.5179800
769.0552, 0.9341550
769.5373, 0.5025980
770.0194, 1.453642
770.5015, 3.714342
770.9836, 5.555584
771.4658, 6.867203
771.9479, 7.444536
772.4300, 6.601397
772.9121, 5.830571
773.3942, 6.551947
773.8763, 7.851017
774.3585, 8.284860
774.8406, 7.720735
775.3227, 6.726042
775.8048, 5.585722
776.2869, 4.668787
776.7690, 5.158450
777.2512, 7.454634
777.7333, 8.402261
778.2154, 7.216373
778.6975, 5.737152
779.1796, 4.750054
779.6617, 4.184325
780.1439, 3.892443
780.6260, 3.824737
781.1081, 4.246952
781.5902, 5.861750
782.0723, 7.347601
782.5544, 7.541272
783.0366, 7.133062
783.5187, 7.802352
784.0008, 9.715407
784.4829, 10.55573
784.9650, 7.446941
785.4471, 2.092426
785.9293, 0.2171910
786.4114, 0.5651710
786.8935, 2.036839
787.3756, 3.960928
787.8577, 5.328779
788.3398, 5.004273
788.8220, 3.209835
789.3040, 1.903725
789.7861, 1.170424
790.2682, 0.8137740
790.7504, 1.644053
791.2325, 2.076893
791.7146, 0.3028130
792.1967, 2.517828
792.6788, 3.856463
793.1609, 2.734222
793.6431, 0.6033820
794.1252, 2.144621
794.6073, 4.669144
795.0894, 4.799816
795.5715, 2.901434
796.0536, 1.818438
796.5358, 2.801863
797.0179, 4.389187
797.5000, 4.401884
797.9821, 2.844988
798.4642, 1.977852
798.9464, 2.234556
799.4285, 2.459579
799.9106, 1.809055
800.3927, 1.442039
800.8748, 2.641981
801.3569, 5.033131
801.8391, 6.656498
802.3212, 6.176888
802.8033, 6.030632
803.2854, 8.481382
803.7675, 11.32138
804.2496, 11.45943
804.7318, 9.335718
805.2139, 7.763151
805.6960, 8.310110
806.1781, 9.533615
806.6602, 8.676121
807.1423, 5.995125
807.6245, 5.588476
808.1066, 8.315657
808.5887, 10.02155
809.0708, 7.959538
809.5529, 5.031748
810.0350, 6.029123
810.5172, 11.92848
810.9993, 15.31207
811.4814, 14.46164
811.9635, 13.31163
812.4456, 12.62374
812.9277, 12.32644
813.4099, 12.24827
813.8920, 12.46171
814.3741, 13.17275
814.8562, 14.64976
815.3383, 16.08377
815.8204, 16.19074
816.3026, 15.69283
816.7847, 16.66084
817.2668, 19.12823
817.7489, 21.06562
818.2310, 21.27512
818.7131, 20.51395
819.1953, 20.07828
819.6774, 19.89965
820.1595, 20.90404
820.6416, 24.16019
821.1237, 26.59631
821.6058, 26.74533
822.0880, 25.70637
822.5701, 24.28803
823.0522, 22.51947
823.5343, 21.86127
824.0164, 24.05258
824.4985, 25.75802
824.9807, 24.78828
825.4628, 23.05349
825.9449, 22.86719
826.4270, 24.09333
826.9091, 25.03914
827.3912, 24.75692
827.8734, 24.10069
828.3555, 24.09033
828.8376, 24.71874
829.3197, 26.43161
829.8018, 29.27067
830.2839, 30.69566
830.7661, 29.08138
831.2482, 26.47330
831.7303, 26.46914
832.2124, 29.70537
832.6945, 30.87455
833.1766, 28.13062
833.6588, 25.95158
834.1409, 25.35233
834.6230, 25.66302
835.1051, 26.80296
835.5872, 28.45885
836.0693, 29.35204
836.5515, 28.30454
837.0336, 27.68178
837.5157, 29.60736
837.9978, 32.09823
838.4799, 32.75359
838.9620, 31.75597
839.4442, 30.47521
839.9263, 29.55473
840.4084, 28.93823
840.8905, 28.59699
841.3726, 28.50893
841.8547, 28.53268
842.3369, 28.65758
842.8190, 29.13509
843.3011, 30.25262
843.7832, 31.13468
844.2653, 30.48663
844.7474, 28.37422
845.2296, 28.03098
845.7117, 32.30807
846.1938, 34.14267
846.6759, 31.07687
847.1580, 27.20986
847.6401, 24.35600
848.1223, 22.81986
848.6044, 23.22727
849.0865, 26.45773
849.5686, 29.07017
850.0507, 28.68215
850.5328, 26.65158
851.0150, 24.03109
851.4971, 21.27568
851.9792, 18.75763
852.4613, 16.75405
852.9434, 15.61423
853.4255, 15.72242
853.9077, 16.72341
854.3898, 17.11812
854.8719, 16.90800
855.3540, 16.25224
855.8361, 15.00426
856.3182, 14.15310
856.8004, 14.65058
857.2825, 15.95667
857.7646, 16.33106
858.2467, 15.48443
858.7288, 14.31229
859.2109, 12.29594
859.6931, 10.56854
860.1752, 9.569231
860.6573, 9.047979
861.1394, 8.708305
861.6215, 8.513308
862.1036, 8.542040
862.5858, 9.383232
863.0679, 9.860258
863.5500, 9.004139
864.0321, 7.370613
864.5142, 5.400478
864.9963, 3.404545
865.4785, 2.187454
865.9606, 2.277317
866.4427, 2.865654
866.9248, 2.500458
867.4069, 1.480831
867.8890, 1.718145
868.3712, 3.377258
868.8533, 4.278709
869.3354, 3.384384
869.8175, 1.809334
870.2996, 1.030056
870.7817, 1.052347
871.2639, 1.018173
871.7459, 0.9965310
872.2280, 0.7959900
872.7101, 0.1290300
873.1923, 0.7582320
873.6744, 0.2483020
874.1565, 1.005075
874.6386, 1.987183
875.1207, 2.375227
875.6028, 2.970478
876.0850, 4.823341
876.5671, 6.237175
877.0492, 5.343327
877.5313, 3.347595
878.0134, 2.636766
878.4955, 3.571714
878.9777, 4.069593
879.4598, 1.915430
879.9419, 0.9044650
880.4240, 0.8043120
880.9061, 1.474403
881.3882, 3.299017
881.8704, 4.239527
882.3525, 4.823359
882.8346, 5.393274
883.3167, 5.738171
883.7988, 5.277054
884.2809, 3.816736
884.7631, 3.076797
885.2452, 3.454765
885.7273, 3.510187
886.2094, 2.128216
886.6915, 0.8449500
887.1736, 1.778807
887.6558, 4.739227
888.1379, 6.713104
888.6200, 7.218748
889.1021, 7.293798
889.5842, 6.581331
890.0663, 5.997869
890.5485, 6.593140
891.0306, 7.678164
891.5127, 7.611280
891.9948, 5.876133
892.4769, 4.586916
892.9590, 5.627041
893.4412, 7.506502
893.9233, 8.966530
894.4054, 9.808657
894.8875, 9.591429
895.3696, 8.464170
895.8517, 7.504618
896.3339, 7.671463
896.8160, 8.459166
897.2981, 9.185522
897.7802, 9.838816
898.2623, 9.672457
898.7444, 8.552946
899.2266, 7.362587
899.7087, 6.502214
900.1908, 5.795469
900.6729, 4.913828
901.1550, 3.820040
901.6371, 3.466911
902.1193, 4.657413
902.6014, 5.080368
903.0835, 3.369236
903.5656, 1.681446
904.0477, 1.894531
904.5298, 3.212170
905.0120, 3.582529
905.4941, 2.652273
905.9762, 1.166698
906.4583, 1.815554
906.9404, 4.113080
907.4225, 4.020138
907.9047, 2.616890
908.3868, 1.114782
908.8689, 8.8290997E-02
909.3510, 0.4963510
909.8331, 0.9948860
910.3152, 2.116322
910.7974, 0.6607510
911.2795, 4.965876
911.7616, 5.705729
912.2437, 3.244246
912.7258, 2.310093
913.2079, 5.149441
913.6901, 8.432987
914.1722, 6.907972
914.6543, 1.807884
915.1364, 0.7767830
915.6185, 3.981348
916.1006, 6.427195
916.5828, 6.741341
917.0649, 6.685101
917.5470, 7.829826
918.0291, 9.670248
918.5112, 10.24592
918.9933, 8.610331
919.4755, 8.168976
919.9576, 9.736771
920.4397, 11.34388
920.9218, 12.44181
921.4039, 13.04569
921.8860, 12.77418
922.3682, 11.71403
922.8503, 11.69190
923.3324, 13.82634
923.8145, 15.85376
924.2966, 17.46367
924.7787, 18.44162
925.2609, 18.11194
925.7430, 17.15208
926.2251, 16.95093
926.7072, 17.92997
927.1893, 19.13430
927.6714, 20.13390
928.1536, 20.87287
928.6357, 21.33127
929.1178, 21.47880
929.5999, 21.28833
930.0820, 20.74110
930.5641, 19.74031
931.0463, 18.16704
931.5284, 16.36760
932.0105, 14.55357
932.4926, 12.89826
932.9747, 12.43006
933.4568, 13.11373
933.9390, 13.14840
934.4211, 11.74084
934.9032, 10.96991
935.3853, 13.54446
935.8674, 18.47231
936.3495, 19.64480
936.8317, 16.20188
937.3138, 12.51932
937.7959, 8.295135
938.2780, 5.646091
938.7601, 6.648209
939.2422, 9.147215
939.7244, 8.910034
940.2065, 4.928009
940.6886, 4.158689
941.1707, 10.85622
941.6528, 14.83856
942.1349, 11.81462
942.6171, 7.572929
943.0992, 6.305494
943.5813, 7.270121
944.0634, 8.048798
944.5455, 8.196064
945.0276, 8.065552
945.5098, 7.415630
945.9919, 6.917479
946.4740, 7.453568
946.9561, 8.176273
947.4382, 7.779236
947.9203, 6.273941
948.4025, 4.858011
948.8846, 4.356779
949.3667, 3.676201
949.8488, 1.032955
950.3309, 2.049099
950.8130, 3.183543
951.2952, 2.551266
951.7773, 0.9798770
952.2594, 1.080273
952.7415, 2.208733
953.2236, 0.5542200
953.7057, 2.383060
954.1878, 2.722691
954.6699, 0.8603590
955.1520, 0.6859460
955.6342, 1.563702
956.1163, 1.934847
956.5984, 1.823881
957.0805, 1.626329
957.5626, 2.008938
958.0447, 2.961914
958.5269, 3.850838
959.0090, 4.852304
959.4911, 4.799877
959.9732, 2.614752
960.4553, 1.288980
960.9374, 3.557362
961.4196, 8.050453
961.9017, 10.86162
962.3838, 11.29840
962.8659, 12.18980
963.3480, 14.38875
963.8301, 15.87389
964.3123, 14.78407
964.7944, 13.61477
965.2765, 15.27238
965.7586, 19.11706
966.2407, 21.57390
966.7228, 21.07455
967.2050, 21.36352
967.6871, 24.49119
968.1692, 27.10669
968.6513, 26.51822
969.1334, 24.86251
969.6155, 25.63863
970.0977, 28.90672
970.5798, 31.34821
971.0619, 31.46334
971.5440, 30.44847
972.0261, 28.37980
972.5082, 26.09207
972.9904, 24.34046
973.4725, 23.16818
973.9546, 22.38176
974.4367, 21.95345
974.9188, 22.26624
975.4009, 24.48519
975.8831, 26.65865
976.3652, 25.52954
976.8473, 22.56578
977.3294, 21.02647
977.8115, 21.02515
978.2936, 20.87553
978.7758, 19.77098
979.2579, 17.98796
979.7400, 15.28443
980.2221, 12.37835
980.7042, 12.22954
981.1863, 14.46235
981.6685, 16.18140
982.1506, 16.80706
982.6327, 16.19160
983.1148, 13.98948
983.5969, 11.66385
984.0790, 12.36967
984.5612, 16.13525
985.0433, 18.42760
985.5254, 19.05059
986.0075, 19.32228
986.4896, 19.59507
986.9717, 19.52128
987.4539, 18.63966
987.9360, 17.35928
988.4181, 17.02424
988.9002, 17.97525
989.3823, 18.72094
989.8644, 19.54845
990.3466, 19.57731
990.8287, 18.05453
991.3108, 16.14067
991.7929, 14.83425
992.2750, 14.09312
992.7571, 13.70951
993.2393, 14.27024
993.7214, 14.13442
994.2035, 11.79152
994.6856, 10.52746
995.1677, 12.91266
995.6498, 16.10295
996.1320, 16.77193
996.6141, 15.14830
997.0962, 14.14814
997.5783, 14.57265
998.0604, 15.23110
998.5425, 15.85171
999.0247, 16.58967
999.5068, 18.42080
999.9889, 19.95900
1000.471, 18.57434
1000.953, 14.37382
1001.435, 11.39160
1001.917, 12.09364
1002.399, 13.18267
1002.882, 13.07244
1003.364, 12.35402
1003.846, 11.16336
1004.328, 9.939121
1004.810, 9.528070
1005.292, 10.03949
1005.774, 10.40520
1006.256, 9.914215
1006.739, 9.046770
1007.221, 8.060013
1007.703, 7.103945
1008.185, 6.224470
1008.667, 5.493315
1009.149, 5.074083
1009.631, 5.056524
1010.113, 5.650900
1010.595, 7.366535
1011.078, 9.365170
1011.560, 10.29649
1012.042, 10.47948
1012.524, 10.70714
1013.006, 10.61785
1013.488, 9.894068
1013.970, 8.402233
1014.452, 6.696621
1014.935, 5.109980
1015.417, 3.994387
1015.899, 5.110285
1016.381, 7.635443
1016.863, 6.794748
1017.345, 2.396465
1017.827, 8.8861004E-02
1018.309, 2.148872
1018.791, 6.147532
1019.274, 7.853748
1019.756, 7.752195
1020.238, 8.389214
1020.720, 9.657766
1021.202, 10.14163
1021.684, 9.564127
1022.166, 8.646725
1022.648, 7.760000
1023.130, 6.964649
1023.613, 6.263872
1024.095, 5.701960
1024.577, 6.014294
1025.059, 7.210417
1025.541, 9.611433
1026.023, 13.89071
1026.505, 16.45407
1026.987, 14.56174
1027.469, 10.67960
1027.952, 9.437024
1028.434, 10.95114
1028.916, 12.16973
1029.398, 13.29496
1029.880, 13.25856
1030.362, 11.27755
1030.844, 9.514078
1031.326, 9.611072
1031.809, 10.57004
1032.291, 10.21183
1032.773, 8.208438
1033.255, 8.384020
1033.737, 12.56982
1034.219, 14.40650
1034.701, 11.55563
1035.183, 7.833088
1035.666, 5.532030
1036.148, 4.569025
1036.630, 4.249732
1037.112, 4.153668
1037.594, 6.062589
1038.076, 13.15161
1038.558, 17.06488
1039.040, 13.14688
1039.522, 9.159947
1040.005, 11.43420
1040.487, 16.72704
1040.969, 17.97684
1041.451, 14.32202
1041.933, 11.22293
1042.415, 8.121775
1042.897, 6.529253
1043.379, 7.831852
1043.861, 9.526846
1044.344, 10.66861
1044.826, 10.86471
1045.308, 8.807550
1045.790, 3.759029
1046.272, 1.265203
1046.754, 3.648545
1047.236, 6.252424
1047.718, 9.150287
1048.201, 10.72209
1048.683, 8.571856
1049.165, 4.804426
1049.647, 3.553102
1050.129, 5.520796
1050.611, 7.076385
1051.093, 8.238098
1051.575, 7.917423
1052.057, 3.652411
1052.540, 0.1478640
1053.022, 0.5147430
1053.504, 3.623463
1053.986, 5.188847
1054.468, 4.611815
1054.950, 4.270721
1055.432, 5.653916
1055.914, 6.204851
1056.396, 4.201850
1056.879, 1.871257
1057.361, 0.4306450
1057.843, 5.7117000E-02
1058.325, 1.309205
1058.807, 4.185113
1059.289, 5.894567
1059.771, 4.828675
1060.253, 3.388043
1060.736, 1.710777
1061.218, 0.7502640
1061.700, 1.533524
1062.182, 3.387983
1062.664, 5.546392
1063.146, 7.742899
1063.628, 8.780168
1064.110, 7.991378
1064.593, 6.301311
1065.075, 2.601284
1065.557, 0.3857540
1066.039, 0.2978320
1066.521, 2.666797
1067.003, 3.341951
1067.485, 2.029019
1067.967, 1.307364
1068.449, 3.100548
1068.932, 3.972389
1069.414, 0.4560780
1069.896, 2.608246
1070.378, 0.3022170
1070.860, 4.060358
1071.342, 5.044065
1071.824, 2.588459
1072.306, 1.610881
1072.788, 5.188908
1073.271, 7.550035
1073.753, 4.711104
1074.235, 1.034758
1074.717, 0.9396790
1075.199, 1.423736
1075.681, 0.2810540
1076.163, 1.898055
1076.645, 2.743042
1077.127, 0.5979600
1077.610, 0.2024250
1078.092, 4.665266
1078.574, 9.031754
1079.056, 7.815351
1079.538, 4.379842
1080.020, 2.874107
1080.502, 3.370966
1080.984, 4.084130
1081.467, 4.636919
1081.949, 4.509525
1082.431, 2.616582
1082.913, 0.9605460
1083.395, 0.7062310
1083.877, 1.377140
1084.359, 3.202580
1084.841, 5.327384
1085.323, 5.400881
1085.806, 2.489830
1086.288, 0.8031300
1086.770, 4.034248
1087.252, 6.571018
1087.734, 4.361575
1088.216, 1.083879
1088.698, 0.4110010
1089.180, 1.418799
1089.662, 1.359881
1090.145, 0.3406890
1090.627, 1.318899
1091.109, 0.1642360
1091.591, 1.410253
1092.073, 1.623101
1092.555, 0.8069600
1093.037, 3.066481
1093.519, 7.016480
1094.002, 4.977493
1094.484, 3.276899
1094.966, 8.845631
1095.448, 7.368908
1095.930, 5.077217
1096.412, 2.834453
1096.894, 1.698441
1097.376, 2.965732
1097.859, 5.352400
1098.341, 7.905378
1098.823, 10.08088
1099.305, 9.652254
1099.787, 4.091859
1100.269, 0.1330500
1100.751, 0.4224730
1101.233, 1.630527
1101.715, 2.763865
1102.198, 3.498291
1102.680, 3.013614
1103.162, 1.880700
1103.644, 2.471563
1104.126, 6.288704
1104.608, 8.104519
1105.090, 4.924524
1105.572, 2.299518
1106.054, 2.718372
1106.537, 3.923379
1107.019, 3.972589
1107.501, 3.374975
1107.983, 3.701722
1108.465, 5.366960
1108.947, 6.227103
1109.429, 5.592769
1109.911, 4.813302
1110.394, 3.614742
1110.876, 2.921108
1111.358, 3.303054
1111.840, 4.599839
1112.322, 6.898524
1112.804, 10.32703
1113.286, 11.29526
1113.768, 7.408533
1114.250, 5.034369
1114.733, 5.170874
1115.215, 6.133192
1115.697, 8.006723
1116.179, 9.613338
1116.661, 9.302710
1117.143, 7.401261
1117.625, 6.285655
1118.107, 5.732898
1118.589, 6.688883
1119.072, 10.75065
1119.554, 13.04878
1120.036, 11.41634
1120.518, 8.547556
1121.000, 6.411108
1121.482, 4.971219
1121.964, 4.084737
1122.446, 3.687366
1122.929, 4.372608
1123.411, 6.553341
1123.893, 8.548431
1124.375, 10.41857
1124.857, 10.35000
1125.339, 6.403934
1125.821, 1.577909
1126.303, 1.422876
1126.786, 5.577851
1127.268, 7.088812
1127.750, 5.372495
1128.232, 4.884650
1128.714, 6.138315
1129.196, 7.985078
1129.678, 10.14666
1130.160, 11.16586
1130.642, 8.946538
1131.125, 4.899702
1131.607, 4.371956
1132.089, 7.126685
1132.571, 8.887240
1133.053, 9.471530
1133.535, 10.09804
1134.017, 11.06684
1134.499, 11.33386
1134.981, 10.10603
1135.464, 7.712353
1135.946, 3.735342
1136.428, 0.7005930
1136.910, 0.1292270
1137.392, 4.324953
1137.874, 7.050936
1138.356, 7.098164
1138.838, 5.964830
1139.321, 4.410916
1139.803, 3.249195
1140.285, 3.744126
1140.767, 4.887722
1141.249, 4.468866
1141.731, 3.396757
1142.213, 4.281255
1142.695, 6.456172
1143.177, 6.567027
1143.660, 3.821947
1144.142, 1.138679
1144.624, 0.5369990
1145.106, 0.9529810
1145.588, 1.771505
1146.070, 2.558063
1146.552, 2.590592
1147.034, 2.250872
1147.516, 2.085338
1147.999, 2.231021
1148.481, 3.050519
1148.963, 5.100694
1149.445, 6.409408
1149.927, 4.832996
1150.409, 3.105295
1150.891, 3.549381
1151.373, 4.232999
1151.856, 2.907578
1152.338, 0.6589460
1152.820, 0.1165390
1153.302, 1.195275
1153.784, 2.354076
1154.266, 2.477806
1154.748, 2.519805
1155.230, 2.728786
1155.713, 3.023334
1156.195, 3.388413
1156.677, 3.785164
1157.159, 4.320893
1157.641, 4.900830
1158.123, 4.864183
1158.605, 3.864861
1159.087, 3.001902
1159.569, 2.258586
1160.052, 1.726676
1160.534, 1.051078
1161.016, 1.049824
1161.498, 3.068058
1161.980, 5.762398
1162.462, 6.002485
1162.944, 3.472307
1163.426, 1.844980
1163.908, 1.091029
1164.391, 1.611154
1164.873, 4.317875
1165.355, 5.553137
1165.837, 2.948790
1166.319, 0.1390790
1166.801, 0.5439320
1167.283, 3.768826
1167.765, 4.253294
1168.247, 1.884898
1168.730, 3.7209999E-03
1169.212, 1.290224
1169.694, 0.8577690
1170.176, 1.648299
1170.658, 3.619325
1171.140, 3.151510
1171.622, 1.913916
1172.104, 2.729566
1172.587, 4.913621
1173.069, 6.568042
1173.551, 7.531514
1174.033, 6.746448
1174.515, 4.519410
1174.997, 2.688328
1175.479, 2.008158
1175.961, 2.850593
1176.443, 6.534523
1176.926, 9.570431
1177.408, 5.594948
1177.890, 0.3040180
1178.372, 0.1522330
1178.854, 4.200440
1179.336, 5.461639
1179.818, 3.463952
1180.300, 1.551818
1180.782, 1.027100
1181.265, 1.363560
1181.747, 3.138613
1182.229, 4.591999
1182.711, 3.972725
1183.193, 3.065407
1183.675, 3.862296
1184.157, 5.340647
1184.639, 5.930636
1185.122, 5.393151
1185.604, 4.435670
1186.086, 2.238618
1186.568, 1.264580
1187.050, 2.762438
1187.532, 4.352211
1188.014, 4.740473
1188.496, 5.015031
1188.979, 6.236577
1189.461, 8.147549
1189.943, 10.18244
1190.425, 12.77223
1190.907, 12.64871
1191.389, 8.161377
1191.871, 5.788288
1192.353, 7.298319
1192.835, 8.887197
1193.318, 8.779375
1193.800, 7.402136
1194.282, 4.896810
1194.764, 1.969862
1195.246, 1.213995
1195.728, 2.457940
1196.210, 3.183946
1196.692, 3.312503
1197.174, 2.759608
1197.657, 1.417476
1198.139, 1.267522
1198.621, 3.552839
1199.103, 6.438096
1199.585, 7.652709
1200.067, 7.618124
1200.549, 7.048209
1201.031, 5.949884
1201.514, 3.549756
1201.996, 0.7321690
1202.478, 0.6705600
1202.960, 3.729633
1203.442, 5.855805
1203.924, 4.375180
1204.406, 2.228741
1204.888, 1.151546
1205.370, 0.8517200
1205.853, 1.273061
1206.335, 2.209826
1206.817, 4.276824
1207.299, 6.480998
1207.781, 6.021354
1208.263, 2.147354
1208.745, 0.6364670
1209.227, 1.395424
1209.709, 0.7283870
1210.192, 3.196525
1210.674, 6.183345
1211.156, 5.308210
1211.638, 3.224708
1212.120, 2.371147
1212.602, 2.568558
1213.084, 3.254027
1213.566, 4.715246
1214.049, 5.097138
1214.531, 4.022293
1215.013, 3.358389
1215.495, 3.466888
1215.977, 4.024901
1216.459, 4.941730
1216.941, 5.777246
1217.423, 5.909461
1217.906, 5.668773
1218.388, 6.280841
1218.870, 7.465305
1219.352, 7.667741
1219.834, 7.010068
1220.316, 6.587265
1220.798, 6.613893
1221.280, 6.663167
1221.762, 6.512062
1222.245, 6.112638
1222.727, 4.862685
1223.209, 3.894650
1223.691, 5.158545
1224.173, 6.980925
1224.655, 7.077823
1225.137, 6.067153
1225.619, 5.329226
1226.101, 5.122687
1226.584, 4.951174
1227.066, 4.445387
1227.548, 4.515184
1228.030, 5.981964
1228.512, 6.997396
1228.994, 6.155661
1229.476, 5.182234
1229.958, 6.041859
1230.441, 7.378201
1230.923, 6.281061
1231.405, 2.858089
1231.887, 2.007024
1232.369, 5.173242
1232.851, 6.213079
1233.333, 4.143725
1233.815, 2.462204
1234.297, 2.143413
1234.780, 2.937932
1235.262, 4.873474
1235.744, 6.950790
1236.226, 7.416641
1236.708, 6.576575
1237.190, 5.188758
1237.672, 3.669015
1238.154, 4.637118
1238.636, 7.503325
1239.119, 8.162903
1239.601, 5.656852
1240.083, 2.344394
1240.565, 0.6832670
1241.047, 1.880040
1241.529, 2.382288
1242.011, 6.947254
1242.493, 6.225925
1242.975, 3.235574
1243.458, 0.6197810
1243.940, 0.6101580
1244.422, 1.687276
1244.904, 7.335020
1245.386, 9.918577
1245.868, 5.513551
1246.350, 2.113793
1246.832, 0.1569970
1247.315, 0.5556180
1247.797, 5.951113
1248.279, 10.53558
1248.761, 9.428419
1249.243, 5.790084
1249.725, 5.657498
1250.207, 8.683138
1250.689, 8.397714
1251.172, 4.387524
1251.654, 1.470829
1252.136, 8.9100003E-03
1252.618, 0.2282290
1253.100, 0.6803590
1253.582, 1.044484
1254.064, 0.4420680
1254.546, 1.523736
1255.028, 2.362192
1255.510, 7.730545
1255.993, 7.061972
1256.475, 3.513590
1256.957, 2.739810
1257.439, 4.413818
1257.921, 6.734070
1258.403, 8.908576
1258.885, 9.556421
1259.367, 7.558128
1259.850, 6.017888
1260.332, 7.507394
1260.814, 8.307071
1261.296, 5.131190
1261.778, 2.138107
1262.260, 3.296928
1262.742, 5.839729
1263.224, 6.955393
1263.707, 6.345585
1264.189, 5.354705
1264.671, 4.156658
1265.153, 2.989704
1265.635, 1.468790
1266.117, 2.111116
1266.599, 5.986617
1267.081, 8.051022
1267.563, 5.215699
1268.046, 2.010470
1268.528, 4.256693
1269.010, 9.129414
1269.492, 8.477211
1269.974, 5.483344
1270.456, 4.885619
1270.938, 6.071793
1271.420, 6.525060
1271.902, 6.011176
1272.385, 5.857079
1272.867, 6.569973
1273.349, 6.668277
1273.831, 4.550120
1274.313, 2.668918
1274.795, 2.345600
1275.277, 2.548881
1275.759, 2.065204
1276.242, 2.193969
1276.724, 5.991554
1277.206, 11.51343
1277.688, 11.94997
1278.170, 6.533891
1278.652, 3.049317
1279.134, 1.745422
1279.616, 1.645814
1280.099, 2.883838
1280.581, 4.354059
1281.063, 5.791447
1281.545, 5.820493
1282.027, 3.025555
1282.509, 8.9798003E-02
1282.991, 1.416938
1283.473, 2.766391
1283.955, 0.0000000E+00
##END=



