##NAMES=Ludlamite
##RRUFFID=R090071
##IDEAL CHEMISTRY=Fe^2+^_3_(PO_4_)_2_&#183;4H_2_O
##LOCALITY=Cigana Mine (ex-Jocão Mine), Galiléia, Minas Gerais  Brazil
##OWNER=RRUFF
##SOURCE=Royal Ontario Museum 
##DESCRIPTION=Groups of colorless tabular crystals on reddish-brown reddingite R090069, associated with pink hureaulite R090070.
##STATUS=The identification of this mineral has been confirmed only by single crystal X-ray diffraction.
##URL=rruff.info/R090071
112.5582, 0.0000000E+00
113.0403, 0.9636080
113.5224, 2.9793000E-02
114.0045, 0.7616580
114.4866, 3.095436
114.9688, 4.707230
115.4509, 3.859650
115.9330, 2.432465
116.4151, 1.089149
116.8972, 3.1044001E-02
117.3793, 0.5685500
117.8615, 0.1537630
118.3436, 2.834961
118.8257, 5.055832
119.3078, 5.648003
119.7899, 6.218956
120.2720, 8.174133
120.7542, 12.05814
121.2363, 17.18826
121.7184, 21.65872
122.2005, 25.41104
122.6826, 28.37833
123.1647, 30.16161
123.6468, 31.21407
124.1290, 32.20303
124.6111, 33.56239
125.0932, 35.15688
125.5753, 35.83291
126.0574, 34.52780
126.5395, 33.58441
127.0217, 33.95604
127.5038, 35.55869
127.9859, 37.90987
128.4680, 41.20215
128.9501, 44.99370
129.4323, 47.19743
129.9144, 46.15096
130.3965, 44.33504
130.8786, 44.47027
131.3607, 46.95595
131.8428, 49.93155
132.3250, 52.08624
132.8071, 53.73248
133.2892, 55.32127
133.7713, 56.72113
134.2534, 58.15872
134.7355, 60.56267
135.2177, 64.71275
135.6998, 68.80128
136.1819, 72.40455
136.6640, 75.31774
137.1461, 77.08295
137.6282, 77.10768
138.1104, 75.23211
138.5925, 73.38561
139.0746, 72.37950
139.5567, 70.72632
140.0388, 67.32748
140.5209, 62.46252
141.0031, 57.42757
141.4852, 53.89449
141.9673, 52.92413
142.4494, 50.62550
142.9315, 46.04917
143.4136, 41.08122
143.8958, 37.04622
144.3779, 34.24628
144.8600, 31.84044
145.3421, 28.42622
145.8242, 23.01354
146.3063, 18.44411
146.7885, 14.92738
147.2706, 12.26044
147.7527, 10.40639
148.2348, 9.478989
148.7169, 8.883675
149.1990, 7.029625
149.6812, 3.167450
150.1633, 0.5919570
150.6454, 1.496910
151.1275, 4.863655
151.6096, 7.349556
152.0917, 7.217064
152.5739, 6.085632
153.0560, 6.720482
153.5381, 9.707031
154.0202, 12.60887
154.5023, 13.01668
154.9844, 10.79557
155.4665, 9.166397
155.9487, 9.913002
156.4308, 11.51243
156.9129, 12.84177
157.3950, 13.62458
157.8771, 14.16241
158.3592, 14.84557
158.8414, 15.60497
159.3235, 16.72001
159.8056, 18.65195
160.2877, 20.73438
160.7698, 22.37755
161.2519, 23.31112
161.7341, 23.73059
162.2162, 24.21683
162.6983, 25.04291
163.1804, 25.54708
163.6625, 25.41866
164.1446, 25.16089
164.6268, 25.15599
165.1089, 26.10807
165.5910, 27.50771
166.0731, 28.36020
166.5552, 28.43580
167.0373, 28.49079
167.5195, 29.05308
168.0016, 29.81306
168.4837, 29.94479
168.9658, 28.78169
169.4479, 26.57090
169.9300, 24.81036
170.4122, 23.80703
170.8943, 22.82598
171.3764, 21.80085
171.8585, 20.62643
172.3406, 18.71885
172.8227, 15.25718
173.3049, 10.60139
173.7870, 7.561829
174.2691, 6.899239
174.7512, 7.288254
175.2333, 7.881599
175.7154, 8.671585
176.1976, 9.408066
176.6797, 10.09986
177.1618, 10.59609
177.6439, 10.46233
178.1260, 8.733269
178.6081, 6.640625
179.0903, 6.203751
179.5724, 7.934929
180.0545, 9.837608
180.5366, 10.65468
181.0187, 10.80373
181.5008, 10.87032
181.9830, 11.04171
182.4651, 11.33220
182.9472, 11.73071
183.4293, 11.96656
183.9114, 12.81304
184.3935, 14.57880
184.8757, 17.06178
185.3578, 20.00399
185.8399, 23.48313
186.3220, 27.37084
186.8041, 30.24187
187.2862, 32.07291
187.7684, 32.72168
188.2505, 30.71818
188.7326, 27.48359
189.2147, 25.76148
189.6968, 27.98380
190.1789, 34.34734
190.6611, 39.44741
191.1432, 43.17366
191.6253, 45.80805
192.1074, 46.85416
192.5895, 46.75028
193.0716, 46.48100
193.5538, 46.92880
194.0359, 48.23338
194.5180, 49.08213
195.0001, 49.62963
195.4822, 49.71777
195.9643, 49.20824
196.4465, 48.14497
196.9286, 46.65906
197.4107, 44.78738
197.8928, 42.43919
198.3749, 40.62545
198.8570, 39.60897
199.3392, 38.86683
199.8213, 38.26678
200.3034, 37.73120
200.7855, 36.85598
201.2676, 35.10258
201.7497, 32.41727
202.2319, 30.28312
202.7140, 29.67693
203.1961, 29.10670
203.6782, 26.73117
204.1603, 22.25538
204.6424, 17.95798
205.1246, 16.25930
205.6067, 16.61667
206.0888, 16.59726
206.5709, 15.35430
207.0530, 13.62019
207.5351, 12.51273
208.0173, 12.28812
208.4994, 11.97362
208.9815, 10.50747
209.4636, 8.361305
209.9457, 6.497402
210.4278, 5.441608
210.9100, 4.881092
211.3921, 4.031830
211.8742, 2.624184
212.3563, 1.516388
212.8384, 1.556145
213.3205, 2.204590
213.8027, 2.455326
214.2848, 1.505230
214.7669, 0.2252850
215.2490, 1.109337
215.7311, 0.4783250
216.2132, 2.7378000E-02
216.6954, 0.7836230
217.1775, 2.160843
217.6596, 3.114483
218.1417, 2.859669
218.6238, 1.661114
219.1059, 1.125301
219.5881, 1.936066
220.0702, 2.599819
220.5523, 2.602432
221.0344, 2.173115
221.5165, 1.698299
221.9986, 1.425903
222.4808, 1.333595
222.9629, 1.221230
223.4450, 1.279896
223.9271, 1.092644
224.4092, 0.3119740
224.8913, 0.7508470
225.3735, 1.541222
225.8556, 1.650902
226.3377, 1.170437
226.8198, 1.143616
227.3019, 2.306862
227.7840, 3.163483
228.2662, 3.124767
228.7483, 2.571171
229.2304, 2.211056
229.7125, 2.519939
230.1946, 3.418510
230.6767, 4.035168
231.1589, 4.410202
231.6410, 4.492592
232.1231, 3.828766
232.6052, 2.871559
233.0873, 2.539173
233.5694, 3.463364
234.0516, 5.411976
234.5337, 6.686855
235.0158, 7.069656
235.4979, 7.184158
235.9800, 7.018177
236.4621, 6.715229
236.9443, 6.593418
237.4264, 6.873058
237.9085, 7.420540
238.3906, 7.609756
238.8727, 6.979271
239.3548, 6.575848
239.8370, 6.966633
240.3191, 7.872101
240.8012, 8.593307
241.2833, 8.755119
241.7654, 8.541443
242.2475, 8.487309
242.7297, 8.503189
243.2118, 8.772141
243.6939, 9.601421
244.1760, 10.78785
244.6581, 11.84015
245.1402, 12.80585
245.6224, 13.16451
246.1045, 11.72376
246.5866, 7.679775
247.0687, 4.234406
247.5508, 3.257286
248.0329, 4.264248
248.5151, 5.629333
248.9972, 7.159126
249.4793, 8.381393
249.9614, 8.521950
250.4435, 7.404755
250.9256, 6.434799
251.4078, 6.446686
251.8899, 7.281132
252.3720, 8.315254
252.8541, 9.681946
253.3362, 10.80250
253.8183, 11.04881
254.3005, 10.58416
254.7826, 9.995331
255.2647, 8.992722
255.7468, 7.995720
256.2289, 8.429543
256.7110, 11.77272
257.1931, 14.95036
257.6753, 15.11524
258.1574, 12.69654
258.6395, 10.39391
259.1216, 10.24492
259.6037, 11.80700
260.0858, 12.52481
260.5680, 11.52738
261.0501, 10.53902
261.5322, 10.90330
262.0143, 12.27532
262.4964, 13.34355
262.9785, 12.86178
263.4607, 11.24884
263.9428, 10.56134
264.4249, 11.34302
264.9070, 12.33989
265.3891, 12.73756
265.8712, 12.86767
266.3534, 13.50374
266.8355, 15.63834
267.3176, 18.58625
267.7997, 19.14511
268.2818, 15.31622
268.7639, 12.08607
269.2461, 11.37519
269.7282, 12.30472
270.2103, 13.73676
270.6924, 15.31696
271.1745, 16.73864
271.6566, 16.74844
272.1388, 13.95016
272.6209, 12.08282
273.1030, 13.09729
273.5851, 15.17001
274.0672, 15.83205
274.5493, 13.75024
275.0315, 10.32314
275.5136, 9.372765
275.9957, 12.93421
276.4778, 15.46066
276.9599, 15.39401
277.4420, 14.17965
277.9242, 13.10747
278.4063, 12.67721
278.8884, 12.73344
279.3705, 13.00092
279.8526, 13.64637
280.3347, 14.08246
280.8169, 14.13548
281.2990, 14.06285
281.7811, 14.10086
282.2632, 14.33084
282.7453, 14.60955
283.2274, 14.71146
283.7096, 14.69300
284.1917, 14.26771
284.6738, 13.20697
285.1559, 11.99392
285.6380, 10.72821
286.1201, 9.521324
286.6023, 8.606911
287.0844, 8.346497
287.5665, 9.006584
288.0486, 9.295048
288.5307, 8.527328
289.0128, 8.018642
289.4950, 8.812603
289.9771, 10.55145
290.4592, 11.86357
290.9413, 11.32341
291.4234, 8.702946
291.9055, 7.407677
292.3877, 9.026722
292.8698, 10.35784
293.3519, 10.08573
293.8340, 8.697281
294.3161, 7.381031
294.7982, 6.979103
295.2804, 7.424679
295.7625, 7.879967
296.2446, 8.573429
296.7267, 9.024441
297.2088, 9.123623
297.6909, 8.924614
298.1731, 8.426430
298.6552, 7.607929
299.1373, 6.632267
299.6194, 6.139477
300.1015, 6.971306
300.5836, 7.271694
301.0658, 6.383018
301.5479, 5.104393
302.0300, 4.305897
302.5121, 4.329533
302.9942, 4.869469
303.4763, 5.306107
303.9585, 5.604286
304.4406, 5.831127
304.9227, 5.920162
305.4048, 5.979877
305.8869, 6.177826
306.3690, 6.517811
306.8512, 6.772675
307.3333, 6.566895
307.8154, 5.478878
308.2975, 5.084976
308.7796, 6.333572
309.2617, 7.399151
309.7439, 7.103149
310.2260, 5.454037
310.7081, 3.116413
311.1902, 0.5382920
311.6723, 2.626413
312.1544, 3.466053
312.6366, 9.3285002E-02
313.1187, 3.575882
313.6008, 5.447670
314.0829, 5.790939
314.5650, 5.164429
315.0471, 3.873585
315.5293, 2.006725
316.0114, 0.7418100
316.4935, 0.3073430
316.9756, 0.2139050
317.4577, 0.8017880
317.9398, 1.587006
318.4220, 1.665825
318.9041, 0.5310710
319.3862, 1.141829
319.8683, 1.170200
320.3504, 3.104408
320.8326, 5.691610
321.3147, 5.330791
321.7968, 3.653952
322.2789, 2.093729
322.7610, 1.168686
323.2431, 0.6894570
323.7253, 0.3690380
324.2074, 0.3307880
324.6895, 0.2841360
325.1716, 2.1462999E-02
325.6537, 0.1953320
326.1358, 0.1213800
326.6180, 0.9019890
327.1001, 1.793371
327.5822, 2.416601
328.0643, 2.691900
328.5464, 3.139765
329.0285, 4.184212
329.5107, 4.984661
329.9928, 5.135883
330.4749, 4.737812
330.9570, 4.036715
331.4391, 3.128183
331.9212, 2.070145
332.4034, 1.842501
332.8855, 3.548569
333.3676, 4.925634
333.8497, 5.433796
334.3318, 5.375355
334.8139, 5.272404
335.2961, 5.396847
335.7782, 5.495922
336.2603, 4.751957
336.7424, 1.870283
337.2245, 0.1106510
337.7066, 0.3505400
338.1888, 1.338217
338.6709, 2.006813
339.1530, 2.060013
339.6351, 1.869551
340.1172, 1.920065
340.5993, 2.067707
341.0815, 2.841616
341.5636, 5.522972
342.0457, 7.693552
342.5278, 7.412634
343.0099, 5.104311
343.4920, 2.950102
343.9742, 3.211533
344.4563, 6.112036
344.9384, 7.846064
345.4205, 7.017344
345.9026, 6.208036
346.3847, 6.308161
346.8669, 6.915901
347.3490, 7.055237
347.8311, 6.049149
348.3132, 4.314882
348.7953, 3.559706
349.2774, 4.338043
349.7596, 5.064589
350.2417, 5.265221
350.7238, 5.364294
351.2059, 5.927029
351.6880, 7.135578
352.1701, 8.414024
352.6523, 8.601585
353.1344, 7.050220
353.6165, 6.413202
354.0986, 8.205742
354.5807, 10.31598
355.0628, 11.09003
355.5450, 10.27187
356.0271, 8.975044
356.5092, 8.033543
356.9913, 7.454653
357.4734, 7.314703
357.9555, 8.011606
358.4377, 8.724800
358.9198, 9.272627
359.4019, 9.584270
359.8840, 9.490124
360.3661, 8.741709
360.8482, 7.624039
361.3304, 6.997803
361.8125, 6.982534
362.2946, 7.224367
362.7767, 7.837311
363.2588, 8.522966
363.7409, 9.030121
364.2231, 9.285706
364.7052, 9.188911
365.1873, 8.339832
365.6694, 6.582779
366.1515, 5.505804
366.6336, 5.909327
367.1158, 6.798061
367.5979, 7.614052
368.0800, 8.295958
368.5621, 8.664553
369.0442, 8.578466
369.5263, 7.909414
370.0085, 6.708553
370.4906, 4.740467
370.9727, 3.233849
371.4548, 3.387135
371.9369, 4.664312
372.4190, 5.947855
372.9012, 7.203489
373.3833, 7.979198
373.8654, 7.238647
374.3475, 4.769846
374.8296, 2.649567
375.3117, 2.008720
375.7939, 2.318058
376.2760, 2.724220
376.7581, 3.054544
377.2402, 3.670437
377.7223, 5.423841
378.2044, 8.014420
378.6866, 9.688255
379.1687, 9.917912
379.6508, 9.165781
380.1329, 7.838968
380.6150, 5.973232
381.0971, 4.050280
381.5793, 1.813492
382.0614, 0.2328360
382.5435, 1.320869
383.0256, 1.353840
383.5077, 0.8417760
383.9898, 2.5129000E-02
384.4720, 1.063797
384.9541, 2.124237
385.4362, 3.445480
385.9183, 4.457699
386.4004, 4.711435
386.8825, 4.342466
387.3647, 3.721039
387.8468, 2.894012
388.3289, 2.135033
388.8110, 2.295513
389.2931, 3.956394
389.7752, 5.097651
390.2574, 4.792404
390.7395, 3.989117
391.2216, 3.864124
391.7037, 4.664406
392.1858, 5.779861
392.6679, 6.565552
393.1501, 7.015226
393.6322, 6.975533
394.1143, 5.999369
394.5964, 4.975002
395.0785, 4.476254
395.5606, 4.385084
396.0428, 4.133514
396.5249, 3.271193
397.0070, 2.057186
397.4891, 1.904659
397.9712, 4.823301
398.4533, 6.373276
398.9355, 5.116756
399.4176, 2.701565
399.8997, 0.8449730
400.3818, 9.9606000E-02
400.8639, 6.1368998E-02
401.3460, 0.4618400
401.8282, 1.372843
402.3103, 1.726164
402.7924, 1.448349
403.2745, 0.7733060
403.7566, 0.6899720
404.2387, 2.520809
404.7209, 3.599424
405.2030, 2.889111
405.6851, 0.7225910
406.1672, 0.2886940
406.6493, 0.6481420
407.1314, 1.673819
407.6136, 2.492130
408.0957, 3.099493
408.5778, 3.477377
409.0599, 3.615982
409.5420, 3.610302
410.0241, 3.842598
410.5063, 4.591053
410.9884, 4.023346
411.4705, 0.5683310
411.9526, 4.466089
412.4347, 4.196459
412.9168, 0.4244100
413.3990, 3.143354
413.8811, 3.629930
414.3632, 1.840174
414.8453, 0.6963600
415.3274, 0.2291510
415.8095, 0.3445360
416.2917, 1.544529
416.7738, 3.131392
417.2559, 4.173416
417.7380, 4.377235
418.2201, 4.129765
418.7022, 3.735245
419.1844, 3.197779
419.6665, 2.504702
420.1486, 1.485752
420.6307, 0.5405220
421.1128, 0.2168940
421.5949, 0.4964900
422.0771, 0.8497850
422.5592, 1.184860
423.0413, 1.439877
423.5234, 1.343918
424.0055, 0.8630500
424.4876, 0.7956160
424.9698, 1.980284
425.4519, 4.144115
425.9340, 5.430967
426.4161, 5.198046
426.8982, 4.800365
427.3803, 4.908823
427.8625, 5.284994
428.3446, 5.316469
428.8267, 4.723728
429.3088, 4.039133
429.7909, 4.251089
430.2730, 6.174328
430.7552, 7.077616
431.2373, 5.945286
431.7194, 4.534241
432.2015, 4.153069
432.6836, 4.777040
433.1657, 5.616608
433.6479, 6.044947
434.1300, 6.102636
434.6121, 6.337255
435.0942, 7.395216
435.5763, 7.873943
436.0584, 6.755495
436.5406, 5.271233
437.0227, 4.874657
437.5048, 6.052208
437.9869, 8.121450
438.4690, 10.29653
438.9511, 13.07753
439.4333, 14.29425
439.9154, 12.21849
440.3975, 9.983543
440.8796, 9.014141
441.3617, 9.179325
441.8438, 9.726379
442.3260, 10.17566
442.8081, 10.56566
443.2902, 11.03418
443.7723, 11.42934
444.2544, 12.29278
444.7365, 14.64824
445.2187, 17.10980
445.7008, 18.33906
446.1829, 18.04485
446.6650, 17.07183
447.1471, 15.59733
447.6292, 13.81011
448.1114, 13.42847
448.5935, 15.18482
449.0756, 17.42870
449.5577, 18.97908
450.0398, 19.92786
450.5219, 20.41789
451.0041, 19.81803
451.4862, 19.25416
451.9683, 20.07837
452.4504, 22.08223
452.9325, 23.86248
453.4146, 24.86257
453.8968, 25.27591
454.3789, 25.20082
454.8610, 24.46415
455.3431, 23.57912
455.8252, 22.48356
456.3073, 21.47117
456.7895, 20.84389
457.2716, 20.62856
457.7537, 20.66875
458.2358, 20.86113
458.7179, 21.21676
459.2000, 21.14910
459.6822, 20.20927
460.1643, 19.39786
460.6464, 19.05742
461.1285, 19.05995
461.6106, 19.35326
462.0927, 19.81565
462.5748, 20.11517
463.0569, 19.70005
463.5391, 18.43027
464.0212, 16.72542
464.5033, 13.82072
464.9854, 11.36766
465.4675, 10.39161
465.9496, 10.53464
466.4318, 10.75823
466.9139, 10.36988
467.3960, 9.621592
467.8781, 9.340256
468.3602, 9.713037
468.8423, 10.06409
469.3245, 10.17153
469.8066, 9.903500
470.2887, 9.508289
470.7708, 9.207993
471.2529, 8.932854
471.7350, 8.566334
472.2172, 8.192371
472.6993, 8.265774
473.1814, 9.021341
473.6635, 9.635141
474.1456, 9.131321
474.6277, 8.067638
475.1099, 7.773298
475.5920, 9.099480
476.0741, 10.41307
476.5562, 10.38120
477.0383, 9.405010
477.5204, 8.613398
478.0026, 8.339680
478.4847, 8.509741
478.9668, 9.176891
479.4489, 10.59418
479.9310, 11.33064
480.4131, 10.29998
480.8953, 9.408127
481.3774, 10.31517
481.8595, 12.56194
482.3416, 14.47206
482.8237, 15.04607
483.3058, 14.64497
483.7880, 14.52410
484.2701, 14.95921
484.7522, 15.29093
485.2343, 15.48729
485.7164, 15.58611
486.1985, 15.61927
486.6807, 15.58820
487.1628, 15.44137
487.6449, 15.01495
488.1270, 14.37598
488.6091, 14.56137
489.0912, 16.45918
489.5734, 17.75311
490.0555, 17.45041
490.5376, 16.39945
491.0197, 15.44752
491.5018, 14.81237
491.9839, 14.50856
492.4661, 14.90355
492.9482, 15.84079
493.4303, 15.80154
493.9124, 14.21608
494.3945, 12.31844
494.8766, 10.99591
495.3588, 10.13334
495.8409, 9.527390
496.3230, 9.462982
496.8051, 9.325554
497.2872, 8.281288
497.7693, 6.659044
498.2515, 5.739279
498.7336, 6.077850
499.2157, 7.114796
499.6978, 8.157919
500.1799, 9.502132
500.6620, 9.639507
501.1442, 7.242008
501.6263, 4.630146
502.1084, 3.676777
502.5905, 4.004379
503.0726, 3.861010
503.5547, 2.070719
504.0369, 0.6120930
504.5190, 1.508791
505.0011, 1.148809
505.4832, 2.823261
505.9653, 2.790010
506.4474, 2.158381
506.9296, 1.593916
507.4117, 1.222073
507.8938, 0.9411530
508.3759, 0.6422480
508.8580, 0.3623710
509.3401, 0.4538230
509.8223, 1.380367
510.3044, 1.648483
510.7865, 0.2335870
511.2686, 2.523525
511.7507, 3.452703
512.2328, 2.651989
512.7150, 1.327944
513.1971, 3.8759999E-03
513.6792, 1.152557
514.1613, 1.370564
514.6434, 0.3658490
515.1255, 0.5857260
515.6077, 0.4737210
516.0898, 0.5063610
516.5719, 1.364265
517.0540, 2.307997
517.5361, 2.835121
518.0182, 2.249859
518.5004, 1.220182
518.9825, 1.050989
519.4646, 2.080893
519.9467, 3.279690
520.4288, 3.351318
520.9109, 2.038563
521.3931, 1.326334
521.8752, 1.143684
522.3573, 1.523766
522.8394, 3.135111
523.3215, 5.119946
523.8036, 6.019987
524.2858, 5.275074
524.7679, 4.052771
525.2500, 4.470808
525.7321, 7.043930
526.2142, 8.627922
526.6964, 8.099976
527.1785, 7.544008
527.6606, 8.119560
528.1427, 9.394289
528.6248, 10.32672
529.1069, 10.34754
529.5891, 10.05939
530.0712, 10.43028
530.5533, 11.39297
531.0354, 11.67372
531.5175, 10.55505
531.9996, 9.203411
532.4818, 9.226654
532.9639, 10.49762
533.4460, 11.43787
533.9281, 11.14876
534.4102, 10.89838
534.8923, 12.04181
535.3745, 14.13762
535.8566, 15.61681
536.3387, 15.70689
536.8208, 14.96669
537.3029, 14.52170
537.7850, 14.48308
538.2672, 14.53028
538.7493, 14.64979
539.2314, 14.85928
539.7135, 15.07137
540.1956, 15.38287
540.6777, 16.12420
541.1599, 17.57864
541.6420, 19.26595
542.1241, 19.79020
542.6062, 18.61327
543.0883, 18.01873
543.5704, 19.06383
544.0526, 20.29634
544.5347, 20.79336
545.0168, 20.63643
545.4989, 20.45635
545.9810, 20.72067
546.4631, 21.08200
546.9453, 20.75006
547.4274, 19.68567
547.9095, 19.48931
548.3916, 21.22119
548.8737, 23.62606
549.3558, 24.30863
549.8380, 23.04397
550.3201, 22.08916
550.8022, 22.01253
551.2843, 22.28836
551.7664, 22.71419
552.2485, 23.16139
552.7307, 23.26279
553.2128, 22.70552
553.6949, 21.70692
554.1770, 20.66565
554.6591, 19.12540
555.1412, 18.40624
555.6234, 19.14159
556.1055, 20.06238
556.5876, 20.35941
557.0697, 20.15829
557.5518, 20.14651
558.0339, 20.86276
558.5161, 21.70182
558.9982, 21.18804
559.4803, 19.12577
559.9624, 16.95465
560.4445, 14.41477
560.9266, 12.58282
561.4088, 12.74891
561.8909, 14.78561
562.3730, 16.55789
562.8551, 17.53083
563.3372, 17.60949
563.8193, 16.20395
564.3015, 13.67024
564.7836, 11.95472
565.2657, 12.01470
565.7478, 12.76147
566.2299, 12.00622
566.7120, 8.500341
567.1942, 6.618423
567.6763, 7.767727
568.1584, 9.232210
568.6405, 9.497974
569.1226, 8.731056
569.6047, 7.770229
570.0869, 7.058508
570.5690, 6.685795
571.0511, 7.042313
571.5332, 8.521347
572.0153, 9.060371
572.4974, 7.561234
572.9796, 5.948534
573.4617, 5.273624
573.9438, 5.319794
574.4259, 5.389732
574.9080, 5.063648
575.3901, 4.854994
575.8723, 5.864653
576.3544, 7.718792
576.8365, 7.972790
577.3186, 5.531221
577.8007, 2.832533
578.2828, 2.871071
578.7650, 5.802088
579.2471, 7.367935
579.7292, 6.642344
580.2113, 5.484352
580.6934, 4.407885
581.1755, 3.597935
581.6577, 3.379187
582.1398, 3.831991
582.6219, 4.505453
583.1040, 4.801781
583.5861, 4.681839
584.0682, 4.492752
584.5504, 4.371344
585.0325, 3.993982
585.5146, 2.566666
585.9967, 1.127407
586.4788, 1.193539
586.9609, 3.244781
587.4431, 5.731764
587.9252, 7.353893
588.4073, 8.212128
588.8894, 8.635052
589.3715, 8.604443
589.8536, 8.335701
590.3358, 7.635578
590.8179, 6.885321
591.3000, 7.381399
591.7821, 10.35893
592.2642, 12.35830
592.7463, 11.52691
593.2285, 9.600941
593.7106, 8.281448
594.1927, 7.864887
594.6748, 8.212675
595.1569, 9.373203
595.6390, 11.03062
596.1212, 11.44927
596.6033, 9.878551
597.0854, 8.349121
597.5675, 7.102991
598.0496, 5.977789
598.5317, 4.616522
599.0139, 3.194635
599.4960, 2.477781
599.9781, 3.332443
600.4602, 4.904922
600.9423, 5.515451
601.4244, 5.153482
601.9066, 4.906605
602.3887, 5.407804
602.8708, 5.788822
603.3529, 4.344824
603.8350, 1.029982
604.3171, 0.8065510
604.7993, 0.3518010
605.2814, 2.045818
605.7635, 2.855677
606.2456, 3.001919
606.7277, 3.158562
607.2098, 3.575632
607.6920, 3.883991
608.1741, 3.463751
608.6562, 2.139957
609.1383, 1.024229
609.6204, 0.5097100
610.1025, 1.049553
610.5847, 0.6657100
611.0668, 3.292667
611.5489, 5.122438
612.0310, 5.690872
612.5131, 5.398754
612.9952, 4.243587
613.4774, 2.512762
613.9595, 1.047369
614.4416, 0.1002480
614.9237, 0.7974000
615.4058, 0.8779320
615.8879, 0.4770260
616.3701, 2.6730999E-02
616.8522, 0.5743030
617.3343, 1.020250
617.8164, 1.445187
618.2985, 1.550974
618.7806, 0.6132010
619.2628, 0.9903660
619.7449, 1.774275
620.2270, 0.6838760
620.7091, 1.446566
621.1912, 2.075449
621.6733, 0.4169010
622.1555, 0.3842280
622.6376, 0.7771260
623.1197, 2.223940
623.6018, 3.304083
624.0839, 3.930868
624.5660, 3.957203
625.0482, 3.124140
625.5303, 1.995245
626.0124, 0.9660850
626.4945, 9.8379001E-02
626.9766, 0.3531650
627.4587, 0.3171100
627.9409, 3.8550999E-02
628.4230, 0.6743890
628.9051, 1.522036
629.3872, 2.001547
629.8693, 1.727711
630.3514, 1.665682
630.8336, 2.327972
631.3157, 3.115652
631.7978, 3.453585
632.2799, 3.230982
632.7620, 2.719807
633.2441, 2.217808
633.7263, 1.687351
634.2084, 0.8311900
634.6905, 0.5782200
635.1726, 1.413000
635.6547, 1.239599
636.1368, 0.4101490
636.6190, 1.010548
637.1011, 2.926277
637.5832, 4.115652
638.0653, 3.806173
638.5474, 2.967281
639.0295, 2.172777
639.5117, 1.502657
639.9938, 1.008581
640.4759, 0.7113490
640.9580, 0.9280760
641.4401, 2.294065
641.9222, 5.111290
642.4044, 6.254242
642.8865, 3.708918
643.3686, 1.929626
643.8507, 2.440229
644.3328, 3.526241
644.8149, 3.616644
645.2971, 2.483408
645.7792, 1.461775
646.2613, 1.858341
646.7434, 3.129225
647.2255, 3.985146
647.7076, 4.374041
648.1898, 4.436129
648.6719, 4.141262
649.1540, 3.745974
649.6361, 3.660278
650.1182, 3.924280
650.6003, 4.261126
651.0825, 4.822002
651.5646, 5.280897
652.0467, 5.641047
652.5288, 5.719448
653.0109, 4.977184
653.4930, 3.286898
653.9752, 1.592566
654.4573, 1.374525
654.9394, 2.686140
655.4215, 3.149239
655.9036, 2.304594
656.3857, 1.517336
656.8679, 1.354259
657.3500, 1.610889
657.8321, 2.162157
658.3142, 3.029911
658.7963, 3.875277
659.2784, 4.994722
659.7606, 5.714176
660.2427, 4.886076
660.7248, 2.858950
661.2069, 1.140270
661.6890, 0.4284730
662.1711, 0.4487170
662.6533, 0.8949620
663.1354, 1.844950
663.6175, 2.780890
664.0996, 3.555779
664.5817, 4.487057
665.0638, 6.274441
665.5460, 8.033571
666.0281, 8.311886
666.5102, 6.705864
666.9923, 5.011036
667.4744, 4.875654
667.9565, 5.822832
668.4387, 6.639164
668.9208, 6.975361
669.4029, 6.943129
669.8850, 6.431716
670.3671, 5.675375
670.8492, 5.161249
671.3314, 4.983870
671.8135, 4.804833
672.2956, 4.238424
672.7777, 4.006279
673.2598, 5.088469
673.7419, 6.678346
674.2241, 7.269114
674.7062, 6.303827
675.1883, 4.851021
675.6704, 4.249852
676.1525, 4.402050
676.6346, 4.226646
677.1168, 3.419075
677.5989, 3.013678
678.0810, 4.113744
678.5631, 5.712303
679.0452, 5.909012
679.5273, 4.392497
680.0095, 3.143119
680.4916, 2.805897
680.9737, 2.851084
681.4558, 3.006470
681.9379, 3.228333
682.4200, 3.503984
682.9022, 3.826803
683.3843, 4.162245
683.8664, 4.604118
684.3485, 5.215748
684.8306, 4.706886
685.3127, 2.072746
685.7949, 0.2123970
686.2770, 0.9615810
686.7591, 2.716895
687.2412, 4.019909
687.7233, 4.742270
688.2054, 4.606092
688.6876, 2.415994
689.1697, 0.1003760
689.6518, 2.3633000E-02
690.1339, 1.650183
690.6160, 2.928673
691.0981, 3.049289
691.5803, 2.799845
692.0624, 3.400860
692.5445, 5.026869
693.0266, 5.616784
693.5087, 4.064544
693.9908, 3.169191
694.4730, 4.198175
694.9551, 5.807707
695.4372, 6.833179
695.9193, 7.077506
696.4014, 6.654824
696.8835, 5.038336
697.3657, 3.166880
697.8478, 2.324389
698.3299, 2.383204
698.8120, 2.804308
699.2941, 3.480216
699.7762, 3.692966
700.2584, 2.252317
700.7405, 1.129051
701.2226, 2.524551
701.7047, 0.4602040
702.1868, 2.511915
702.6689, 2.069792
703.1511, 0.7020470
703.6332, 0.3293530
704.1153, 0.7814260
704.5974, 0.7773130
705.0795, 0.4125790
705.5616, 0.3846130
706.0438, 2.164655
706.5259, 4.662357
707.0080, 6.099529
707.4901, 5.924116
707.9722, 5.032262
708.4543, 4.133923
708.9365, 3.275343
709.4186, 2.773988
709.9007, 2.159878
710.3828, 2.501584
710.8649, 5.328833
711.3470, 8.153968
711.8292, 8.638545
712.3113, 7.039433
712.7934, 5.190264
713.2755, 4.011297
713.7576, 3.420487
714.2397, 3.544361
714.7219, 4.245087
715.2040, 4.445238
715.6861, 3.833274
716.1682, 3.230820
716.6503, 3.342720
717.1324, 4.024591
717.6146, 4.474556
718.0967, 4.669403
718.5788, 4.664988
719.0609, 4.305519
719.5430, 3.874709
720.0251, 3.487872
720.5073, 3.247610
720.9894, 3.347597
721.4715, 3.901176
721.9536, 4.579405
722.4357, 4.927402
722.9178, 5.007420
723.4000, 5.410956
723.8821, 6.387573
724.3642, 6.256006
724.8463, 3.289021
725.3284, 0.8984130
725.8105, 1.951206
726.2927, 1.717324
726.7748, 4.416239
727.2569, 5.492107
727.7390, 5.896906
728.2211, 5.799639
728.7032, 5.504219
729.1854, 5.496644
729.6675, 5.914167
730.1496, 6.250498
730.6317, 5.913653
731.1138, 5.056387
731.5959, 4.109215
732.0781, 3.039547
732.5602, 2.459568
733.0423, 2.674539
733.5244, 3.399113
734.0065, 4.253221
734.4886, 5.250492
734.9708, 6.337000
735.4529, 8.376684
735.9350, 9.479472
736.4171, 8.133162
736.8992, 6.021267
737.3813, 5.293684
737.8635, 6.007652
738.3456, 6.316872
738.8277, 4.440884
739.3098, 1.837184
739.7919, 2.025806
740.2740, 4.757193
740.7562, 5.982845
741.2383, 4.377839
741.7204, 2.392859
742.2025, 2.475634
742.6846, 4.345364
743.1667, 4.988843
743.6489, 2.912831
744.1310, 1.777527
744.6131, 2.908057
745.0952, 4.299622
745.5773, 4.331375
746.0594, 3.340827
746.5416, 2.687389
747.0237, 3.063257
747.5058, 3.521132
747.9879, 2.393333
748.4700, 0.3207820
748.9521, 0.1332510
749.4343, 2.212002
749.9164, 4.218685
750.3985, 4.811739
750.8806, 4.483681
751.3627, 4.366827
751.8448, 4.719860
752.3270, 4.597221
752.8091, 3.012182
753.2912, 2.090704
753.7733, 3.582453
754.2554, 5.810318
754.7375, 6.297754
755.2197, 4.583345
755.7018, 2.796406
756.1839, 2.615963
756.6660, 3.317303
757.1481, 3.733253
757.6302, 3.913891
758.1124, 4.394648
758.5945, 5.314255
759.0766, 5.760647
759.5587, 4.772196
760.0408, 2.254606
760.5229, 0.7886890
761.0051, 0.9840410
761.4872, 1.281244
761.9693, 1.424479
762.4514, 1.683928
762.9335, 2.719202
763.4156, 4.103678
763.8978, 4.271362
764.3799, 1.935986
764.8620, 0.4491630
765.3441, 0.9661350
765.8262, 0.1174580
766.3083, 1.659714
766.7905, 4.063526
767.2726, 5.733154
767.7547, 5.817739
768.2368, 4.783188
768.7189, 3.525187
769.2010, 1.714094
769.6832, 0.9526210
770.1653, 2.082031
770.6474, 3.089851
771.1295, 2.781939
771.6116, 2.044470
772.0938, 2.160513
772.5759, 3.351311
773.0580, 4.031422
773.5401, 3.254480
774.0222, 2.045391
774.5043, 0.8725990
774.9865, 1.5564000E-02
775.4686, 0.1285060
775.9507, 0.6133480
776.4328, 1.700047
776.9149, 2.718611
777.3970, 3.613335
777.8792, 4.061684
778.3613, 3.977962
778.8434, 3.930351
779.3255, 4.057352
779.8076, 4.225931
780.2897, 4.328476
780.7719, 4.377718
781.2540, 4.428936
781.7361, 4.565620
782.2182, 4.573460
782.7003, 4.061548
783.1824, 3.594507
783.6646, 3.922958
784.1467, 5.006981
784.6288, 6.090956
785.1109, 7.049393
785.5930, 7.297102
786.0751, 5.472067
786.5573, 2.374296
787.0394, 1.091768
787.5215, 1.759476
788.0036, 2.195141
788.4857, 1.282310
788.9678, 7.4175000E-02
789.4500, 0.1792350
789.9321, 1.831240
790.4142, 2.929716
790.8963, 3.408138
791.3784, 3.446823
791.8605, 2.734428
792.3427, 1.857244
792.8248, 1.381996
793.3069, 1.255278
793.7890, 0.9259930
794.2711, 0.1276300
794.7532, 1.016668
795.2354, 0.8301700
795.7175, 0.1426790
796.1996, 1.699265
796.6817, 3.618387
797.1638, 4.388346
797.6459, 2.939341
798.1281, 0.4646430
798.6102, 0.2447090
799.0923, 1.282293
799.5744, 2.663664
800.0565, 4.281830
800.5386, 5.143560
801.0208, 4.127346
801.5029, 2.491163
801.9850, 1.657824
802.4671, 1.729347
802.9492, 1.920382
803.4313, 2.283323
803.9135, 2.414488
804.3956, 1.577354
804.8777, 0.5840470
805.3598, 0.8410950
805.8419, 2.386412
806.3240, 3.810993
806.8062, 4.058424
807.2883, 3.641993
807.7704, 3.514395
808.2525, 3.667780
808.7346, 4.075499
809.2167, 4.880842
809.6989, 5.232313
810.1810, 4.421524
810.6631, 2.867386
811.1452, 1.683075
811.6273, 0.7184540
812.1094, 0.5295580
812.5916, 1.817945
813.0737, 3.073853
813.5558, 3.965277
814.0379, 4.312313
814.5200, 3.635885
815.0021, 2.035711
815.4843, 0.8373090
815.9664, 0.6978610
816.4485, 1.177732
816.9306, 2.531178
817.4127, 4.328608
817.8948, 5.279619
818.3770, 5.148020
818.8591, 4.690714
819.3412, 4.504845
819.8233, 4.472969
820.3054, 4.159767
820.7875, 3.419161
821.2697, 3.102238
821.7518, 3.638237
822.2339, 3.989681
822.7160, 3.184443
823.1981, 1.913094
823.6802, 1.795444
824.1624, 3.005739
824.6445, 3.940609
825.1266, 4.154133
825.6087, 3.962065
826.0908, 3.210720
826.5729, 2.427681
827.0551, 2.385973
827.5372, 3.108932
828.0193, 3.761406
828.5014, 3.600058
828.9835, 3.195396
829.4656, 3.803274
829.9478, 5.137699
830.4299, 5.752422
830.9120, 5.379120
831.3941, 4.794779
831.8762, 4.532827
832.3583, 4.433117
832.8404, 4.014675
833.3225, 3.034012
833.8046, 2.487795
834.2867, 2.335081
834.7689, 2.533220
835.2510, 3.447725
835.7331, 4.494949
836.2152, 4.923897
836.6973, 4.683474
837.1794, 4.556004
837.6616, 5.020435
838.1437, 5.424744
838.6258, 5.563850
839.1079, 5.297272
839.5900, 4.204906
840.0721, 2.450499
840.5543, 0.7670060
841.0364, 0.4823280
841.5185, 0.9757350
842.0006, 0.6173550
842.4827, 3.735374
842.9648, 4.134205
843.4470, 1.176352
843.9291, 1.234493
844.4112, 1.143560
844.8933, 0.6108610
845.3754, 2.924717
845.8575, 6.193300
846.3397, 7.493183
846.8218, 4.821020
847.3039, 2.888245
847.7860, 3.119781
848.2681, 3.994139
848.7502, 4.381096
849.2324, 4.267035
849.7145, 3.997301
850.1966, 3.570057
850.6787, 3.204441
851.1608, 2.892105
851.6429, 2.799723
852.1251, 3.448328
852.6072, 4.430538
853.0893, 4.704752
853.5714, 3.841492
854.0535, 2.497969
854.5356, 1.314661
855.0178, 0.3876190
855.4999, 0.2787340
855.9820, 1.005625
856.4641, 1.941734
856.9462, 3.038582
857.4283, 3.856850
857.9105, 3.894234
858.3926, 3.261395
858.8747, 2.860882
859.3568, 2.953901
859.8389, 2.821989
860.3210, 2.126545
860.8032, 1.518875
861.2853, 1.505938
861.7674, 1.722921
862.2495, 1.448610
862.7316, 0.4791870
863.2137, 0.1897790
863.6959, 6.3998997E-02
864.1780, 0.4389550
864.6601, 1.287218
865.1422, 2.170372
865.6243, 2.575949
866.1064, 2.444319
866.5886, 2.037199
867.0707, 1.410215
867.5528, 0.9595490
868.0349, 1.770634
868.5170, 3.541214
868.9991, 4.264540
869.4813, 3.663263
869.9634, 2.983746
870.4455, 2.961607
870.9276, 3.081905
871.4097, 2.343666
871.8918, 0.5683290
872.3740, 0.8908440
872.8561, 2.574411
873.3382, 3.071161
873.8203, 0.8514440
874.3024, 1.777689
874.7845, 2.948973
875.2667, 2.911860
875.7488, 3.045866
876.2309, 4.006569
876.7130, 4.473885
877.1951, 3.522049
877.6772, 2.286320
878.1594, 1.812588
878.6415, 1.810392
879.1236, 1.379232
879.6057, 0.2646960
880.0878, 0.6613940
880.5699, 0.1883430
881.0521, 1.083223
881.5342, 0.2810820
882.0163, 1.240377
882.4984, 1.774805
882.9805, 0.8793140
883.4626, 0.4480380
883.9448, 1.515392
884.4269, 2.196966
884.9090, 1.914385
885.3911, 0.3439200
885.8732, 0.2914490
886.3553, 0.3800980
886.8375, 1.415964
887.3196, 2.761810
887.8017, 3.937660
888.2838, 4.122780
888.7659, 3.226999
889.2480, 2.479971
889.7302, 2.150291
890.2123, 1.654661
890.6944, 0.2856430
891.1765, 0.8276790
891.6586, 0.5131470
892.1407, 0.8248790
892.6229, 1.878086
893.1050, 2.122334
893.5871, 2.481579
894.0692, 4.258810
894.5513, 5.956701
895.0334, 5.232592
895.5156, 3.075750
895.9977, 2.132465
896.4798, 3.071201
896.9619, 4.484737
897.4440, 5.263718
897.9261, 5.431677
898.4083, 4.814222
898.8904, 3.465101
899.3725, 2.423695
899.8546, 1.921452
900.3367, 1.991747
900.8188, 2.804579
901.3010, 3.977207
901.7831, 4.714092
902.2652, 5.109741
902.7473, 5.182491
903.2294, 4.340986
903.7115, 4.003662
904.1937, 5.043739
904.6758, 6.298147
905.1579, 6.916693
905.6400, 6.929548
906.1221, 6.466568
906.6042, 5.304863
907.0864, 4.112600
907.5685, 2.205103
908.0506, 1.164705
908.5327, 2.990278
909.0148, 6.034924
909.4969, 7.570108
909.9791, 7.033400
910.4612, 6.183733
910.9433, 6.065697
911.4254, 6.299746
911.9075, 6.435444
912.3896, 6.639421
912.8718, 7.492018
913.3539, 8.861872
913.8360, 9.587032
914.3181, 8.961210
914.8002, 8.121304
915.2823, 9.305128
915.7645, 9.339096
916.2466, 9.584831
916.7287, 11.38192
917.2108, 10.91699
917.6929, 12.68330
918.1750, 14.70869
918.6572, 15.04030
919.1393, 13.94619
919.6214, 12.86491
920.1035, 11.16062
920.5856, 11.11324
921.0677, 14.28670
921.5499, 17.15649
922.0320, 17.59645
922.5141, 16.98269
922.9962, 17.24627
923.4783, 18.51778
923.9604, 19.12337
924.4426, 17.61012
924.9247, 16.98548
925.4068, 18.86863
925.8889, 21.54142
926.3710, 23.61305
926.8531, 25.15033
927.3353, 26.72182
927.8174, 28.53925
928.2995, 30.29247
928.7816, 31.24009
929.2637, 32.45504
929.7458, 35.72852
930.2280, 39.96712
930.7101, 42.70524
931.1922, 43.70503
931.6743, 44.69353
932.1564, 46.55592
932.6385, 49.48345
933.1207, 54.53662
933.6028, 61.07240
934.0849, 66.12672
934.5670, 69.51639
935.0491, 73.11256
935.5313, 77.68278
936.0134, 82.91931
936.4955, 88.62201
936.9776, 94.65807
937.4597, 99.55190
937.9418, 102.9109
938.4240, 106.6710
938.9061, 110.9068
939.3882, 116.0444
939.8703, 122.5980
940.3524, 129.8617
940.8345, 136.3449
941.3167, 141.7939
941.7988, 147.0836
942.2809, 152.4267
942.7630, 157.3118
943.2451, 162.0491
943.7272, 165.9113
944.2094, 168.4363
944.6915, 169.6120
945.1736, 169.4184
945.6557, 167.0412
946.1378, 165.3612
946.6199, 166.9097
947.1021, 168.0612
947.5842, 166.4938
948.0663, 162.7750
948.5484, 157.5033
949.0305, 150.8819
949.5126, 143.6155
949.9948, 136.0213
950.4769, 128.1790
950.9590, 119.5370
951.4411, 110.8296
951.9232, 103.2054
952.4053, 96.56123
952.8875, 90.08952
953.3696, 83.54286
953.8517, 77.57497
954.3338, 73.11540
954.8159, 67.64649
955.2980, 62.98781
955.7802, 59.01891
956.2623, 54.48679
956.7444, 51.47409
957.2265, 48.41352
957.7086, 44.24065
958.1907, 40.03735
958.6729, 37.93577
959.1550, 37.99793
959.6371, 37.46725
960.1192, 36.34637
960.6013, 34.53804
961.0834, 31.76937
961.5656, 28.77572
962.0477, 25.86805
962.5298, 23.34958
963.0119, 22.39673
963.4940, 24.10624
963.9761, 24.59599
964.4583, 23.27656
964.9404, 21.50727
965.4225, 19.04968
965.9046, 16.83328
966.3867, 15.86682
966.8688, 16.00107
967.3510, 16.24912
967.8331, 17.16196
968.3152, 17.00660
968.7973, 14.09000
969.2794, 11.38432
969.7615, 10.87193
970.2437, 11.61577
970.7258, 12.40537
971.2079, 12.96007
971.6900, 13.07347
972.1721, 12.07541
972.6542, 11.39839
973.1364, 12.94648
973.6185, 14.53598
974.1006, 12.84748
974.5827, 9.264229
975.0648, 7.801027
975.5469, 9.635321
976.0291, 11.80869
976.5112, 11.85907
976.9933, 10.88829
977.4754, 10.16433
977.9575, 9.652147
978.4396, 9.382736
978.9218, 9.266563
979.4039, 8.864231
979.8860, 7.949862
980.3681, 6.931200
980.8502, 6.081305
981.3323, 5.623571
981.8145, 6.954437
982.2966, 9.725712
982.7787, 10.83364
983.2608, 9.593452
983.7429, 7.888113
984.2250, 6.905060
984.7072, 6.639063
985.1893, 7.343019
985.6714, 9.074749
986.1535, 9.732347
986.6356, 9.174189
987.1177, 8.301214
987.5999, 7.237411
988.0820, 6.315773
988.5641, 5.942610
989.0462, 5.835957
989.5283, 4.847281
990.0104, 2.069008
990.4926, 1.511549
990.9747, 4.958744
991.4568, 7.135090
991.9389, 5.040956
992.4210, 2.345585
992.9031, 3.384834
993.3853, 7.356123
993.8674, 8.736822
994.3495, 5.278521
994.8316, 3.055248
995.3137, 2.923149
995.7958, 3.148109
996.2780, 3.514561
996.7601, 3.569891
997.2422, 2.389236
997.7243, 0.2164100
998.2064, 0.7754920
998.6885, 0.5536590
999.1707, 1.940002
999.6528, 3.529928
1000.135, 4.269075
1000.617, 2.813328
1001.099, 0.4169350
1001.581, 1.226231
1002.063, 1.862112
1002.545, 1.919775
1003.028, 1.327196
1003.510, 0.5696530
1003.992, 0.5875820
1004.474, 1.361128
1004.956, 0.4508300
1005.438, 1.252159
1005.920, 1.774715
1006.402, 0.7476220
1006.885, 0.1488040
1007.367, 0.5720200
1007.849, 1.341438
1008.331, 0.1637170
1008.813, 1.564863
1009.295, 1.795464
1009.777, 0.7272620
1010.259, 0.6645160
1010.741, 1.938829
1011.224, 2.416718
1011.706, 1.008722
1012.188, 1.005331
1012.670, 1.583046
1013.152, 1.287762
1013.634, 1.510820
1014.116, 2.260038
1014.598, 2.674997
1015.081, 2.380955
1015.563, 1.784285
1016.045, 1.164295
1016.527, 0.7162210
1017.009, 1.030958
1017.491, 1.975962
1017.973, 3.126593
1018.455, 4.339607
1018.937, 4.847414
1019.420, 4.228163
1019.902, 3.236544
1020.384, 2.832195
1020.866, 2.957672
1021.348, 3.440893
1021.830, 4.264952
1022.312, 4.872583
1022.794, 5.159071
1023.276, 5.539825
1023.759, 6.278494
1024.241, 7.109329
1024.723, 7.617365
1025.205, 7.817974
1025.687, 7.732838
1026.169, 7.215521
1026.651, 7.860626
1027.133, 10.28922
1027.616, 12.29053
1028.098, 12.34571
1028.580, 11.59304
1029.062, 12.15917
1029.544, 14.10131
1030.026, 15.18122
1030.508, 15.01036
1030.990, 15.50426
1031.473, 17.54698
1031.955, 18.98902
1032.437, 18.17544
1032.919, 16.37760
1033.401, 16.08016
1033.883, 17.51287
1034.365, 18.26718
1034.847, 17.96014
1035.329, 17.84253
1035.812, 18.29497
1036.294, 18.70184
1036.776, 18.33741
1037.258, 17.89446
1037.740, 18.87009
1038.222, 21.56502
1038.704, 23.73327
1039.186, 25.70175
1039.668, 26.58053
1040.151, 25.45723
1040.633, 24.06830
1041.115, 23.57116
1041.597, 23.49876
1042.079, 22.86709
1042.561, 21.50818
1043.043, 20.70521
1043.525, 20.97366
1044.008, 21.21657
1044.490, 21.22093
1044.972, 20.87410
1045.454, 19.82110
1045.936, 18.55599
1046.418, 18.26083
1046.900, 19.24410
1047.382, 18.75037
1047.865, 14.42089
1048.347, 11.49139
1048.829, 12.62126
1049.311, 14.00464
1049.793, 12.67578
1050.275, 10.17331
1050.757, 9.309432
1051.239, 10.37929
1051.721, 10.91462
1052.203, 9.943529
1052.686, 9.110302
1053.168, 8.911821
1053.650, 8.969915
1054.132, 9.406833
1054.614, 9.842438
1055.096, 9.494527
1055.578, 8.471888
1056.060, 7.503075
1056.543, 6.427288
1057.025, 6.074704
1057.507, 7.181932
1057.989, 8.623072
1058.471, 10.07503
1058.953, 11.08983
1059.435, 10.69639
1059.917, 8.931201
1060.400, 7.780176
1060.882, 8.173968
1061.364, 8.957678
1061.846, 10.00685
1062.328, 10.95401
1062.810, 11.65202
1063.292, 12.02635
1063.774, 11.91025
1064.256, 11.48730
1064.739, 10.96065
1065.221, 10.33543
1065.703, 9.538808
1066.185, 8.060234
1066.667, 7.074990
1067.149, 7.926748
1067.631, 9.544883
1068.113, 10.46538
1068.595, 10.44632
1069.078, 9.863042
1069.560, 8.729937
1070.042, 7.595470
1070.524, 6.339716
1071.006, 5.454681
1071.488, 5.408121
1071.970, 5.862352
1072.452, 6.590456
1072.935, 7.379030
1073.417, 7.486085
1073.899, 6.118404
1074.381, 5.705265
1074.863, 9.011079
1075.345, 11.88214
1075.827, 11.00907
1076.309, 8.410743
1076.792, 6.148285
1077.274, 4.679699
1077.756, 4.406053
1078.238, 5.776245
1078.720, 6.737514
1079.202, 5.971450
1079.684, 4.952229
1080.166, 4.356457
1080.648, 4.186525
1081.130, 4.768461
1081.613, 5.681753
1082.095, 5.720022
1082.577, 4.423180
1083.059, 3.466708
1083.541, 3.776958
1084.023, 4.320878
1084.505, 4.838118
1084.987, 5.292655
1085.469, 5.639526
1085.952, 5.848261
1086.434, 6.020144
1086.916, 6.190338
1087.398, 5.512472
1087.880, 2.553462
1088.362, 6.0688999E-02
1088.844, 0.3883320
1089.326, 5.3619999E-02
1089.809, 3.2699998E-02
1090.291, 3.4224998E-02
1090.773, 0.9232430
1091.255, 2.894100
1091.737, 4.018361
1092.219, 2.815471
1092.701, 1.780080
1093.183, 2.175776
1093.666, 2.767961
1094.148, 2.671332
1094.630, 2.187918
1095.112, 1.767877
1095.594, 1.489937
1096.076, 1.375839
1096.558, 1.432555
1097.040, 1.651998
1097.522, 2.103510
1098.005, 2.636822
1098.487, 3.404032
1098.969, 4.034540
1099.451, 4.223453
1099.933, 3.893041
1100.415, 2.763309
1100.897, 0.1795250
1101.379, 1.409930
1101.861, 0.7032180
1102.344, 0.2832130
1102.826, 0.8055050
1103.308, 1.120034
1103.790, 1.451340
1104.272, 1.803890
1104.754, 2.130046
1105.236, 2.415224
1105.718, 2.728894
1106.201, 3.753426
1106.683, 3.890147
1107.165, 1.544198
1107.647, 0.7101320
1108.129, 1.043987
1108.611, 2.8653000E-02
1109.093, 1.570792
1109.575, 3.830389
1110.057, 4.563303
1110.540, 2.391409
1111.022, 0.4300240
1111.504, 1.831209
1111.986, 2.701700
1112.468, 0.2303910
1112.950, 4.069794
1113.432, 4.606038
1113.914, 2.010036
1114.396, 0.5978310
1114.879, 1.136985
1115.361, 1.544307
1115.843, 1.662988
1116.325, 1.850324
1116.807, 2.483481
1117.289, 2.957948
1117.771, 2.476339
1118.253, 1.399887
1118.736, 1.228326
1119.218, 2.588876
1119.700, 2.637407
1120.182, 4.5876998E-02
1120.664, 0.8725220
1121.146, 2.473492
1121.628, 5.797518
1122.110, 6.044636
1122.593, 4.291419
1123.075, 2.571796
1123.557, 0.8145080
1124.039, 0.4162380
1124.521, 1.822754
1125.003, 3.034112
1125.485, 3.822673
1125.967, 4.138402
1126.449, 3.906285
1126.932, 3.266408
1127.414, 2.250045
1127.896, 1.119778
1128.378, 1.264900
1128.860, 2.844013
1129.342, 4.094216
1129.824, 4.919924
1130.306, 4.838904
1130.788, 3.497657
1131.271, 2.501074
1131.753, 3.476401
1132.235, 5.536183
1132.717, 6.495774
1133.199, 6.388769
1133.681, 5.503744
1134.163, 3.881181
1134.645, 2.207047
1135.128, 0.6615370
1135.610, 0.1351830
1136.092, 1.252330
1136.574, 3.065723
1137.056, 4.270322
1137.538, 4.983978
1138.020, 5.748824
1138.502, 6.388856
1138.984, 6.077298
1139.467, 4.774132
1139.949, 2.612017
1140.431, 0.2473900
1140.913, 2.016291
1141.395, 0.5862830
1141.877, 2.154077
1142.359, 3.168505
1142.841, 3.201055
1143.323, 3.891793
1143.806, 4.960247
1144.288, 5.126122
1144.770, 4.228391
1145.252, 3.218379
1145.734, 2.565282
1146.216, 2.472052
1146.698, 3.640174
1147.180, 5.035903
1147.663, 5.346077
1148.145, 5.010877
1148.627, 4.589688
1149.109, 4.308175
1149.591, 4.733368
1150.073, 6.081558
1150.555, 6.607981
1151.037, 4.077530
1151.520, 1.861195
1152.002, 2.688999
1152.484, 4.320495
1152.966, 4.720561
1153.448, 4.319821
1153.930, 3.991182
1154.412, 3.944447
1154.894, 4.468117
1155.376, 6.378229
1155.859, 7.760133
1156.341, 8.276238
1156.823, 8.208350
1157.305, 7.383591
1157.787, 6.229401
1158.269, 5.013307
1158.751, 3.831227
1159.233, 2.826843
1159.715, 2.133428
1160.198, 1.833922
1160.680, 1.651430
1161.162, 2.167985
1161.644, 4.036821
1162.126, 5.970711
1162.608, 7.743446
1163.090, 8.718277
1163.572, 7.590306
1164.055, 4.505470
1164.537, 2.866514
1165.019, 3.127800
1165.501, 3.331444
1165.983, 3.311497
1166.465, 3.747221
1166.947, 5.000254
1167.429, 6.097878
1167.911, 6.138215
1168.394, 5.506701
1168.876, 5.381303
1169.358, 5.648695
1169.840, 3.998731
1170.322, 0.6114720
1170.804, 0.1003270
1171.286, 2.739904
1171.768, 5.605938
1172.250, 6.664909
1172.733, 6.746349
1173.215, 6.732432
1173.697, 6.639254
1174.179, 6.578418
1174.661, 6.463235
1175.143, 5.907253
1175.625, 5.095202
1176.107, 5.085639
1176.590, 6.005569
1177.072, 6.940343
1177.554, 7.226995
1178.036, 7.322316
1178.518, 7.935829
1179.000, 8.589478
1179.482, 8.391339
1179.964, 7.602551
1180.447, 6.397354
1180.929, 5.092626
1181.411, 4.373805
1181.893, 4.445586
1182.375, 4.822928
1182.857, 5.351830
1183.339, 5.917268
1183.821, 7.418852
1184.303, 7.945628
1184.786, 4.098217
1185.268, 0.5202370
1185.750, 0.1257670
1186.232, 4.669158
1186.714, 7.827127
1187.196, 7.743210
1187.678, 7.420075
1188.160, 7.438894
1188.642, 7.169909
1189.125, 5.840489
1189.607, 4.781465
1190.089, 5.173754
1190.571, 6.231269
1191.053, 6.649586
1191.535, 6.433634
1192.017, 6.039491
1192.499, 5.335967
1192.982, 4.864144
1193.464, 4.726555
1193.946, 4.641881
1194.428, 4.504871
1194.910, 4.389223
1195.392, 4.490692
1195.874, 4.352586
1196.356, 2.325302
1196.839, 2.524720
1197.321, 2.679857
1197.803, 1.766239
1198.285, 3.863793
1198.767, 4.231227
1199.249, 4.722317
1199.731, 6.033550
1200.213, 6.846150
1200.695, 5.474046
1201.177, 3.782819
1201.660, 5.814225
1202.142, 9.267786
1202.624, 9.260429
1203.106, 6.893380
1203.588, 5.574789
1204.070, 5.525757
1204.552, 5.146110
1205.034, 3.580084
1205.517, 2.796062
1205.999, 5.062470
1206.481, 7.531992
1206.963, 8.232056
1207.445, 8.085939
1207.927, 8.004226
1208.409, 7.778432
1208.891, 6.600700
1209.374, 4.580488
1209.856, 3.465845
1210.338, 3.967445
1210.820, 4.693180
1211.302, 7.049415
1211.784, 7.434237
1212.266, 1.461935
1212.748, 3.519874
1213.230, 1.173287
1213.713, 4.836035
1214.195, 7.357218
1214.677, 6.356408
1215.159, 5.667161
1215.641, 5.299467
1216.123, 5.161535
1216.605, 5.206961
1217.087, 5.886853
1217.569, 7.523739
1218.052, 8.630490
1218.534, 7.810894
1219.016, 6.029309
1219.498, 5.208796
1219.980, 5.132422
1220.462, 4.759243
1220.944, 4.252718
1221.426, 4.658501
1221.909, 5.773596
1222.391, 5.753044
1222.873, 4.009329
1223.355, 2.335056
1223.837, 2.211287
1224.319, 2.493918
1224.801, 1.588458
1225.283, 0.8381920
1225.766, 2.361804
1226.248, 4.694424
1226.730, 5.552129
1227.212, 5.052259
1227.694, 4.410837
1228.176, 3.867077
1228.658, 4.067339
1229.140, 6.536111
1229.622, 7.729409
1230.104, 5.401709
1230.587, 2.880085
1231.069, 2.247802
1231.551, 0.5437730
1232.033, 0.9902900
1232.515, 0.8833760
1232.997, 1.582736
1233.479, 1.201044
1233.961, 1.292236
1234.444, 7.153048
1234.926, 9.873938
1235.408, 7.699004
1235.890, 5.003573
1236.372, 3.790419
1236.854, 3.700912
1237.336, 4.617424
1237.818, 5.865613
1238.301, 5.472098
1238.783, 3.964309
1239.265, 3.342312
1239.747, 3.509707
1240.229, 3.536342
1240.711, 3.449634
1241.193, 4.584366
1241.675, 7.492497
1242.157, 9.823780
1242.640, 9.288154
1243.122, 7.902474
1243.604, 7.000513
1244.086, 6.492291
1244.568, 6.653296
1245.050, 6.913804
1245.532, 6.270405
1246.014, 4.947745
1246.496, 4.240613
1246.979, 4.583754
1247.461, 4.686095
1247.943, 4.044356
1248.425, 3.578937
1248.907, 3.326929
1249.389, 2.896618
1249.871, 3.562356
1250.353, 4.595928
1250.836, 5.977452
1251.318, 7.471588
1251.800, 8.258939
1252.282, 8.332365
1252.764, 7.639656
1253.246, 6.162292
1253.728, 5.155623
1254.210, 4.821748
1254.693, 4.455575
1255.175, 3.732699
1255.657, 2.824908
1256.139, 1.739524
1256.621, 1.100389
1257.103, 2.427785
1257.585, 4.448800
1258.067, 5.063895
1258.549, 4.781593
1259.031, 4.885112
1259.514, 4.933312
1259.996, 3.806402
1260.478, 0.4574010
1260.960, 1.464495
1261.442, 0.6100230
1261.924, 2.921912
1262.406, 4.503234
1262.888, 5.623287
1263.371, 6.891917
1263.853, 7.340021
1264.335, 5.313500
1264.817, 2.034979
1265.299, 0.5241670
1265.781, 0.8866280
1266.263, 1.166728
1266.745, 1.330990
1267.228, 1.548463
1267.710, 1.825282
1268.192, 2.567144
1268.674, 3.975116
1269.156, 4.758635
1269.638, 3.764616
1270.120, 2.407485
1270.602, 3.444160
1271.084, 5.489686
1271.567, 5.249423
1272.049, 3.761334
1272.531, 3.276335
1273.013, 3.644154
1273.495, 3.173383
1273.977, 2.701705
1274.459, 3.022543
1274.941, 5.160339
1275.423, 6.490552
1275.906, 5.264333
1276.388, 3.662054
1276.870, 2.319069
1277.352, 1.430226
1277.834, 1.189814
1278.316, 1.446695
1278.798, 2.007176
1279.280, 2.837430
1279.763, 3.847997
1280.245, 5.241768
1280.727, 5.787445
1281.209, 5.443931
1281.691, 4.288911
1282.173, 2.247228
1282.655, 0.6057000
1283.137, 1.5130000E-03
1283.620, 3.0851001E-02
1284.102, 1.4310000E-03
1284.584, 0.1519890
1285.066, 0.0000000E+00
##END=



