##NAMES=Magnesio-hastingsite
##RRUFFID=R070145
##IDEAL CHEMISTRY=NaCa_2_(Mg_4_Fe^3+^)Si_6_Al_2_O_22_(OH)_2_
##LOCALITY=Niaslo, Basha Valley, Baltistan, Northern Areas, Pakistan
##OWNER=RRUFF
##SOURCE=William W. Pinch
##DESCRIPTION=Black cleavage fragments
##STATUS=The identification of this mineral is confirmed by single-crystal X-ray diffraction and chemical analysis.
##URL=rruff.info/R070145
##MEASURED CHEMISTRY=(Na_0.57_K_0.43_)_Σ=1_(Ca_1.78_Na_0.22_)_Σ=2_(Mg_1.88_Fe^2+^_1.79_Mn_0.17_Fe^3+^_0.16_)_Σ=4_(Fe^3+^_0.53_Al_0.40_Ti_0.07_)_Σ=1_Si_5.99_Al_2.01_O_22_((OH)_1.79_F_0.21_)_Σ=2_; OH estimated by difference and charge balance
147.2889, 0.0000000E+00
147.7710, 0.3944090
148.2531, 0.2206730
148.7352, 10.84320
149.2174, 23.52228
149.6995, 33.61435
150.1816, 39.52341
150.6637, 44.61563
151.1458, 47.91745
151.6279, 49.78918
152.1101, 53.88812
152.5922, 62.78705
153.0743, 71.35657
153.5564, 76.58002
154.0385, 77.70090
154.5206, 76.05823
155.0028, 71.28824
155.4849, 63.26617
155.9670, 54.83282
156.4491, 46.98547
156.9312, 44.31726
157.4133, 37.30774
157.8955, 39.43517
158.3776, 42.24013
158.8597, 42.35591
159.3418, 38.84192
159.8239, 35.14897
160.3060, 32.34352
160.7882, 30.01897
161.2703, 27.45552
161.7524, 23.74463
162.2345, 20.12282
162.7166, 17.53842
163.1987, 17.00204
163.6808, 15.96533
164.1630, 12.75223
164.6451, 7.920837
165.1272, 3.296234
165.6093, 3.530396
166.0914, 8.314102
166.5735, 6.718857
167.0557, 9.927521
167.5378, 26.11334
168.0199, 29.10574
168.5020, 20.75717
168.9841, 12.03882
169.4662, 11.42740
169.9484, 15.36823
170.4305, 18.67099
170.9126, 18.54956
171.3947, 20.43298
171.8768, 20.32562
172.3589, 20.38538
172.8411, 21.82422
173.3232, 27.77399
173.8053, 35.73004
174.2874, 40.15204
174.7695, 33.16977
175.2516, 22.77576
175.7338, 21.35925
176.2159, 31.88663
176.6980, 43.84824
177.1801, 46.16907
177.6622, 40.34705
178.1443, 32.46301
178.6264, 23.30347
179.1086, 14.77359
179.5907, 11.54016
180.0728, 15.64648
180.5549, 22.69635
181.0370, 26.65594
181.5191, 27.75876
182.0013, 28.66602
182.4834, 31.93851
182.9655, 36.69598
183.4476, 40.06235
183.9297, 40.75943
184.4118, 40.14737
184.8940, 41.86838
185.3761, 46.07196
185.8582, 48.84000
186.3403, 45.73798
186.8224, 37.54105
187.3046, 29.16479
187.7867, 21.66312
188.2688, 15.07193
188.7509, 8.803223
189.2330, 2.514801
189.7151, 1.598053
190.1973, 0.3109740
190.6794, 8.007233
191.1615, 15.22293
191.6436, 19.70059
192.1257, 21.61594
192.6078, 23.06964
193.0900, 24.61865
193.5721, 24.37787
194.0542, 17.20828
194.5363, 2.536011
195.0184, 9.030334
195.5005, 10.83136
195.9826, 2.971832
196.4648, 3.993500
196.9469, 9.742157
197.4290, 14.11319
197.9111, 16.66525
198.3932, 17.27332
198.8753, 16.62723
199.3575, 14.48843
199.8396, 10.63840
200.3217, 8.247253
200.8038, 7.891327
201.2859, 9.040466
201.7680, 10.02145
202.2502, 10.64514
202.7323, 11.76749
203.2144, 14.22235
203.6965, 18.27185
204.1786, 22.37848
204.6607, 27.16956
205.1429, 31.99429
205.6250, 31.15576
206.1071, 22.43616
206.5892, 13.26404
207.0713, 10.58911
207.5534, 15.81677
208.0356, 22.02707
208.5177, 28.56693
208.9998, 35.24802
209.4819, 38.75067
209.9640, 37.36389
210.4461, 35.44412
210.9282, 38.86691
211.4104, 49.38638
211.8925, 58.49411
212.3746, 64.40500
212.8567, 67.14343
213.3388, 68.26370
213.8209, 67.26160
214.3031, 65.21735
214.7852, 63.28525
215.2673, 61.00024
215.7494, 60.26508
216.2315, 62.18118
216.7136, 67.26968
217.1958, 72.41837
217.6779, 77.98010
218.1600, 83.37628
218.6421, 87.78308
219.1242, 91.41141
219.6063, 93.64615
220.0885, 94.08173
220.5706, 92.11096
221.0527, 89.98169
221.5348, 86.86987
222.0169, 83.93887
222.4990, 84.33978
222.9812, 90.35449
223.4633, 95.50314
223.9454, 96.63190
224.4275, 91.93494
224.9096, 89.62286
225.3917, 90.55426
225.8739, 93.15790
226.3560, 91.77148
226.8381, 83.73193
227.3202, 75.53052
227.8023, 70.70724
228.2844, 70.95853
228.7665, 71.03784
229.2487, 70.70734
229.7308, 69.98315
230.2129, 69.00610
230.6950, 68.54117
231.1771, 66.87079
231.6592, 61.88391
232.1414, 48.23459
232.6235, 42.57748
233.1056, 50.64236
233.5877, 70.06219
234.0698, 78.86923
234.5519, 72.41751
235.0341, 60.69943
235.5162, 50.02863
235.9983, 37.84943
236.4804, 31.97308
236.9625, 35.92908
237.4446, 49.15002
237.9268, 57.80762
238.4089, 62.54208
238.8910, 62.14261
239.3731, 54.02945
239.8552, 29.47491
240.3373, 13.45764
240.8195, 12.73209
241.3016, 27.64563
241.7837, 38.39853
242.2658, 45.44781
242.7479, 47.90033
243.2300, 43.65024
243.7122, 26.16156
244.1943, 13.99091
244.6764, 12.70874
245.1585, 23.49930
245.6406, 29.53040
246.1227, 27.96893
246.6048, 24.14999
247.0870, 24.58844
247.5691, 33.08597
248.0512, 38.71024
248.5333, 37.62729
249.0154, 28.46805
249.4975, 23.01566
249.9797, 23.67993
250.4618, 25.96036
250.9439, 23.47427
251.4260, 12.11935
251.9081, 3.549164
252.3902, 1.219330
252.8724, 5.517792
253.3545, 10.65939
253.8366, 19.11905
254.3187, 27.19199
254.8008, 29.10016
255.2829, 21.57425
255.7651, 14.17459
256.2472, 9.841644
256.7293, 9.251190
257.2114, 7.958130
257.6935, 4.714264
258.1756, 1.778503
258.6577, 3.772186
259.1399, 14.52576
259.6220, 22.35004
260.1041, 21.69540
260.5862, 9.531952
261.0683, 2.941864
261.5504, 3.639801
262.0326, 8.420990
262.5147, 12.57800
262.9968, 16.82687
263.4789, 18.63318
263.9610, 16.13644
264.4431, 7.708466
264.9253, 2.704254
265.4074, 2.179108
265.8895, 4.119720
266.3716, 5.278870
266.8537, 5.953308
267.3358, 4.977631
267.8180, 0.3883360
268.3001, 9.565460
268.7822, 12.26511
269.2643, 5.018860
269.7464, 6.950409
270.2285, 15.03281
270.7107, 19.10846
271.1928, 19.45108
271.6749, 13.91382
272.1570, 0.3661500
272.6391, 3.697632
273.1212, 4.599823
273.6034, 18.05573
274.0855, 22.86502
274.5676, 17.30756
275.0497, 11.45383
275.5318, 9.521790
276.0139, 11.70743
276.4961, 16.19318
276.9782, 24.25449
277.4603, 32.82733
277.9424, 35.04910
278.4245, 29.91815
278.9066, 25.22110
279.3888, 25.04047
279.8709, 29.47107
280.3530, 33.06641
280.8351, 35.06467
281.3172, 37.26212
281.7993, 44.72104
282.2815, 58.21057
282.7636, 67.86111
283.2457, 65.80878
283.7278, 53.04431
284.2099, 46.85638
284.6920, 49.14993
285.1741, 55.35019
285.6563, 58.38132
286.1384, 58.25192
286.6205, 56.63882
287.1026, 52.85651
287.5847, 47.67368
288.0668, 46.61346
288.5490, 50.70483
289.0311, 56.73431
289.5132, 60.09219
289.9953, 60.85187
290.4774, 60.79684
290.9595, 60.46689
291.4417, 59.97665
291.9238, 60.07782
292.4059, 61.10559
292.8880, 61.65906
293.3701, 59.01083
293.8522, 53.69003
294.3344, 49.13727
294.8165, 47.08310
295.2986, 47.04587
295.7807, 47.96194
296.2628, 49.84644
296.7449, 52.35254
297.2271, 57.11237
297.7092, 62.76053
298.1913, 64.24448
298.6734, 54.16406
299.1555, 39.40961
299.6376, 33.65228
300.1198, 38.54764
300.6019, 45.11136
301.0840, 42.91003
301.5661, 34.74933
302.0482, 28.22861
302.5303, 27.86993
303.0125, 30.72931
303.4946, 34.05890
303.9767, 37.96017
304.4588, 39.59787
304.9409, 33.51047
305.4230, 23.44522
305.9052, 16.53870
306.3873, 19.09409
306.8694, 24.62711
307.3515, 27.27133
307.8336, 26.71722
308.3157, 24.46271
308.7979, 19.02069
309.2800, 12.98538
309.7621, 10.32388
310.2442, 17.64606
310.7263, 25.33170
311.2084, 25.75864
311.6906, 18.48679
312.1727, 11.00107
312.6548, 5.756714
313.1369, 3.184418
313.6190, 3.938080
314.1011, 14.00586
314.5833, 22.57883
315.0654, 23.00238
315.5475, 15.30917
316.0296, 7.504608
316.5117, 0.3728030
316.9938, 5.304779
317.4760, 4.395172
317.9580, 12.46701
318.4402, 26.50031
318.9223, 29.98685
319.4044, 23.39578
319.8865, 16.12503
320.3686, 8.466156
320.8507, 2.476715
321.3329, 0.2658390
321.8150, 2.244324
322.2971, 6.306061
322.7792, 13.69809
323.2613, 23.52719
323.7434, 27.59979
324.2256, 18.44815
324.7077, 7.106873
325.1898, 0.2317810
325.6719, 1.251221
326.1540, 1.067474
326.6361, 11.83615
327.1183, 29.19351
327.6004, 38.15598
328.0825, 33.47308
328.5646, 24.12350
329.0467, 14.19907
329.5288, 0.5359500
330.0110, 9.750153
330.4931, 12.30286
330.9752, 9.041840
331.4573, 3.414124
331.9394, 8.266022
332.4215, 17.76239
332.9037, 20.83041
333.3858, 13.55740
333.8679, 8.606659
334.3500, 6.666473
334.8321, 6.778168
335.3142, 6.721619
335.7964, 6.400757
336.2785, 6.108917
336.7606, 5.766815
337.2427, 5.088806
337.7248, 6.000488
338.2069, 9.390900
338.6891, 13.31277
339.1712, 14.29446
339.6533, 12.26755
340.1354, 9.682098
340.6175, 6.778259
341.0996, 3.435852
341.5818, 2.234161
342.0639, 3.568756
342.5460, 6.234222
343.0281, 8.339294
343.5102, 9.857788
343.9923, 12.08093
344.4745, 16.33557
344.9566, 21.79626
345.4387, 24.11969
345.9208, 22.99173
346.4029, 20.87018
346.8850, 20.92365
347.3672, 22.53055
347.8493, 22.28738
348.3314, 17.33511
348.8135, 10.80237
349.2956, 9.739563
349.7777, 14.07178
350.2599, 19.51160
350.7419, 22.71124
351.2241, 24.40012
351.7062, 26.09033
352.1883, 27.57437
352.6704, 29.94934
353.1525, 36.80737
353.6346, 46.89868
354.1168, 53.20490
354.5989, 45.54889
355.0810, 33.36435
355.5631, 29.38968
356.0452, 41.20050
356.5273, 53.38815
357.0095, 52.79114
357.4916, 42.92966
357.9737, 34.33347
358.4558, 32.75293
358.9379, 34.08426
359.4200, 35.32437
359.9022, 35.73526
360.3843, 36.69540
360.8664, 40.07248
361.3485, 44.32361
361.8306, 46.57419
362.3127, 45.44226
362.7949, 42.50629
363.2770, 37.89212
363.7591, 30.89304
364.2412, 25.19611
364.7233, 20.57184
365.2054, 17.98587
365.6876, 18.68369
366.1697, 27.14435
366.6518, 34.67401
367.1339, 39.38202
367.6160, 41.23065
368.0981, 40.33218
368.5803, 32.09232
369.0624, 23.77551
369.5445, 21.84311
370.0266, 32.61902
370.5087, 40.49289
370.9908, 42.10373
371.4730, 38.08725
371.9551, 37.26343
372.4372, 43.21060
372.9193, 47.74274
373.4014, 43.42014
373.8835, 24.48389
374.3657, 14.92242
374.8478, 20.81885
375.3299, 36.21701
375.8120, 39.30579
376.2941, 25.93329
376.7762, 13.17252
377.2584, 12.65503
377.7405, 25.35580
378.2226, 33.90274
378.7047, 36.98633
379.1868, 36.49097
379.6689, 35.02576
380.1511, 32.57410
380.6332, 30.76068
381.1153, 31.66110
381.5974, 34.16345
382.0795, 32.76923
382.5616, 26.92151
383.0438, 20.02185
383.5259, 15.68860
384.0080, 13.58102
384.4901, 11.82642
384.9722, 9.009521
385.4543, 6.456482
385.9364, 6.395477
386.4185, 8.786163
386.9007, 11.86066
387.3828, 15.05396
387.8649, 17.42599
388.3470, 18.57315
388.8291, 18.96674
389.3112, 18.06854
389.7934, 13.65460
390.2755, 6.624298
390.7576, 1.527527
391.2397, 2.611603
391.7218, 5.523590
392.2039, 6.506317
392.6861, 3.305908
393.1682, 1.062042
393.6503, 2.428528
394.1324, 6.180481
394.6145, 9.782227
395.0966, 15.60626
395.5788, 18.56079
396.0609, 15.23694
396.5430, 2.579224
397.0251, 6.508545
397.5072, 10.06906
397.9893, 10.12134
398.4715, 8.553558
398.9536, 4.202515
399.4357, 0.4080200
399.9178, 5.589417
400.3999, 11.54846
400.8820, 14.13660
401.3642, 11.43063
401.8463, 7.323578
402.3284, 4.765228
402.8105, 4.260040
403.2926, 3.975647
403.7747, 3.318390
404.2569, 3.767548
404.7390, 7.245636
405.2211, 13.46790
405.7032, 19.71777
406.1853, 25.87271
406.6674, 32.75385
407.1496, 32.81226
407.6317, 23.31293
408.1138, 10.75092
408.5959, 6.808228
409.0780, 11.30914
409.5602, 17.12946
410.0423, 22.02704
410.5244, 25.52643
411.0065, 25.00342
411.4886, 19.95117
411.9707, 14.57065
412.4529, 12.86865
412.9350, 14.24258
413.4171, 17.16187
413.8992, 23.81906
414.3813, 29.71530
414.8634, 27.61270
415.3456, 18.54654
415.8277, 11.87271
416.3098, 14.97397
416.7919, 23.11447
417.2740, 32.09680
417.7561, 44.57950
418.2382, 51.29440
418.7203, 41.62988
419.2025, 21.75647
419.6846, 7.962158
420.1667, 9.261841
420.6488, 15.78607
421.1309, 23.05182
421.6130, 30.70529
422.0952, 37.37689
422.5773, 43.49570
423.0594, 48.43884
423.5415, 51.43137
424.0236, 50.82013
424.5057, 49.85526
424.9879, 49.56189
425.4700, 50.05841
425.9521, 48.19000
426.4342, 41.06631
426.9163, 34.53949
427.3984, 33.33878
427.8806, 39.46234
428.3627, 46.09747
428.8448, 53.63550
429.3269, 60.83267
429.8090, 62.66187
430.2911, 57.82794
430.7733, 52.52524
431.2554, 50.29034
431.7375, 51.07199
432.2196, 52.15106
432.7017, 53.68320
433.1838, 54.74918
433.6660, 52.85107
434.1481, 48.56424
434.6302, 46.40771
435.1123, 49.87375
435.5944, 56.26425
436.0765, 60.80130
436.5587, 63.47943
437.0408, 63.20120
437.5229, 55.57291
438.0050, 45.06653
438.4871, 39.49908
438.9692, 44.76276
439.4514, 50.54337
439.9335, 46.73645
440.4156, 36.13235
440.8977, 27.89966
441.3798, 27.60803
441.8619, 30.72305
442.3441, 34.89282
442.8262, 40.75000
443.3083, 44.54446
443.7904, 43.82413
444.2725, 40.62445
444.7546, 37.70056
445.2368, 35.87912
445.7189, 34.12149
446.2010, 32.05508
446.6831, 29.60056
447.1652, 27.76453
447.6473, 27.27664
448.1295, 26.79816
448.6116, 25.47617
449.0937, 23.43680
449.5758, 20.01831
450.0579, 14.06537
450.5400, 7.078339
451.0221, 4.105225
451.5042, 6.266327
451.9864, 8.902802
452.4685, 10.12555
452.9506, 9.925385
453.4327, 7.252777
453.9148, 1.183777
454.3969, 4.364563
454.8791, 3.533752
455.3612, 2.950012
455.8433, 8.816772
456.3254, 12.26791
456.8075, 13.71973
457.2896, 12.89243
457.7718, 9.709564
458.2539, 6.191284
458.7360, 2.770142
459.2181, 0.2679440
459.7002, 0.7916260
460.1823, 7.282074
460.6645, 11.13489
461.1466, 1.421875
461.6287, 15.63179
462.1108, 26.52061
462.5929, 22.91127
463.0750, 13.85336
463.5572, 2.124481
464.0393, 13.03430
464.5214, 23.14923
465.0035, 21.84604
465.4856, 16.48859
465.9677, 13.66232
466.4499, 19.00876
466.9320, 21.12515
467.4141, 17.01703
467.8962, 8.224426
468.3783, 2.505981
468.8604, 0.8285220
469.3426, 0.8808290
469.8247, 1.308350
470.3068, 1.340179
470.7889, 5.645081
471.2710, 16.83231
471.7531, 28.51630
472.2353, 29.11694
472.7174, 17.46829
473.1995, 9.007629
473.6816, 10.22607
474.1637, 17.91940
474.6458, 21.19492
475.1280, 19.97842
475.6101, 17.01767
476.0922, 14.27325
476.5743, 11.51025
477.0564, 7.902130
477.5385, 2.617401
478.0207, 1.964722
478.5028, 3.844116
478.9849, 3.207458
479.4670, 0.5144650
479.9491, 6.701538
480.4312, 13.99966
480.9134, 17.76794
481.3955, 17.63849
481.8776, 17.05502
482.3597, 15.87042
482.8418, 15.64468
483.3239, 17.76587
483.8060, 25.80661
484.2881, 32.54678
484.7703, 35.77374
485.2524, 36.45401
485.7345, 38.47620
486.2166, 44.62854
486.6987, 48.91565
487.1808, 48.32083
487.6630, 40.77771
488.1451, 36.96997
488.6272, 38.60294
489.1093, 41.80002
489.5914, 40.67065
490.0735, 34.09851
490.5557, 31.65457
491.0378, 37.57474
491.5199, 48.38000
492.0020, 52.00037
492.4841, 48.24295
492.9662, 44.27466
493.4484, 46.26306
493.9305, 51.86673
494.4126, 55.27377
494.8947, 55.78284
495.3768, 54.37024
495.8589, 47.69992
496.3411, 39.99811
496.8232, 39.91077
497.3053, 59.58725
497.7874, 81.47491
498.2695, 93.92874
498.7516, 97.25470
499.2338, 97.11334
499.7159, 91.49750
500.1980, 85.93076
500.6801, 84.38553
501.1622, 88.96857
501.6443, 94.99969
502.1265, 104.8350
502.6086, 115.2062
503.0907, 120.1176
503.5728, 116.5125
504.0549, 111.6921
504.5370, 107.1317
505.0192, 102.8303
505.5013, 98.62009
505.9834, 93.65985
506.4655, 90.57242
506.9476, 92.10513
507.4297, 98.51981
507.9119, 105.3284
508.3940, 112.7967
508.8761, 118.9360
509.3582, 118.0847
509.8403, 111.4187
510.3224, 108.0179
510.8046, 116.5457
511.2867, 129.7043
511.7688, 133.7522
512.2509, 128.2203
512.7330, 124.0662
513.2151, 135.7108
513.6973, 150.8138
514.1794, 153.7563
514.6615, 130.7040
515.1436, 110.2758
515.6257, 108.8161
516.1078, 120.2292
516.5900, 130.0226
517.0721, 133.1107
517.5542, 135.1505
518.0363, 138.2189
518.5184, 142.7145
519.0005, 146.2104
519.4827, 146.1528
519.9648, 145.7397
520.4469, 148.5348
520.9290, 156.9040
521.4111, 163.5975
521.8932, 167.2316
522.3754, 168.1521
522.8575, 166.8235
523.3396, 162.8279
523.8217, 159.9761
524.3038, 160.3341
524.7859, 163.3756
525.2681, 167.1741
525.7502, 171.8229
526.2323, 176.0889
526.7144, 177.9775
527.1965, 178.7939
527.6786, 181.3986
528.1608, 187.3311
528.6429, 193.6908
529.1250, 198.7834
529.6071, 202.3999
530.0892, 203.9050
530.5714, 203.3357
531.0535, 200.3556
531.5356, 192.4959
532.0176, 178.7750
532.4998, 171.4077
532.9819, 179.4938
533.4640, 190.7716
533.9461, 195.9771
534.4282, 189.4279
534.9103, 186.0797
535.3925, 187.7053
535.8746, 191.3687
536.3567, 191.2206
536.8388, 186.8678
537.3209, 181.5099
537.8030, 175.3349
538.2852, 168.6776
538.7673, 164.9721
539.2494, 164.4724
539.7315, 165.4373
540.2136, 168.8080
540.6957, 172.5891
541.1779, 168.3685
541.6600, 151.5081
542.1421, 135.0492
542.6242, 137.4815
543.1063, 151.5928
543.5884, 160.9041
544.0706, 153.3516
544.5527, 142.0479
545.0348, 135.1900
545.5169, 132.8129
545.9990, 130.5918
546.4811, 125.0046
546.9633, 120.2237
547.4454, 119.2564
547.9275, 124.8698
548.4096, 130.7119
548.8917, 138.1993
549.3738, 144.6718
549.8560, 145.7975
550.3381, 138.7097
550.8202, 133.0831
551.3023, 132.3646
551.7844, 135.5237
552.2665, 134.2124
552.7487, 127.5833
553.2308, 120.6723
553.7129, 116.9876
554.1950, 115.8994
554.6771, 114.8940
555.1592, 113.9047
555.6414, 112.0828
556.1235, 107.8059
556.6056, 102.0883
557.0877, 96.90863
557.5698, 92.31963
558.0519, 89.21310
558.5341, 87.44818
559.0162, 87.48973
559.4983, 91.11429
559.9804, 106.9904
560.4625, 120.1511
560.9446, 121.9535
561.4268, 108.3512
561.9089, 95.26117
562.3910, 80.41339
562.8731, 68.65024
563.3552, 65.55096
563.8373, 77.23459
564.3195, 82.09625
564.8016, 74.52362
565.2837, 60.67538
565.7658, 58.09552
566.2479, 67.98740
566.7300, 77.06744
567.2122, 77.90488
567.6943, 72.96909
568.1764, 71.09393
568.6585, 72.28973
569.1406, 73.78963
569.6227, 74.34622
570.1049, 73.40259
570.5870, 69.43321
571.0691, 60.71886
571.5512, 52.86664
572.0333, 49.80411
572.5154, 50.03874
572.9976, 51.17592
573.4797, 54.27409
573.9618, 56.32661
574.4439, 56.17798
574.9260, 53.84552
575.4081, 50.99432
575.8903, 47.16364
576.3724, 43.35751
576.8545, 39.81221
577.3366, 36.04323
577.8187, 34.99931
578.3008, 38.30267
578.7830, 41.32718
579.2651, 36.21489
579.7472, 23.28264
580.2293, 16.09332
580.7114, 20.17499
581.1935, 28.43808
581.6757, 26.56065
582.1578, 16.76479
582.6399, 9.523193
583.1220, 14.72163
583.6041, 23.04781
584.0862, 24.02417
584.5684, 17.11707
585.0505, 11.70949
585.5326, 14.95015
586.0147, 20.24632
586.4968, 22.11475
586.9789, 15.95172
587.4611, 11.97301
587.9432, 12.30707
588.4253, 15.17316
588.9074, 18.31137
589.3895, 23.20773
589.8716, 25.40521
590.3538, 23.57133
590.8359, 18.21217
591.3180, 10.73602
591.8001, 0.4400020
592.2822, 7.431808
592.7643, 8.611649
593.2465, 4.445328
593.7286, 0.1987000
594.2107, 5.228195
594.6928, 9.539948
595.1749, 12.88091
595.6570, 14.73296
596.1392, 13.89249
596.6213, 7.522217
597.1034, 2.219116
597.5854, 3.694901
598.0676, 8.996765
598.5497, 11.47783
599.0318, 5.508850
599.5139, 0.1198120
599.9960, 0.8179780
600.4781, 2.834473
600.9603, 3.950546
601.4424, 1.213547
601.9245, 2.277298
602.4066, 4.857758
602.8887, 6.553802
603.3708, 6.904495
603.8530, 5.500320
604.3351, 3.770432
604.8172, 4.366119
605.2993, 6.692001
605.7814, 6.815628
606.2635, 2.602219
606.7457, 2.813293
607.2278, 6.025772
607.7099, 7.063065
608.1920, 5.913483
608.6741, 0.1491240
609.1563, 5.927628
609.6384, 9.978882
610.1205, 11.84404
610.6026, 10.85812
611.0847, 3.545151
611.5668, 4.381989
612.0490, 9.187088
612.5311, 9.709198
613.0132, 9.235428
613.4953, 6.460190
613.9774, 3.859695
614.4595, 5.883499
614.9417, 13.79308
615.4238, 18.11020
615.9059, 15.18466
616.3880, 9.013901
616.8701, 10.08281
617.3522, 17.58598
617.8344, 23.33385
618.3165, 19.34799
618.7986, 12.65472
619.2807, 14.71797
619.7628, 25.44553
620.2449, 33.11613
620.7271, 25.70390
621.2092, 15.28900
621.6913, 12.51733
622.1734, 24.28409
622.6555, 32.54880
623.1376, 30.59723
623.6198, 24.84752
624.1019, 23.30020
624.5840, 28.87643
625.0661, 32.82472
625.5482, 33.00972
626.0303, 31.08438
626.5125, 32.30704
626.9946, 36.97050
627.4767, 41.90369
627.9588, 46.46434
628.4409, 50.04042
628.9230, 49.67522
629.4052, 45.52550
629.8873, 42.11115
630.3694, 42.33569
630.8515, 45.48997
631.3336, 51.88272
631.8157, 63.11133
632.2979, 71.29137
632.7800, 69.22281
633.2621, 63.50182
633.7442, 61.82498
634.2263, 70.28848
634.7084, 76.94968
635.1906, 81.14981
635.6727, 82.59033
636.1548, 79.70625
636.6369, 70.06158
637.1190, 63.11806
637.6011, 62.96210
638.0833, 68.49913
638.5654, 74.06665
639.0475, 79.38358
639.5296, 83.60323
640.0117, 85.44608
640.4938, 86.28967
640.9760, 88.32404
641.4581, 91.68405
641.9402, 96.81830
642.4223, 106.4937
642.9044, 116.5353
643.3865, 122.5863
643.8687, 121.7868
644.3508, 119.2867
644.8329, 115.3810
645.3150, 110.4978
645.7971, 105.8781
646.2792, 100.4098
646.7614, 97.44370
647.2435, 98.50888
647.7256, 102.5833
648.2077, 104.5977
648.6898, 104.2870
649.1719, 104.0280
649.6541, 105.0578
650.1362, 106.6977
650.6183, 108.9059
651.1004, 112.0328
651.5825, 114.8660
652.0646, 114.9937
652.5468, 114.5483
653.0289, 116.6136
653.5110, 123.0993
653.9931, 128.1311
654.4752, 128.8484
654.9573, 126.9910
655.4395, 124.8238
655.9216, 121.6210
656.4037, 119.4413
656.8858, 118.7401
657.3679, 118.9629
657.8500, 119.1256
658.3322, 119.4485
658.8143, 119.8491
659.2964, 120.7346
659.7785, 121.3697
660.2606, 118.9029
660.7427, 113.5573
661.2249, 109.1202
661.7070, 109.5791
662.1891, 111.8776
662.6712, 111.0007
663.1533, 106.0981
663.6354, 103.1243
664.1175, 109.9881
664.5996, 117.9888
665.0817, 119.0140
665.5638, 104.6010
666.0460, 94.97542
666.5281, 94.66071
667.0102, 97.15903
667.4923, 93.70599
667.9744, 81.92609
668.4565, 72.69077
668.9387, 68.36938
669.4208, 67.97415
669.9029, 70.44377
670.3850, 75.38586
670.8671, 78.28589
671.3492, 74.52530
671.8314, 68.59013
672.3135, 67.56390
672.7956, 70.70015
673.2777, 73.14922
673.7598, 70.62149
674.2419, 67.58163
674.7241, 67.53497
675.2062, 71.81113
675.6883, 74.17538
676.1704, 72.17159
676.6525, 69.19940
677.1346, 67.07733
677.6168, 64.95819
678.0989, 67.26585
678.5810, 76.39761
679.0631, 85.97548
679.5452, 85.49692
680.0273, 76.02554
680.5095, 68.48404
680.9916, 65.26625
681.4737, 65.77217
681.9558, 73.18587
682.4379, 83.90736
682.9200, 88.67261
683.4022, 76.67419
683.8843, 63.37071
684.3664, 57.55576
684.8485, 58.32248
685.3306, 57.00909
685.8127, 48.95695
686.2949, 41.80966
686.7770, 38.84219
687.2591, 40.55426
687.7412, 39.13210
688.2233, 33.91975
688.7054, 27.49478
689.1876, 21.21417
689.6697, 15.26053
690.1518, 11.49310
690.6339, 10.33852
691.1160, 9.442184
691.5981, 4.041199
692.0803, 1.953308
692.5624, 1.608673
693.0445, 12.50841
693.5266, 22.88283
694.0087, 18.84634
694.4908, 6.771011
694.9730, 2.928192
695.4551, 9.558914
695.9372, 12.36028
696.4193, 9.865845
696.9014, 3.761383
697.3835, 1.117325
697.8657, 5.066071
698.3478, 6.202942
698.8299, 1.443665
699.3120, 5.965942
699.7941, 3.597855
700.2762, 7.410187
700.7584, 15.51758
701.2405, 8.777130
701.7226, 2.358551
702.2047, 6.910950
702.6868, 3.767197
703.1689, 0.5951080
703.6511, 4.282227
704.1332, 7.888504
704.6153, 12.11415
705.0974, 18.64090
705.5795, 21.71307
706.0616, 20.30757
706.5438, 16.68839
707.0259, 12.94750
707.5080, 9.043808
707.9901, 5.517181
708.4722, 2.134842
708.9543, 2.2580000E-03
709.4365, 0.7352290
709.9186, 3.949066
710.4007, 8.695724
710.8828, 16.31651
711.3649, 23.29962
711.8470, 27.91711
712.3292, 30.06924
712.8113, 29.63554
713.2934, 23.77496
713.7755, 18.25952
714.2576, 13.06133
714.7397, 9.029037
715.2219, 12.96783
715.7040, 28.57523
716.1861, 41.22296
716.6682, 42.01399
717.1503, 33.26869
717.6324, 28.29172
718.1146, 27.12656
718.5967, 27.75093
719.0788, 29.92947
719.5609, 32.35086
720.0430, 32.94106
720.5251, 31.26410
721.0073, 30.06238
721.4894, 29.67941
721.9715, 30.91716
722.4536, 34.80080
722.9357, 45.39255
723.4178, 50.69350
723.9000, 47.14017
724.3821, 41.94739
724.8642, 45.11111
725.3463, 57.67194
725.8284, 65.20023
726.3105, 64.20299
726.7927, 60.02692
727.2748, 61.36436
727.7569, 66.17630
728.2390, 68.57346
728.7211, 64.55798
729.2032, 59.40182
729.6853, 55.54294
730.1674, 53.32916
730.6495, 53.62288
731.1317, 59.73508
731.6138, 64.98318
732.0959, 67.48369
732.5780, 67.66519
733.0601, 68.01524
733.5422, 68.83884
734.0244, 68.80627
734.5065, 67.08246
734.9886, 64.01010
735.4707, 59.58089
735.9528, 54.05505
736.4349, 52.35007
736.9171, 63.07921
737.3992, 76.60876
737.8813, 81.53069
738.3634, 76.60846
738.8455, 70.57468
739.3276, 65.70557
739.8098, 61.70367
740.2919, 58.42007
740.7740, 55.88278
741.2561, 53.71783
741.7382, 51.52361
742.2203, 50.38399
742.7025, 52.85472
743.1846, 58.59735
743.6667, 58.59137
744.1488, 50.48544
744.6309, 42.14098
745.1130, 45.80054
745.5952, 55.17833
746.0773, 58.76263
746.5594, 49.01266
747.0415, 40.35416
747.5236, 41.41228
748.0057, 47.50821
748.4879, 51.12543
748.9700, 52.74350
749.4521, 49.33725
749.9342, 37.30051
750.4163, 21.92900
750.8984, 16.74510
751.3806, 22.46962
751.8627, 29.45387
752.3448, 35.45988
752.8269, 39.63795
753.3090, 39.28697
753.7911, 34.89442
754.2733, 29.99399
754.7554, 22.52518
755.2375, 18.25818
755.7196, 23.97025
756.2017, 37.79158
756.6838, 45.64864
757.1660, 40.16296
757.6481, 33.44705
758.1302, 29.09604
758.6123, 26.92950
759.0944, 24.23587
759.5765, 20.68770
760.0587, 18.11427
760.5408, 18.05788
761.0229, 20.33994
761.5050, 25.16583
761.9871, 32.02940
762.4692, 37.91151
762.9514, 41.02333
763.4335, 42.06985
763.9156, 41.19276
764.3977, 37.95805
764.8798, 35.10187
765.3619, 31.20473
765.8441, 29.61749
766.3262, 33.48625
766.8083, 44.82733
767.2904, 52.07965
767.7725, 54.15556
768.2546, 53.50232
768.7368, 52.02812
769.2189, 50.42645
769.7010, 51.64699
770.1831, 57.52467
770.6652, 60.47005
771.1473, 49.13142
771.6295, 33.14238
772.1116, 24.65134
772.5937, 33.35475
773.0758, 39.73433
773.5579, 38.07872
774.0400, 34.37817
774.5222, 37.31824
775.0043, 50.07727
775.4864, 57.12981
775.9685, 53.50673
776.4506, 46.08292
776.9327, 49.35005
777.4149, 60.05254
777.8970, 64.70097
778.3791, 54.12051
778.8612, 41.84895
779.3433, 38.90619
779.8254, 42.27707
780.3076, 45.63739
780.7897, 48.35310
781.2718, 49.70052
781.7539, 49.58328
782.2360, 47.98244
782.7181, 43.80023
783.2003, 35.30991
783.6824, 32.08551
784.1645, 39.74738
784.6466, 52.75146
785.1287, 57.43643
785.6108, 54.81770
786.0930, 50.97891
786.5751, 48.28078
787.0572, 46.69562
787.5393, 47.36038
788.0214, 49.47253
788.5035, 49.07654
788.9857, 40.99548
789.4678, 34.99132
789.9499, 34.97563
790.4320, 40.17332
790.9141, 42.85382
791.3962, 42.21251
791.8784, 41.39458
792.3605, 42.93762
792.8426, 45.60776
793.3247, 45.56216
793.8068, 43.24962
794.2889, 42.24864
794.7711, 49.64029
795.2531, 54.94798
795.7352, 47.45102
796.2173, 26.01524
796.6995, 13.29813
797.1816, 14.44937
797.6637, 21.84654
798.1458, 35.47549
798.6279, 55.70016
799.1100, 59.64600
799.5922, 45.81812
800.0743, 29.85660
800.5564, 23.78419
801.0385, 24.21065
801.5206, 25.53114
802.0027, 27.61890
802.4849, 29.68442
802.9670, 31.28801
803.4491, 32.35596
803.9312, 32.73901
804.4133, 32.66399
804.8954, 30.40997
805.3776, 24.26294
805.8597, 18.48376
806.3418, 17.02948
806.8239, 19.81924
807.3060, 19.59436
807.7881, 15.97133
808.2703, 11.07584
808.7524, 5.668350
809.2345, 0.7109830
809.7166, 3.027328
810.1987, 5.802063
810.6808, 4.618271
811.1630, 7.029236
811.6451, 19.72652
812.1272, 25.53798
812.6093, 21.57523
813.0914, 19.83856
813.5735, 21.20908
814.0557, 22.94157
814.5378, 21.76205
815.0199, 18.37585
815.5020, 17.11832
815.9841, 18.67549
816.4662, 20.15033
816.9484, 19.44664
817.4305, 16.97926
817.9126, 12.54153
818.3947, 3.867645
818.8768, 0.6193700
819.3589, 4.564850
819.8411, 12.03395
820.3232, 16.29103
820.8053, 16.78073
821.2874, 16.67424
821.7695, 16.33887
822.2516, 14.63699
822.7338, 9.016815
823.2159, 1.105972
823.6980, 5.304169
824.1801, 9.895630
824.6622, 11.53471
825.1443, 7.607925
825.6265, 1.362961
826.1086, 4.041306
826.5907, 9.248520
827.0728, 11.26347
827.5549, 8.472626
828.0370, 4.430542
828.5192, 3.045502
829.0013, 4.290451
829.4834, 4.959412
829.9655, 4.628036
830.4476, 4.138382
830.9297, 5.358429
831.4119, 6.678848
831.8940, 5.010773
832.3761, 2.312576
832.8582, 7.000198
833.3403, 2.954849
833.8224, 3.404617
834.3046, 5.438202
834.7867, 0.1395110
835.2688, 0.5451660
835.7509, 5.146103
836.2330, 12.22903
836.7151, 15.24240
837.1973, 14.71805
837.6794, 12.08546
838.1615, 7.119492
838.6436, 2.558105
839.1257, 0.1253510
839.6078, 0.5249330
840.0900, 0.5646060
840.5721, 5.847321
841.0542, 7.643509
841.5363, 3.112747
842.0184, 2.475159
842.5005, 4.107208
842.9827, 1.621841
843.4648, 2.473480
843.9469, 8.436188
844.4290, 13.53452
844.9111, 14.43690
845.3932, 12.56723
845.8754, 9.995316
846.3575, 7.013397
846.8396, 3.803207
847.3217, 1.399826
847.8038, 5.591660
848.2859, 5.914490
848.7681, 0.8194120
849.2502, 4.102356
849.7323, 9.553040
850.2144, 13.06018
850.6965, 10.53152
851.1786, 3.801941
851.6608, 0.3619840
852.1429, 1.055328
852.6250, 9.6436001E-02
853.1071, 3.331131
853.5892, 6.988800
854.0714, 9.354248
854.5535, 9.580307
855.0356, 10.51326
855.5177, 13.53683
855.9998, 15.85277
856.4819, 14.61545
856.9641, 9.664520
857.4462, 9.129852
857.9283, 13.76315
858.4104, 16.93529
858.8925, 8.538254
859.3746, 2.818832
859.8568, 4.448303
860.3389, 5.902710
860.8210, 15.45883
861.3030, 21.67265
861.7852, 23.64725
862.2673, 19.49030
862.7494, 7.449417
863.2315, 5.033051
863.7136, 14.60570
864.1957, 24.07838
864.6779, 21.96631
865.1600, 13.27214
865.6421, 11.44838
866.1242, 16.66017
866.6063, 21.19928
867.0884, 20.68298
867.5706, 17.21996
868.0527, 10.06992
868.5348, 1.194031
869.0169, 2.705276
869.4990, 10.24617
869.9811, 22.72955
870.4633, 27.39793
870.9454, 25.24619
871.4275, 20.74316
871.9096, 14.27008
872.3917, 10.54794
872.8738, 14.63332
873.3560, 21.44386
873.8381, 28.38594
874.3202, 34.73174
874.8023, 36.15582
875.2844, 24.28328
875.7665, 15.86765
876.2487, 16.20517
876.7308, 23.68968
877.2129, 32.36078
877.6950, 42.27161
878.1771, 46.89340
878.6592, 40.30717
879.1414, 28.97592
879.6235, 19.62148
880.1056, 12.68141
880.5877, 9.445496
881.0698, 14.73276
881.5519, 18.51590
882.0341, 15.74512
882.5162, 9.682556
882.9983, 9.192505
883.4804, 15.83276
883.9625, 20.94548
884.4446, 22.01544
884.9268, 20.07559
885.4089, 14.46140
885.8910, 7.373413
886.3731, 4.701996
886.8552, 14.41646
887.3373, 21.94250
887.8195, 16.67441
888.3016, 6.134445
888.7837, 4.177429
889.2658, 16.53662
889.7479, 23.53108
890.2300, 21.25934
890.7122, 14.83102
891.1943, 11.74957
891.6764, 11.55844
892.1585, 12.25928
892.6406, 13.53720
893.1227, 14.45563
893.6049, 13.99603
894.0870, 13.06689
894.5691, 12.62228
895.0512, 10.78937
895.5333, 14.23218
896.0154, 27.12537
896.4976, 38.54831
896.9797, 34.47607
897.4618, 17.50397
897.9439, 9.026855
898.4260, 11.16116
898.9081, 16.56812
899.3903, 21.18726
899.8724, 24.51166
900.3545, 26.71216
900.8366, 28.22916
901.3187, 27.53784
901.8008, 23.44449
902.2830, 18.30637
902.7651, 12.08978
903.2472, 5.090942
903.7293, 6.388977
904.2114, 16.11826
904.6935, 24.64832
905.1757, 24.09067
905.6578, 19.39429
906.1399, 14.60895
906.6220, 10.63358
907.1041, 9.995575
907.5862, 18.00006
908.0684, 23.83621
908.5505, 22.52222
909.0326, 16.24393
909.5147, 16.62213
909.9968, 23.96930
910.4789, 30.46219
910.9611, 32.66245
911.4432, 31.98718
911.9253, 28.65378
912.4074, 24.08322
912.8895, 21.79358
913.3716, 22.08954
913.8538, 26.28848
914.3359, 38.39517
914.8180, 52.65646
915.3001, 57.60959
915.7822, 52.25351
916.2643, 47.25647
916.7465, 44.90659
917.2286, 43.40637
917.7107, 40.93622
918.1928, 38.62686
918.6749, 37.18204
919.1570, 36.81104
919.6392, 37.52298
920.1213, 40.45938
920.6034, 43.71744
921.0855, 45.30237
921.5676, 44.64963
922.0497, 46.38104
922.5319, 51.12869
923.0140, 55.27765
923.4961, 55.03693
923.9782, 52.00632
924.4603, 49.19467
924.9424, 47.05115
925.4246, 42.25189
925.9067, 27.23047
926.3888, 14.72906
926.8708, 12.82638
927.3530, 22.13104
927.8351, 28.45416
928.3172, 31.35529
928.7993, 34.40305
929.2814, 41.79382
929.7635, 49.86740
930.2457, 51.35428
930.7278, 47.23471
931.2099, 41.63037
931.6920, 31.02570
932.1741, 25.07956
932.6563, 30.77042
933.1384, 43.56311
933.6205, 51.29083
934.1026, 53.62537
934.5847, 52.69748
935.0668, 48.05725
935.5490, 42.42307
936.0311, 39.09549
936.5132, 38.11786
936.9953, 39.89304
937.4774, 47.35941
937.9595, 53.07053
938.4417, 53.74625
938.9238, 51.79218
939.4059, 49.21960
939.8880, 45.35123
940.3701, 45.40796
940.8522, 50.76965
941.3344, 55.39792
941.8165, 49.92627
942.2986, 40.52414
942.7807, 38.74606
943.2628, 46.87866
943.7449, 52.29825
944.2271, 47.04379
944.7092, 40.33112
945.1913, 37.86185
945.6734, 39.71875
946.1555, 37.41132
946.6376, 30.32700
947.1198, 25.13068
947.6019, 27.67682
948.0840, 33.52985
948.5661, 35.73511
949.0482, 35.14194
949.5303, 35.19223
950.0125, 35.35751
950.4946, 38.98514
950.9767, 51.61447
951.4588, 66.44107
951.9409, 63.16385
952.4230, 40.07663
952.9052, 28.17789
953.3873, 39.00067
953.8694, 55.46890
954.3515, 57.56595
954.8336, 50.51208
955.3157, 42.15457
955.7979, 31.95889
956.2800, 25.72055
956.7621, 26.22601
957.2442, 29.23483
957.7263, 31.51431
958.2084, 33.05988
958.6906, 33.52463
959.1727, 32.79178
959.6548, 32.51474
960.1369, 36.45877
960.6190, 40.10587
961.1011, 37.79779
961.5833, 29.10583
962.0654, 20.89963
962.5475, 13.43848
963.0296, 7.998840
963.5117, 5.314880
963.9938, 5.017395
964.4760, 6.612244
964.9581, 9.751740
965.4402, 10.54251
965.9223, 4.365875
966.4044, 1.894684
966.8865, 3.142059
967.3687, 7.7271000E-02
967.8508, 6.157318
968.3329, 21.53882
968.8150, 29.54605
969.2971, 27.05844
969.7792, 19.55148
970.2614, 13.58673
970.7435, 9.130676
971.2256, 5.837372
971.7077, 3.707031
972.1898, 2.563477
972.6719, 1.078033
973.1541, 1.447021
973.6362, 9.449158
974.1183, 36.64398
974.6004, 48.02686
975.0825, 39.29031
975.5646, 26.77090
976.0468, 19.83231
976.5289, 16.86899
977.0110, 13.86505
977.4931, 10.73029
977.9752, 7.011780
978.4573, 0.4077760
978.9395, 4.684814
979.4216, 6.366821
979.9037, 4.838531
980.3858, 0.5690610
980.8679, 11.63937
981.3500, 16.82120
981.8322, 12.46674
982.3143, 4.179688
982.7964, 2.919800
983.2785, 7.532501
983.7606, 6.259583
984.2427, 4.779419
984.7249, 12.76141
985.2070, 10.76303
985.6891, 6.774323
986.1712, 6.858124
986.6533, 11.20911
987.1354, 10.15094
987.6176, 3.341522
988.0997, 1.372223
988.5818, 3.554260
989.0639, 12.42587
989.5460, 21.69467
990.0281, 30.14621
990.5103, 31.86786
990.9924, 17.46661
991.4745, 7.421478
991.9566, 6.477234
992.4387, 12.40063
992.9208, 23.28204
993.4029, 37.40274
993.8850, 42.84198
994.3671, 32.65625
994.8492, 21.05768
995.3314, 18.46210
995.8135, 20.61069
996.2956, 22.86499
996.7777, 26.92911
997.2598, 24.06403
997.7419, 10.61340
998.2241, 0.1690670
998.7062, 8.400146
999.1883, 27.75723
999.6704, 39.81427
1000.153, 44.03372
1000.635, 45.77924
1001.117, 49.27612
1001.599, 49.39557
1002.081, 39.35858
1002.563, 23.94131
1003.045, 21.88974
1003.527, 34.83051
1004.009, 46.67148
1004.492, 53.77252
1004.974, 55.13037
1005.456, 44.02573
1005.938, 28.14661
1006.420, 19.64581
1006.902, 25.26822
1007.384, 32.20462
1007.866, 39.60608
1008.349, 46.53445
1008.831, 52.49286
1009.313, 57.41064
1009.795, 61.02081
1010.277, 63.28497
1010.759, 62.71500
1011.241, 54.33765
1011.723, 46.02292
1012.205, 44.18307
1012.688, 48.49829
1013.170, 53.02118
1013.652, 59.12283
1014.134, 60.33438
1014.616, 52.81766
1015.098, 42.69962
1015.580, 41.96817
1016.062, 47.63501
1016.544, 52.21729
1017.027, 53.49329
1017.509, 53.19608
1017.991, 51.29956
1018.473, 48.57431
1018.955, 45.16190
1019.437, 40.42816
1019.919, 39.96356
1020.401, 44.11700
1020.884, 48.50363
1021.366, 51.71802
1021.848, 51.92303
1022.330, 44.05753
1022.812, 30.05817
1023.294, 21.59412
1023.776, 24.42068
1024.258, 28.99402
1024.740, 34.50146
1025.223, 39.41193
1025.705, 38.96408
1026.187, 34.56345
1026.669, 32.73730
1027.151, 36.01935
1027.633, 39.17462
1028.115, 39.62399
1028.597, 37.74997
1029.079, 33.19357
1029.562, 24.94333
1030.044, 20.50159
1030.526, 20.41077
1031.008, 21.07520
1031.490, 19.29440
1031.972, 17.11279
1032.454, 17.50632
1032.936, 20.38971
1033.419, 25.26022
1033.901, 36.86691
1034.383, 44.06293
1034.865, 44.71597
1035.347, 39.91074
1035.829, 29.44006
1036.311, 14.19766
1036.793, 3.738159
1037.276, 1.3519000E-02
1037.758, 0.3113710
1038.240, 1.003754
1038.722, 3.832764
1039.204, 9.165619
1039.686, 17.60690
1040.168, 21.57758
1040.650, 19.63193
1041.132, 18.03259
1041.615, 22.49393
1042.097, 27.83881
1042.579, 19.70303
1043.061, 4.005737
1043.543, 5.865326
1044.025, 0.9582210
1044.507, 7.492432
1044.989, 10.24545
1045.471, 10.44662
1045.954, 8.521118
1046.436, 4.637482
1046.918, 3.167114
1047.400, 4.537170
1047.882, 7.582123
1048.364, 13.37991
1048.846, 18.98431
1049.328, 21.70236
1049.811, 21.35333
1050.293, 21.23004
1050.775, 22.17575
1051.257, 20.61917
1051.739, 13.85941
1052.221, 6.198669
1052.703, 6.345673
1053.185, 11.84030
1053.667, 17.42093
1054.150, 23.05890
1054.632, 26.56934
1055.114, 26.85779
1055.596, 25.21179
1056.078, 21.89062
1056.560, 16.91466
1057.042, 13.39113
1057.524, 11.37488
1058.006, 11.02159
1058.489, 15.24701
1058.971, 18.59450
1059.453, 15.68045
1059.935, 8.432159
1060.417, 4.285690
1060.899, 4.338257
1061.381, 4.219101
1061.863, 3.531082
1062.346, 2.270187
1062.828, 0.9023590
1063.310, 4.203995
1063.792, 4.077118
1064.274, 0.5214540
1064.756, 5.340240
1065.238, 10.17369
1065.720, 13.68762
1066.203, 15.03860
1066.685, 14.61420
1067.167, 14.37642
1067.649, 14.36760
1068.131, 14.86584
1068.613, 17.73151
1069.095, 18.50467
1069.577, 12.42403
1070.059, 3.474258
1070.542, 2.984863
1071.024, 7.690094
1071.506, 5.191681
1071.988, 6.068359
1072.470, 17.07851
1072.952, 17.40315
1073.434, 13.67863
1073.916, 15.63013
1074.398, 23.02855
1074.881, 28.44957
1075.363, 31.56203
1075.845, 29.41341
1076.327, 18.26651
1076.809, 5.303452
1077.291, 7.985046
1077.773, 21.53806
1078.255, 28.63432
1078.738, 24.16956
1079.220, 18.99457
1079.702, 16.25652
1080.184, 15.79828
1080.666, 19.34174
1081.148, 26.90572
1081.630, 30.92737
1082.112, 31.36978
1082.594, 30.35214
1083.077, 27.86044
1083.559, 25.60294
1084.041, 25.89107
1084.523, 27.56970
1085.005, 28.39278
1085.487, 27.08989
1085.969, 26.08559
1086.451, 25.51556
1086.933, 25.70731
1087.416, 27.97000
1087.898, 30.73877
1088.380, 29.89435
1088.862, 25.76047
1089.344, 24.31830
1089.826, 33.92914
1090.308, 38.76733
1090.790, 32.60545
1091.272, 20.26831
1091.755, 11.84540
1092.237, 7.232544
1092.719, 6.191635
1093.201, 8.607681
1093.683, 11.88470
1094.165, 15.56767
1094.647, 18.88681
1095.129, 20.98344
1095.612, 21.85138
1096.094, 23.19958
1096.576, 25.14259
1097.058, 25.96440
1097.540, 22.81348
1098.022, 20.38660
1098.504, 30.26651
1098.986, 43.26163
1099.469, 42.27989
1099.951, 7.801437
1100.433, 9.700699
1100.915, 5.517685
1101.397, 5.868103
1101.879, 14.66525
1102.361, 19.93773
1102.843, 18.97551
1103.325, 12.53764
1103.807, 6.569000
1104.290, 2.465637
1104.772, 0.6710660
1105.254, 1.720718
1105.736, 4.484665
1106.218, 7.101151
1106.700, 9.529648
1107.182, 11.60263
1107.664, 13.27763
1108.147, 14.59503
1108.629, 17.49133
1109.111, 18.17131
1109.593, 11.63280
1110.075, 0.6172030
1110.557, 2.511551
1111.039, 6.520325
1111.521, 13.05225
1112.004, 10.10663
1112.486, 5.142349
1112.968, 5.495422
1113.450, 8.902832
1113.932, 12.34077
1114.414, 16.22592
1114.896, 17.85596
1115.378, 17.02094
1115.860, 14.56009
1116.343, 9.718842
1116.825, 4.334946
1117.307, 0.9559940
1117.789, 0.2781680
1118.271, 0.9825590
1118.753, 8.162399
1119.235, 13.19936
1119.717, 14.58533
1120.199, 14.08167
1120.682, 13.36024
1121.164, 12.54651
1121.646, 12.66852
1122.128, 13.89688
1122.610, 14.30768
1123.092, 12.44714
1123.574, 10.11673
1124.056, 7.865692
1124.539, 5.912460
1125.021, 3.812210
1125.503, 1.828171
1125.985, 4.254639
1126.467, 13.60544
1126.949, 21.29462
1127.431, 18.13736
1127.913, 12.37053
1128.396, 12.08931
1128.878, 17.33286
1129.360, 15.90492
1129.842, 7.294235
1130.324, 0.7514800
1130.806, 1.816895
1131.288, 5.413528
1131.770, 6.090332
1132.252, 5.891708
1132.734, 6.515457
1133.217, 10.68309
1133.699, 11.67892
1134.181, 8.843079
1134.663, 5.194077
1135.145, 3.147690
1135.627, 1.752563
1136.109, 3.979202
1136.591, 10.96753
1137.074, 8.426575
1137.556, 23.53072
1138.038, 40.10596
1138.520, 31.84723
1139.002, 15.35612
1139.484, 11.67857
1139.966, 16.47572
1140.448, 19.47864
1140.931, 19.70557
1141.413, 17.15436
1141.895, 7.113876
1142.377, 0.1417390
1142.859, 0.6497340
1143.341, 5.416397
1143.823, 7.000046
1144.305, 6.155273
1144.787, 7.048279
1145.270, 11.04095
1145.752, 13.91342
1146.234, 10.96159
1146.716, 8.081787
1147.198, 9.392563
1147.680, 14.18518
1148.162, 18.35240
1148.644, 21.69304
1149.126, 19.98448
1149.609, 8.156845
1150.091, 1.965332
1150.573, 0.3672940
1151.055, 7.431473
1151.537, 16.08057
1152.019, 26.09334
1152.501, 30.69182
1152.983, 29.52092
1153.466, 27.93962
1153.948, 32.55281
1154.430, 35.43040
1154.912, 24.84241
1155.394, 7.762802
1155.876, 1.674316
1156.358, 1.805527
1156.840, 5.086243
1157.322, 20.94669
1157.805, 34.63672
1158.287, 33.99889
1158.769, 26.94066
1159.251, 20.71925
1159.733, 15.71379
1160.215, 14.62154
1160.697, 19.84845
1161.179, 25.04413
1161.661, 30.09534
1162.144, 32.91005
1162.626, 27.99762
1163.108, 20.35727
1163.590, 20.65506
1164.072, 29.64034
1164.554, 32.36972
1165.036, 19.47946
1165.518, 9.250122
1166.000, 6.952881
1166.483, 9.063324
1166.965, 8.068741
1167.447, 6.185257
1167.929, 10.04089
1168.411, 22.91042
1168.893, 31.27319
1169.375, 25.04353
1169.857, 19.62932
1170.340, 22.66138
1170.822, 30.19577
1171.304, 27.02541
1171.786, 16.60847
1172.268, 11.63950
1172.750, 18.78612
1173.232, 25.56876
1173.714, 27.75667
1174.197, 26.90244
1174.679, 23.00627
1175.161, 16.46883
1175.643, 10.94562
1176.125, 6.781662
1176.607, 5.329865
1177.089, 10.06839
1177.571, 13.46751
1178.053, 9.894791
1178.536, 5.014709
1179.018, 4.413452
1179.500, 8.075485
1179.982, 13.17383
1180.464, 19.30067
1180.946, 21.74443
1181.428, 12.18810
1181.910, 3.770081
1182.392, 4.345535
1182.875, 10.66035
1183.357, 19.79097
1183.839, 32.27232
1184.321, 33.27022
1184.803, 21.22020
1185.285, 8.805466
1185.767, 4.153961
1186.249, 3.997818
1186.732, 8.250656
1187.214, 14.91801
1187.696, 19.92014
1188.178, 23.34673
1188.660, 18.56636
1189.142, 2.941772
1189.624, 6.963150
1190.106, 12.19177
1190.589, 36.26425
1191.071, 45.17871
1191.553, 40.23068
1192.035, 34.16096
1192.517, 26.48680
1192.999, 23.03992
1193.481, 26.52867
1193.963, 29.18040
1194.445, 20.37883
1194.927, 9.758972
1195.410, 8.080765
1195.892, 15.16046
1196.374, 17.86784
1196.856, 15.12196
1197.338, 15.64394
1197.820, 24.31081
1198.302, 32.91393
1198.784, 31.40411
1199.267, 25.40500
1199.749, 21.58862
1200.231, 20.76768
1200.713, 18.78706
1201.195, 15.48328
1201.677, 13.36871
1202.159, 14.83704
1202.641, 16.23247
1203.124, 10.56560
1203.606, 3.278732
1204.088, 3.266998
1204.570, 14.00323
1205.052, 22.05252
1205.534, 27.65570
1206.016, 29.46384
1206.498, 24.46243
1206.980, 17.35359
1207.463, 12.95032
1207.945, 10.04597
1208.427, 7.070633
1208.909, 1.946121
1209.391, 3.323135
1209.873, 12.25961
1210.355, 21.33563
1210.837, 24.47055
1211.319, 24.97345
1211.802, 26.83797
1212.284, 28.99374
1212.766, 28.04195
1213.248, 21.87610
1213.730, 19.02635
1214.212, 21.02835
1214.694, 23.21359
1215.176, 21.12888
1215.659, 16.59715
1216.141, 9.102280
1216.623, 0.9115300
1217.105, 0.6291660
1217.587, 12.37813
1218.069, 17.94518
1218.551, 14.64531
1219.033, 8.775314
1219.516, 4.726730
1219.998, 2.927917
1220.480, 4.687241
1220.962, 9.460434
1221.444, 13.90129
1221.926, 18.28154
1222.408, 20.30688
1222.890, 19.19545
1223.372, 17.40201
1223.854, 19.59044
1224.337, 21.01582
1224.819, 13.95728
1225.301, 0.4823000
1225.783, 4.244400
1226.265, 5.732315
1226.747, 10.94278
1227.229, 6.433746
1227.711, 0.2590790
1228.193, 1.175735
1228.676, 4.826950
1229.158, 7.069977
1229.640, 7.591858
1230.122, 7.636917
1230.604, 7.007736
1231.086, 7.909958
1231.568, 11.37814
1232.050, 14.97136
1232.533, 15.57579
1233.015, 15.45251
1233.497, 18.08266
1233.979, 23.29817
1234.461, 21.09634
1234.943, 10.72707
1235.425, 5.231552
1235.907, 10.19051
1236.390, 17.90535
1236.872, 23.08455
1237.354, 26.16965
1237.836, 26.55928
1238.318, 24.53848
1238.800, 27.11868
1239.282, 34.36357
1239.764, 36.55821
1240.246, 27.69411
1240.729, 18.31441
1241.211, 18.48430
1241.693, 21.85327
1242.175, 22.29037
1242.657, 19.74995
1243.139, 17.05380
1243.621, 14.29715
1244.103, 14.52193
1244.585, 21.69347
1245.068, 27.19460
1245.550, 22.70213
1246.032, 15.82985
1246.514, 13.10260
1246.996, 14.40141
1247.478, 20.74869
1247.960, 32.00412
1248.442, 36.59293
1248.925, 24.07854
1249.407, 12.75822
1249.889, 13.54637
1250.371, 18.36525
1250.853, 21.83971
1251.335, 23.70534
1251.817, 19.03937
1252.299, 9.074677
1252.781, 0.6769260
1253.264, 5.177490
1253.746, 5.388245
1254.228, 5.586258
1254.710, 17.95001
1255.192, 25.12611
1255.674, 27.28114
1256.156, 22.66280
1256.638, 13.12500
1257.120, 6.492676
1257.603, 6.996262
1258.085, 10.04501
1258.567, 16.53284
1259.049, 22.63176
1259.531, 24.47131
1260.013, 23.34485
1260.495, 24.17548
1260.977, 25.88516
1261.460, 24.00409
1261.942, 12.00591
1262.424, 3.480347
1262.906, 0.2960360
1263.388, 5.2154999E-02
1263.870, 6.143677
1264.352, 14.80235
1264.834, 18.30722
1265.317, 17.75217
1265.799, 17.17754
1266.281, 18.67284
1266.763, 17.87315
1267.245, 13.65128
1267.727, 10.21565
1268.209, 13.61084
1268.691, 18.74529
1269.173, 16.96796
1269.656, 11.02039
1270.138, 10.32982
1270.620, 18.52592
1271.102, 22.88737
1271.584, 22.30502
1272.066, 20.33188
1272.548, 20.26292
1273.030, 21.12059
1273.512, 22.70247
1273.995, 24.69955
1274.477, 26.90924
1274.959, 30.30963
1275.441, 26.21738
1275.923, 13.58620
1276.405, 3.774521
1276.887, 8.725281
1277.369, 16.16075
1277.852, 16.73300
1278.334, 14.24689
1278.816, 16.58844
1279.298, 23.81007
1279.780, 25.07047
1280.262, 19.93744
1280.744, 16.09470
1281.226, 20.28773
1281.708, 24.81454
1282.191, 26.98946
1282.673, 26.78069
1283.155, 22.21016
1283.637, 14.67750
1284.119, 14.54039
1284.601, 21.27264
1285.083, 24.30760
1285.565, 9.871567
1286.047, 2.869186
1286.530, 15.54854
1287.012, 30.65350
1287.494, 23.81296
1287.976, 4.925735
1288.458, 0.4569240
1288.940, 9.456604
1289.422, 16.79529
1289.904, 17.14749
1290.386, 15.52188
1290.869, 11.66518
1291.351, 7.972031
1291.833, 6.905701
1292.315, 7.323059
1292.797, 7.770691
1293.279, 8.209534
1293.761, 8.922470
1294.243, 10.19580
1294.726, 10.90019
1295.208, 10.92009
1295.690, 10.41429
1296.172, 9.936310
1296.654, 8.633636
1297.136, 3.054062
1297.618, 3.420975
1298.100, 1.369293
1298.583, 10.32312
1299.065, 21.58255
1299.547, 31.59061
1300.029, 37.32980
1300.511, 32.43080
1300.993, 26.93185
1301.475, 30.07037
1301.957, 34.56158
1302.439, 27.62300
1302.922, 11.22359
1303.404, 4.401703
1303.886, 7.720932
1304.368, 11.70053
1304.850, 9.685822
1305.332, 9.808167
1305.814, 14.89940
1306.296, 21.80099
1306.778, 28.80467
1307.261, 34.15834
1307.743, 30.47215
1308.225, 18.50743
1308.707, 12.34825
1309.189, 20.62914
1309.671, 23.59666
1310.153, 17.73772
1310.635, 11.73383
1311.118, 14.89514
1311.600, 22.63652
1312.082, 31.53511
1312.564, 39.09045
1313.046, 37.00278
1313.528, 21.88191
1314.010, 9.962784
1314.492, 2.003922
1314.974, 0.7361910
1315.457, 6.486877
1315.939, 15.52950
1316.421, 16.97774
1316.903, 7.278137
1317.385, 2.818436
1317.867, 0.0000000E+00
##END=



