##NAMES=Magnetite
##RRUFFID=R060222
##IDEAL CHEMISTRY=Fe^2+^Fe^3+^_2_O_4_
##LOCALITY=Cerro Hua√±aquino, Potosi Department, Bolivia
##OWNER=RRUFF
##SOURCE=Rock Currier
##DESCRIPTION=Black octahedra, the surface is hematite and the interior is magnetite
##STATUS=The identification of this mineral has been confirmed by X-ray diffraction and chemical analysis
##URL=rruff.info/R060222
##MEASURED CHEMISTRY=(Fe^2+^_0.95_Mg_0.05_)(Fe^3+^_0.99_Al_0.01_)_2_O_4_
150.1633, 0.0000000E+00
150.6454, 0.5292130
151.1275, 1.231219
151.6096, 1.599176
152.0917, 1.406095
152.5739, 0.8510610
153.0560, 0.3676590
153.5381, 8.1185997E-02
154.0202, 9.7220000E-03
154.5023, 2.9325999E-02
154.9844, 0.1018650
155.4665, 0.2114950
155.9487, 0.2978920
156.4308, 0.3529070
156.9129, 0.3619430
157.3950, 0.3194880
157.8771, 0.4080220
158.3592, 0.5604120
158.8414, 0.4792110
159.3235, 0.4619730
159.8056, 0.6094430
160.2877, 0.7963870
160.7698, 0.9068590
161.2519, 0.8888870
161.7341, 0.7825030
162.2162, 0.7240020
162.6983, 0.7679020
163.1804, 0.7944520
163.6625, 0.8337940
164.1446, 0.8304140
164.6268, 0.6653780
165.1089, 0.2928860
165.5910, 0.1123610
166.0731, 8.5014001E-02
166.5552, 2.6536999E-02
167.0373, 0.4681000
167.5195, 0.7424920
168.0016, 0.8689780
168.4837, 0.9173290
168.9658, 0.9219620
169.4479, 0.8946780
169.9300, 0.8798580
170.4122, 0.8724810
170.8943, 0.8682980
171.3764, 0.8326930
171.8585, 0.7816190
172.3406, 0.8055640
172.8227, 0.9914730
173.3049, 1.308589
173.7870, 1.465125
174.2691, 1.314927
174.7512, 1.073741
175.2333, 0.8885300
175.7154, 0.7537970
176.1976, 0.6273000
176.6797, 0.4665270
177.1618, 0.3238210
177.6439, 0.3950100
178.1260, 0.6425210
178.6081, 0.9215350
179.0903, 0.9538770
179.5724, 0.6410630
180.0545, 0.4787120
180.5366, 0.7860670
181.0187, 1.338192
181.5008, 1.857592
181.9830, 1.633525
182.4651, 1.103732
182.9472, 0.8575170
183.4293, 0.7247550
183.9114, 0.7472770
184.3935, 0.8860910
184.8757, 1.078307
185.3578, 1.304317
185.8399, 1.590385
186.3220, 1.912973
186.8041, 2.010857
187.2862, 1.664921
187.7684, 1.308503
188.2505, 1.028906
188.7326, 0.8300350
189.2147, 0.7054600
189.6968, 0.6705830
190.1789, 0.7181560
190.6611, 0.7508120
191.1432, 0.7079070
191.6253, 0.7110720
192.1074, 0.8704340
192.5895, 1.122455
193.0716, 1.301049
193.5538, 1.245570
194.0359, 0.9128540
194.5180, 0.7031940
195.0001, 0.7179430
195.4822, 0.7333800
195.9643, 0.5887670
196.4465, 0.3213430
196.9286, 0.1277380
197.4107, 0.2193510
197.8928, 0.6540630
198.3749, 0.8649990
198.8570, 0.7087140
199.3392, 0.4626070
199.8213, 0.2727570
200.3034, 0.1599420
200.7855, 0.1240740
201.2676, 0.1860610
201.7497, 0.3526450
202.2319, 0.4765610
202.7140, 0.6115220
203.1961, 0.6664980
203.6782, 0.4957610
204.1603, 7.5791001E-02
204.6424, 0.1781500
205.1246, 0.1180900
205.6067, 0.1484870
206.0888, 9.6236996E-02
206.5709, 0.3687820
207.0530, 0.6394950
207.5351, 0.9366180
208.0173, 1.341835
208.4994, 1.554805
208.9815, 1.052174
209.4636, 0.1745220
209.9457, 0.1616390
210.4278, 0.2029170
210.9100, 1.242440
211.3921, 1.382749
211.8742, 0.1167490
212.3563, 0.4819450
212.8384, 0.2594740
213.3205, 0.1981440
213.8027, 0.8955450
214.2848, 0.5251040
214.7669, 7.4034996E-02
215.2490, 0.4791890
215.7311, 0.2084160
216.2132, 0.5027140
216.6954, 0.5801500
217.1775, 0.2654590
217.6596, 3.0960999E-02
218.1417, 7.9396002E-02
218.6238, 9.4440997E-02
219.1059, 0.3615290
219.5881, 0.8872110
220.0702, 1.295582
220.5523, 1.419483
221.0344, 1.362291
221.5165, 1.310305
221.9986, 1.398176
222.4808, 1.599249
222.9629, 1.655131
223.4450, 1.394480
223.9271, 1.134022
224.4092, 0.9575380
224.8913, 0.8366000
225.3735, 0.7372100
225.8556, 0.6314430
226.3377, 0.5281520
226.8198, 0.5284390
227.3019, 0.8430070
227.7840, 1.041596
228.2662, 0.8821420
228.7483, 0.5511760
229.2304, 0.4076530
229.7125, 0.7064570
230.1946, 1.385011
230.6767, 1.744420
231.1589, 1.486522
231.6410, 1.263517
232.1231, 1.255476
232.6052, 1.397913
233.0873, 1.551327
233.5694, 1.633120
234.0516, 1.652312
234.5337, 1.670030
235.0158, 1.669329
235.4979, 1.685384
235.9800, 1.716046
236.4621, 1.772938
236.9443, 1.908109
237.4264, 2.182502
237.9085, 2.520637
238.3906, 2.568770
238.8727, 2.098564
239.3548, 1.656332
239.8370, 1.449469
240.3191, 1.412535
240.8012, 1.373745
241.2833, 1.225011
241.7654, 1.056547
242.2475, 1.143042
242.7297, 1.670509
243.2118, 2.111080
243.6939, 2.156827
244.1760, 1.919652
244.6581, 1.745887
245.1402, 1.804077
245.6224, 1.971814
246.1045, 1.985135
246.5866, 1.781973
247.0687, 1.613237
247.5508, 1.697410
248.0329, 1.942540
248.5151, 1.984646
248.9972, 1.590853
249.4793, 1.073714
249.9614, 0.8854570
250.4435, 1.050500
250.9256, 1.323038
251.4078, 1.672067
251.8899, 2.044816
252.3720, 2.220232
252.8541, 2.116033
253.3362, 1.808297
253.8183, 1.319348
254.3005, 0.6472110
254.7826, 0.1237200
255.2647, 5.0769001E-02
255.7468, 0.3429430
256.2289, 0.5603120
256.7110, 0.6394110
257.1931, 0.5982430
257.6753, 0.3793630
258.1574, 2.6030000E-02
258.6395, 0.1853470
259.1216, 1.2674000E-02
259.6037, 0.5401640
260.0858, 0.9646140
260.5680, 1.300718
261.0501, 1.432541
261.5322, 1.177532
262.0143, 0.6625520
262.4964, 0.2584790
262.9785, 0.3566170
263.4607, 0.8581140
263.9428, 1.070271
264.4249, 0.7693160
264.9070, 0.4574420
265.3891, 0.3503900
265.8712, 0.4104650
266.3534, 0.5742820
266.8355, 0.8810920
267.3176, 1.250095
267.7997, 1.305800
268.2818, 0.8866130
268.7639, 0.4957630
269.2461, 0.3543060
269.7282, 0.3430650
270.2103, 0.2240030
270.6924, 5.2464999E-02
271.1745, 0.1902250
271.6566, 0.1631850
272.1388, 4.7880001E-02
272.6209, 0.4510050
273.1030, 0.7829250
273.5851, 1.057672
274.0672, 1.165485
274.5493, 1.041762
275.0315, 0.7809970
275.5136, 0.6318250
275.9957, 0.7060770
276.4778, 0.6935680
276.9599, 0.4305860
277.4420, 0.1213210
277.9242, 3.3817001E-02
278.4063, 4.7518998E-02
278.8884, 0.2506090
279.3705, 0.3498590
279.8526, 0.2477030
280.3347, 0.2536650
280.8169, 0.5418390
281.2990, 0.8443810
281.7811, 0.9239570
282.2632, 0.7451970
282.7453, 0.4828660
283.2274, 0.4029890
283.7096, 0.5978990
284.1917, 0.7493200
284.6738, 0.8481180
285.1559, 0.9122950
285.6380, 0.9310760
286.1201, 0.9129950
286.6023, 0.8979640
287.0844, 0.9503550
287.5665, 1.120111
288.0486, 1.159419
288.5307, 0.8851080
289.0128, 0.6512070
289.4950, 0.6664150
289.9771, 0.8878410
290.4592, 1.108950
290.9413, 1.121463
291.4234, 0.8955200
291.9055, 0.8595410
292.3877, 1.239522
292.8698, 1.580870
293.3519, 1.784618
293.8340, 1.833859
294.3161, 1.695119
294.7982, 1.310234
295.2804, 0.7183670
295.7625, 0.4500770
296.2446, 0.9378750
296.7267, 1.298014
297.2088, 1.283652
297.6909, 1.052765
298.1731, 0.8585800
298.6552, 0.8488630
299.1373, 0.9576760
299.6194, 0.9508610
300.1015, 0.6082540
300.5836, 0.3614380
301.0658, 0.2527540
301.5479, 0.2821750
302.0300, 0.5204070
302.5121, 0.9833050
302.9942, 1.475265
303.4763, 1.568024
303.9585, 0.7653070
304.4406, 0.3075290
304.9227, 0.3754780
305.4048, 0.6591660
305.8869, 0.9613510
306.3690, 1.215352
306.8512, 1.411646
307.3333, 1.541239
307.8154, 1.621117
308.2975, 1.570212
308.7796, 1.241879
309.2617, 0.9222210
309.7439, 0.8317350
310.2260, 0.9480310
310.7081, 1.062233
311.1902, 0.9597400
311.6723, 0.5690200
312.1544, 0.3460310
312.6366, 0.3972350
313.1187, 0.4819130
313.6008, 0.4741630
314.0829, 0.4187990
314.5650, 0.4730370
315.0471, 0.7814600
315.5293, 1.300636
316.0114, 1.457454
316.4935, 0.8067230
316.9756, 0.2916630
317.4577, 0.1678310
317.9398, 0.2714980
318.4220, 0.3349590
318.9041, 0.2189460
319.3862, 4.0970002E-03
319.8683, 5.2205000E-02
320.3504, 0.2474050
320.8326, 0.4647540
321.3147, 0.5724220
321.7968, 0.5922050
322.2789, 0.5121070
322.7610, 0.3380010
323.2431, 0.1498660
323.7253, 9.3174003E-02
324.2074, 0.2696180
324.6895, 0.3823610
325.1716, 0.3894040
325.6537, 0.3740830
326.1358, 0.4344740
326.6180, 0.5565570
327.1001, 0.6024620
327.5822, 0.3919070
328.0643, 0.1463720
328.5464, 0.1648310
329.0285, 4.1099001E-02
329.5107, 0.1257980
329.9928, 0.1319830
330.4749, 4.5085002E-02
330.9570, 8.5716002E-02
331.4391, 9.9992998E-02
331.9212, 0.7559260
332.4034, 1.060110
332.8855, 0.6471300
333.3676, 0.2619250
333.8497, 3.4260000E-03
334.3318, 0.1435010
334.8139, 0.1397810
335.2961, 2.0265000E-02
335.7782, 0.2681900
336.2603, 0.4122830
336.7424, 0.4095600
337.2245, 0.3497570
337.7066, 0.1328640
338.1888, 7.3849000E-02
338.6709, 8.2736999E-02
339.1530, 0.1408550
339.6351, 0.4324630
340.1172, 0.5294550
340.5993, 0.3135140
341.0815, 0.2038790
341.5636, 0.2835110
342.0457, 0.3962210
342.5278, 0.4554310
343.0099, 0.4564010
343.4920, 0.4072830
343.9742, 0.2893560
344.4563, 7.9993002E-02
344.9384, 7.2815001E-02
345.4205, 0.6354950
345.9026, 1.045304
346.3847, 1.001795
346.8669, 0.6782380
347.3490, 0.3977540
347.8311, 0.3604790
348.3132, 0.5050200
348.7953, 0.5843550
349.2774, 0.4921440
349.7596, 0.5066220
350.2417, 0.8093520
350.7238, 1.165066
351.2059, 1.309656
351.6880, 1.155460
352.1701, 0.8506350
352.6523, 0.6318500
353.1344, 0.5191700
353.6165, 0.4333340
354.0986, 0.4126220
354.5807, 0.3798240
355.0628, 0.2875460
355.5450, 0.1344370
356.0271, 4.8400000E-02
356.5092, 6.2790001E-03
356.9913, 0.3012630
357.4734, 0.3788830
357.9555, 1.9624000E-02
358.4377, 5.8472998E-02
358.9198, 0.1830590
359.4019, 0.1520810
359.8840, 0.1034450
360.3661, 0.1052660
360.8482, 0.1534320
361.3304, 0.2522470
361.8125, 0.4538220
362.2946, 0.5872550
362.7767, 0.5469630
363.2588, 0.4356200
363.7409, 0.3484060
364.2231, 0.3108430
364.7052, 0.3214740
365.1873, 0.3871690
365.6694, 0.5231540
366.1515, 0.6084970
366.6336, 0.6146580
367.1158, 0.5552510
367.5979, 0.3658290
368.0800, 6.7394003E-02
368.5621, 0.1001760
369.0442, 0.1631410
369.5263, 0.7416250
370.0085, 1.059813
370.4906, 0.9824500
370.9727, 0.8018600
371.4548, 0.6875120
371.9369, 0.6256930
372.4190, 0.5897700
372.9012, 0.5761060
373.3833, 0.5781640
373.8654, 0.6065120
374.3475, 0.6714120
374.8296, 0.6737720
375.3117, 0.4763030
375.7939, 0.2309850
376.2760, 0.1732430
376.7581, 0.3857610
377.2402, 0.6494340
377.7223, 0.8302960
378.2044, 0.9462120
378.6866, 0.9813230
379.1687, 0.9173090
379.6508, 0.7942650
380.1329, 0.6164100
380.6150, 0.3828690
381.0971, 0.2727470
381.5793, 0.4416870
382.0614, 0.7273160
382.5435, 0.9069050
383.0256, 0.9543640
383.5077, 0.9369280
383.9898, 0.9048090
384.4720, 0.8491790
384.9541, 0.7362690
385.4362, 0.4191470
385.9183, 0.1669500
386.4004, 0.2373630
386.8825, 0.5508970
387.3647, 0.7922380
387.8468, 0.8111140
388.3289, 0.6768540
388.8110, 0.5952410
389.2931, 0.6127390
389.7752, 0.6044120
390.2574, 0.4780910
390.7395, 0.3435840
391.2216, 0.3780600
391.7037, 0.6107540
392.1858, 0.8353440
392.6679, 0.8096530
393.1501, 0.4615440
393.6322, 0.2941420
394.1143, 0.3428380
394.5964, 0.5206680
395.0785, 0.8967660
395.5606, 1.376843
396.0428, 1.721389
396.5249, 1.786559
397.0070, 1.607660
397.4891, 1.323040
397.9712, 0.7688280
398.4533, 0.3121490
398.9355, 6.0899998E-04
399.4176, 0.1058630
399.8997, 2.3558000E-02
400.3818, 9.4853997E-02
400.8639, 7.1777001E-02
401.3460, 0.1282590
401.8282, 0.3305230
402.3103, 0.6496310
402.7924, 0.6637020
403.2745, 0.6261730
403.7566, 0.6989860
404.2387, 0.8393090
404.7209, 0.8782430
405.2030, 0.6651660
405.6851, 0.2437010
406.1672, 5.8603998E-02
406.6493, 5.0957002E-02
407.1314, 3.0359000E-02
407.6136, 0.4240040
408.0957, 1.346045
408.5778, 1.761480
409.0599, 1.414545
409.5420, 0.7392410
410.0241, 0.4440430
410.5063, 0.6174330
410.9884, 0.7586190
411.4705, 0.7674480
411.9526, 0.7493610
412.4347, 0.7633880
412.9168, 0.8060730
413.3990, 0.8425190
413.8811, 0.8944420
414.3632, 0.9268560
414.8453, 0.7466630
415.3274, 0.2275520
415.8095, 0.1302320
416.2917, 7.7366002E-02
416.7738, 0.5275540
417.2559, 0.8021630
417.7380, 0.7507010
418.2201, 0.6070030
418.7022, 0.5837720
419.1844, 0.6715920
419.6665, 0.8114590
420.1486, 1.071635
420.6307, 1.257850
421.1128, 1.031651
421.5949, 0.3922870
422.0771, 4.6785001E-02
422.5592, 8.1183001E-02
423.0413, 0.4631740
423.5234, 0.7264570
424.0055, 0.8317820
424.4876, 0.8080670
424.9698, 0.6124990
425.4519, 0.2951320
425.9340, 0.1657030
426.4161, 0.3738350
426.8982, 0.6046390
427.3803, 0.7376310
427.8625, 0.7757930
428.3446, 0.7013060
428.8267, 0.4977370
429.3088, 0.2510290
429.7909, 0.1082360
430.2730, 8.0346003E-02
430.7552, 0.1170950
431.2373, 0.3010330
431.7194, 0.4893990
432.2015, 0.6049710
432.6836, 0.6262660
433.1657, 0.5319370
433.6479, 0.2765110
434.1300, 0.1113620
434.6121, 3.7703998E-02
435.0942, 0.1474610
435.5763, 0.4812700
436.0584, 0.7008570
436.5406, 0.7960030
437.0227, 0.6909880
437.5048, 0.3778650
437.9869, 6.1818998E-02
438.4690, 0.1182290
438.9511, 0.7388700
439.4333, 1.106964
439.9154, 1.016230
440.3975, 0.8416680
440.8796, 0.7370650
441.3617, 0.6883670
441.8438, 0.6086200
442.3260, 0.4246590
442.8081, 0.1957820
443.2902, 8.9460999E-02
443.7723, 8.5276999E-02
444.2544, 7.3615998E-02
444.7365, 3.6194000E-02
445.2187, 0.1222670
445.7008, 2.7277000E-02
446.1829, 0.2896140
446.6650, 0.5962580
447.1471, 0.6553020
447.6292, 0.5153280
448.1114, 0.4557830
448.5935, 0.5126700
449.0756, 0.5847960
449.5577, 0.5578590
450.0398, 0.4632330
450.5219, 0.3916080
451.0041, 0.3727250
451.4862, 0.3829530
451.9683, 0.3983690
452.4504, 0.4211980
452.9325, 0.4859410
453.4146, 0.6476510
453.8968, 0.8111320
454.3789, 0.7182190
454.8610, 0.2562480
455.3431, 5.0855000E-02
455.8252, 1.8634999E-02
456.3073, 0.1913010
456.7895, 0.4525960
457.2716, 0.7204070
457.7537, 0.9365390
458.2358, 1.033321
458.7179, 1.014946
459.2000, 0.9704430
459.6822, 0.8508330
460.1643, 0.7791410
460.6464, 0.8124850
461.1285, 0.8989650
461.6106, 0.9606630
462.0927, 0.9680730
462.5748, 0.9509940
463.0569, 0.9715430
463.5391, 1.087926
464.0212, 1.075280
464.5033, 0.8991940
464.9854, 0.6386840
465.4675, 0.1565310
465.9496, 0.1058970
466.4318, 0.3112680
466.9139, 0.1058020
467.3960, 0.8061760
467.8781, 1.227732
468.3602, 0.9598490
468.8423, 0.7232560
469.3245, 0.8813180
469.8066, 1.055195
470.2887, 0.8607400
470.7708, 0.2545720
471.2529, 9.0260003E-03
471.7350, 0.1116830
472.2172, 0.1410320
472.6993, 0.1559420
473.1814, 0.5404250
473.6635, 0.7924260
474.1456, 0.6702900
474.6277, 0.3240620
475.1099, 0.1033970
475.5920, 9.5624000E-02
476.0741, 0.1849440
476.5562, 0.3667740
477.0383, 0.5885710
477.5204, 0.6801680
478.0026, 0.5735520
478.4847, 0.3677100
478.9668, 0.1774370
479.4489, 1.6961999E-02
479.9310, 8.4280998E-02
480.4131, 4.3494999E-02
480.8953, 0.2626480
481.3774, 0.6187110
481.8595, 1.019670
482.3416, 1.181970
482.8237, 0.9105010
483.3058, 0.3724200
483.7880, 0.1455230
484.2701, 0.5613940
484.7522, 0.8245540
485.2343, 0.8811220
485.7164, 0.8036880
486.1985, 0.5409110
486.6807, 0.1594850
487.1628, 7.4205004E-02
487.6449, 0.1541570
488.1270, 0.7890490
488.6091, 0.9969870
489.0912, 0.4125540
489.5734, 1.8319000E-02
490.0555, 0.1244350
490.5376, 0.4899710
491.0197, 0.6736990
491.5018, 0.5584940
491.9839, 0.3584220
492.4661, 0.2676150
492.9482, 0.3002780
493.4303, 0.5027860
493.9124, 1.002930
494.3945, 1.443063
494.8766, 1.482069
495.3588, 1.232563
495.8409, 0.9621450
496.3230, 0.6753670
496.8051, 0.4477350
497.2872, 0.3508440
497.7693, 0.3680250
498.2515, 0.4873360
498.7336, 0.7550870
499.2157, 0.9658760
499.6978, 0.7036840
500.1799, 3.4001999E-02
500.6620, 0.4397320
501.1442, 0.1573120
501.6263, 0.5748950
502.1084, 0.7634340
502.5905, 0.4928130
503.0726, 0.2349470
503.5547, 0.3037650
504.0369, 0.5761220
504.5190, 0.6121080
505.0011, 1.6601000E-02
505.4832, 0.1475760
505.9653, 0.5049400
506.4474, 1.274026
506.9296, 1.571266
507.4117, 1.394727
507.8938, 1.144979
508.3759, 1.166695
508.8580, 1.395051
509.3401, 1.426009
509.8223, 1.154634
510.3044, 0.9155960
510.7865, 0.8276600
511.2686, 0.8326450
511.7507, 0.8978250
512.2328, 1.020526
512.7150, 1.140490
513.1971, 1.281406
513.6792, 1.388710
514.1613, 1.218156
514.6434, 0.6745780
515.1255, 0.1671080
515.6077, 4.2888999E-02
516.0898, 0.2109560
516.5719, 0.2792740
517.0540, 8.7018996E-02
517.5361, 2.8642001E-02
518.0182, 0.1923650
518.5004, 0.5735020
518.9825, 0.7947890
519.4646, 0.7715970
519.9467, 0.6877550
520.4288, 0.7835650
520.9109, 1.119922
521.3931, 1.217239
521.8752, 0.8606130
522.3573, 0.5491420
522.8394, 0.4670120
523.3215, 0.5397420
523.8036, 0.6583240
524.2858, 0.7923740
524.7679, 0.9119940
525.2500, 0.8916390
525.7321, 0.6654350
526.2142, 0.5856130
526.6964, 0.7942950
527.1785, 1.045904
527.6606, 1.231263
528.1427, 1.327389
528.6248, 1.360020
529.1069, 1.321343
529.5891, 1.293573
530.0712, 1.414467
530.5533, 1.665469
531.0354, 1.802510
531.5175, 1.720793
531.9996, 1.545611
532.4818, 1.407234
532.9639, 1.310047
533.4460, 1.187201
533.9281, 0.8501810
534.4102, 0.5834460
534.8923, 0.7597870
535.3745, 1.248878
535.8566, 1.531899
536.3387, 1.353306
536.8208, 0.9026280
537.3029, 0.5589270
537.7850, 0.3049070
538.2672, 0.2127720
538.7493, 0.3384370
539.2314, 0.5579580
539.7135, 0.9105470
540.1956, 1.287914
540.6777, 1.476851
541.1599, 1.332798
541.6420, 0.9671080
542.1241, 0.7178280
542.6062, 0.5923560
543.0883, 0.5526620
543.5704, 0.6132050
544.0526, 0.7465490
544.5347, 1.037512
545.0168, 1.415903
545.4989, 1.603044
545.9810, 1.209482
546.4631, 0.6596180
546.9453, 0.7322910
547.4274, 1.403570
547.9095, 1.921454
548.3916, 1.954164
548.8737, 1.705049
549.3558, 1.449838
549.8380, 1.129490
550.3201, 1.052863
550.8022, 1.591036
551.2843, 2.153495
551.7664, 2.185324
552.2485, 1.775264
552.7307, 1.415509
553.2128, 1.398554
553.6949, 1.578578
554.1770, 1.536327
554.6591, 1.079702
555.1412, 0.7414700
555.6234, 0.5241660
556.1055, 0.4191430
556.5876, 0.4400410
557.0697, 0.5685220
557.5518, 0.7737140
558.0339, 1.051550
558.5161, 1.316994
558.9982, 1.462866
559.4803, 1.475217
559.9624, 1.346351
560.4445, 0.9806980
560.9266, 0.5646860
561.4088, 0.2598070
561.8909, 6.5381996E-02
562.3730, 5.4377999E-02
562.8551, 9.1139004E-02
563.3372, 9.0557002E-02
563.8193, 6.5047003E-02
564.3015, 2.2867000E-02
564.7836, 0.1009550
565.2657, 0.3544420
565.7478, 0.6460960
566.2299, 0.8113770
566.7120, 0.8201270
567.1942, 0.7518760
567.6763, 0.5170210
568.1584, 0.2892210
568.6405, 0.1331890
569.1226, 6.7605004E-02
569.6047, 0.1352140
570.0869, 0.3663860
570.5690, 0.6498990
571.0511, 0.7591350
571.5332, 0.6762520
572.0153, 0.4818880
572.4974, 1.6248001E-02
572.9796, 0.1022370
573.4617, 0.1711060
573.9438, 1.8361000E-02
574.4259, 7.0937000E-02
574.9080, 0.1709790
575.3901, 0.3766650
575.8723, 0.5170410
576.3544, 0.5913540
576.8365, 0.6054970
577.3186, 0.5466850
577.8007, 0.4756760
578.2828, 0.5016640
578.7650, 0.6327170
579.2471, 0.5421920
579.7292, 7.6059997E-02
580.2113, 0.2150710
580.6934, 0.3491350
581.1755, 0.2020490
581.6577, 9.1623001E-02
582.1398, 6.0205001E-02
582.6219, 0.3895100
583.1040, 0.5011400
583.5861, 0.3780340
584.0682, 0.1636230
584.5504, 3.8658999E-02
585.0325, 0.2943490
585.5146, 2.3500999E-02
585.9967, 1.8067000E-02
586.4788, 0.1776960
586.9609, 0.1501380
587.4431, 7.3210999E-02
587.9252, 6.9899999E-02
588.4073, 0.2222080
588.8894, 2.6459999E-03
589.3715, 0.1919600
589.8536, 0.2252840
590.3358, 0.1062280
590.8179, 0.1354150
591.3000, 0.2608580
591.7821, 0.2404280
592.2642, 0.1949050
592.7463, 0.4198250
593.2285, 0.5042760
593.7106, 0.5383010
594.1927, 0.5400420
594.6748, 0.5029790
595.1569, 0.4199620
595.6390, 0.2938780
596.1212, 0.1367710
596.6033, 0.1001410
597.0854, 0.2763620
597.5675, 0.1535530
598.0496, 0.1077290
598.5317, 0.2712080
599.0139, 1.1100000E-03
599.4960, 0.2425970
599.9781, 0.2086140
600.4602, 5.7041001E-02
600.9423, 0.1412070
601.4244, 0.4655730
601.9066, 0.6579320
602.3887, 0.5501780
602.8708, 0.3196070
603.3529, 0.1940170
603.8350, 0.1692500
604.3171, 0.1774950
604.7993, 0.2903900
605.2814, 0.3580770
605.7635, 0.1911200
606.2456, 8.0489002E-02
606.7277, 0.1329290
607.2098, 0.1504090
607.6920, 0.5086120
608.1741, 0.5153460
608.6562, 6.9656000E-02
609.1383, 0.1750380
609.6204, 0.1042320
610.1025, 4.7370002E-02
610.5847, 0.2520320
611.0668, 0.4758370
611.5489, 0.7063500
612.0310, 0.9467230
612.5131, 1.082083
612.9952, 0.8612410
613.4774, 0.4472830
613.9595, 0.4545930
614.4416, 1.004437
614.9237, 1.470326
615.4058, 1.407996
615.8879, 0.9958570
616.3701, 0.8285030
616.8522, 1.062073
617.3343, 1.191194
617.8164, 0.9549470
618.2985, 0.6881140
618.7806, 0.7259990
619.2628, 1.030543
619.7449, 1.345009
620.2270, 1.501852
620.7091, 1.541850
621.1912, 1.545458
621.6733, 1.463853
622.1555, 1.503086
622.6376, 1.869999
623.1197, 2.192845
623.6018, 2.228657
624.0839, 2.053921
624.5660, 1.891098
625.0482, 1.812281
625.5303, 1.798167
626.0124, 1.854508
626.4945, 1.962581
626.9766, 2.069189
627.4587, 2.169247
627.9409, 2.221234
628.4230, 2.172714
628.9051, 2.025542
629.3872, 1.912138
629.8693, 1.775908
630.3514, 1.732574
630.8336, 1.904560
631.3157, 2.117769
631.7978, 2.124918
632.2799, 1.943389
632.7620, 1.887581
633.2441, 2.283188
633.7263, 2.966894
634.2084, 3.225025
634.6905, 2.906457
635.1726, 2.771880
635.6547, 3.195367
636.1368, 3.760141
636.6190, 4.040020
637.1011, 4.049555
637.5832, 4.036340
638.0653, 4.027126
638.5474, 4.058928
639.0295, 4.209026
639.5117, 4.432335
639.9938, 4.616966
640.4759, 4.703034
640.9580, 4.735340
641.4401, 4.751406
641.9222, 4.730223
642.4044, 4.870174
642.8865, 5.463029
643.3686, 5.912537
643.8507, 5.974613
644.3328, 5.872960
644.8149, 5.865024
645.2971, 5.997305
645.7792, 6.118623
646.2613, 6.039516
646.7434, 5.881474
647.2255, 5.951549
647.7076, 6.265323
648.1898, 6.427702
648.6719, 6.176449
649.1540, 5.802506
649.6361, 5.852218
650.1182, 6.435664
650.6003, 6.844326
651.0825, 6.945282
651.5646, 6.939251
652.0467, 6.843972
652.5288, 6.747632
653.0109, 6.816532
653.4930, 7.101566
653.9752, 7.439401
654.4573, 7.596465
654.9394, 7.562282
655.4215, 7.562896
655.9036, 7.625603
656.3857, 7.667963
656.8679, 7.628383
657.3500, 7.569749
657.8321, 7.572351
658.3142, 7.642068
658.7963, 7.789745
659.2784, 8.174108
659.7606, 8.535827
660.2427, 8.494199
660.7248, 8.135919
661.2069, 7.909859
661.6890, 8.041127
662.1711, 8.304316
662.6533, 8.277570
663.1354, 7.840479
663.6175, 7.538301
664.0996, 7.492374
664.5817, 7.441733
665.0638, 7.203524
665.5460, 6.972849
666.0281, 7.061937
666.5102, 7.563779
666.9923, 8.036469
667.4744, 8.079121
667.9565, 7.839935
668.4387, 7.670180
668.9208, 7.590017
669.4029, 7.498365
669.8850, 7.349473
670.3671, 7.327874
670.8492, 7.145863
671.3314, 7.272604
671.8135, 7.337205
672.2956, 7.361597
672.7777, 7.296647
673.2598, 7.095167
673.7419, 6.793193
674.2241, 6.397478
674.7062, 5.920223
675.1883, 5.525293
675.6704, 5.485250
676.1525, 5.753480
676.6346, 5.867514
677.1168, 5.801478
677.5989, 5.610995
678.0810, 5.193659
678.5631, 4.747321
679.0452, 4.656952
679.5273, 5.008386
680.0095, 5.249819
680.4916, 5.153989
680.9737, 4.982648
681.4558, 5.008832
681.9379, 5.121271
682.4200, 4.951311
682.9022, 4.344227
683.3843, 3.649035
683.8664, 3.389795
684.3485, 3.607033
684.8306, 3.641094
685.3127, 3.369169
685.7949, 3.128435
686.2770, 3.085806
686.7591, 3.140128
687.2412, 3.167558
687.7233, 3.142057
688.2054, 3.098294
688.6876, 3.045951
689.1697, 2.980484
689.6518, 2.934360
690.1339, 2.883534
690.6160, 2.707538
691.0981, 2.338251
691.5803, 2.014449
692.0624, 2.111846
692.5445, 2.734916
693.0266, 2.968872
693.5087, 2.435913
693.9908, 2.021469
694.4730, 2.079038
694.9551, 2.293150
695.4372, 2.362912
695.9193, 2.246003
696.4014, 2.073958
696.8835, 1.948324
697.3657, 1.816895
697.8478, 1.566562
698.3299, 1.233123
698.8120, 0.9783090
699.2941, 0.8553780
699.7762, 0.8738020
700.2584, 1.090554
700.7405, 1.543271
701.2226, 1.719666
701.7047, 1.320603
702.1868, 1.021374
702.6689, 1.009066
703.1511, 1.083630
703.6332, 1.036612
704.1153, 0.8739010
704.5974, 0.7200110
705.0795, 0.6622030
705.5616, 0.6550480
706.0438, 0.6327570
706.5259, 0.5985780
707.0080, 0.5914010
707.4901, 0.6108580
707.9722, 0.7118820
708.4543, 0.9874500
708.9365, 1.428966
709.4186, 1.600763
709.9007, 1.214348
710.3828, 0.9327090
710.8649, 0.9422880
711.3470, 1.060648
711.8292, 1.167658
712.3113, 1.230228
712.7934, 1.222986
713.2755, 1.124786
713.7576, 0.9620860
714.2397, 0.7481700
714.7219, 0.4966380
715.2040, 0.2823190
715.6861, 0.1109380
716.1682, 3.4382001E-02
716.6503, 0.1184220
717.1324, 0.3326370
717.6146, 0.5088340
718.0967, 0.7492980
718.5788, 0.8093740
719.0609, 0.4485750
719.5430, 9.9919997E-02
720.0251, 0.1084480
720.5073, 0.3736060
720.9894, 0.6164970
721.4715, 0.7158580
721.9536, 0.6549720
722.4357, 0.3152520
722.9178, 0.2370570
723.4000, 8.9036003E-02
723.8821, 7.6049999E-03
724.3642, 1.3381000E-02
724.8463, 6.7360001E-03
725.3284, 9.3740001E-03
725.8105, 0.1271080
726.2927, 0.2106670
726.7748, 4.4519999E-03
727.2569, 5.1872000E-02
727.7390, 6.3056998E-02
728.2211, 0.3052260
728.7032, 0.8259580
729.1854, 1.086721
729.6675, 0.9598690
730.1496, 0.7078000
730.6317, 0.5518480
731.1138, 0.4961120
731.5959, 0.6320950
732.0781, 0.9872240
732.5602, 1.111220
733.0423, 0.7281610
733.5244, 0.1863560
734.0065, 7.3070000E-03
734.4886, 0.1881090
734.9708, 0.4555340
735.4529, 1.037041
735.9350, 1.393471
736.4171, 1.171531
736.8992, 0.7419600
737.3813, 0.5512060
737.8635, 0.6381280
738.3456, 0.6721260
738.8277, 0.3329240
739.3098, 0.1416730
739.7919, 0.1894330
740.2740, 0.1523080
740.7562, 0.2625500
741.2383, 8.5956000E-02
741.7204, 1.3925000E-02
742.2025, 0.1136820
742.6846, 0.6656750
743.1667, 0.9404780
743.6489, 0.1963920
744.1310, 9.4564997E-02
744.6131, 0.1634890
745.0952, 1.8541001E-02
745.5773, 0.2241300
746.0594, 0.3304610
746.5416, 0.2278970
747.0237, 0.1777960
747.5058, 0.2384070
747.9879, 0.2988730
748.4700, 6.4241000E-02
748.9521, 0.1137370
749.4343, 0.2045230
749.9164, 0.4110090
750.3985, 0.4131340
750.8806, 0.2668720
751.3627, 8.3915003E-02
751.8448, 0.1043630
752.3270, 3.3330001E-02
752.8091, 2.5767000E-02
753.2912, 0.1191470
753.7733, 0.2117050
754.2554, 0.5652800
754.7375, 0.7287750
755.2197, 0.6642590
755.7018, 0.5750350
756.1839, 0.6490100
756.6660, 0.7746960
757.1481, 0.7652090
757.6302, 0.6335640
758.1124, 0.4532620
758.5945, 0.2429330
759.0766, 2.8534999E-02
759.5587, 8.0425002E-02
760.0408, 0.1306400
760.5229, 0.1157460
761.0051, 9.2409998E-02
761.4872, 0.4491930
761.9693, 0.6717300
762.4514, 0.7188240
762.9335, 0.4106980
763.4156, 0.1106850
763.8978, 0.1467560
764.3799, 5.3562000E-02
764.8620, 0.1666980
765.3441, 0.5589430
765.8262, 0.8501060
766.3083, 0.5898790
766.7905, 5.8517002E-02
767.2726, 0.3523950
767.7547, 8.6603001E-02
768.2368, 0.8543940
768.7189, 1.195536
769.2010, 0.7447100
769.6832, 0.4059200
770.1653, 0.1617290
770.6474, 6.6101998E-02
771.1295, 0.2836900
771.6116, 0.5849590
772.0938, 0.6517680
772.5759, 0.4335200
773.0580, 0.2520250
773.5401, 0.2598800
774.0222, 0.3247000
774.5043, 0.3788840
774.9865, 0.3996660
775.4686, 0.3283360
775.9507, 0.1619180
776.4328, 1.8090000E-03
776.9149, 6.2383000E-02
777.3970, 3.1778000E-02
777.8792, 0.1300420
778.3613, 0.4770470
778.8434, 0.6495680
779.3255, 0.4692550
779.8076, 0.2525080
780.2897, 0.3462000
780.7719, 0.6298670
781.2540, 0.6406760
781.7361, 2.1810001E-02
782.2182, 0.1018590
782.7003, 0.1460190
783.1824, 0.6805040
783.6646, 0.4776040
784.1467, 8.2381003E-02
784.6288, 0.1877510
785.1109, 1.9789999E-02
785.5930, 0.7182270
786.0751, 1.078162
786.5573, 1.134418
787.0394, 0.9553940
787.5215, 0.5308740
788.0036, 0.2816030
788.4857, 0.4324650
788.9678, 0.7409170
789.4500, 0.8744980
789.9321, 0.8267020
790.4142, 0.6561250
790.8963, 0.1729780
791.3784, 9.8757997E-02
791.8605, 3.3950999E-02
792.3427, 7.4530002E-03
792.8248, 0.1093170
793.3069, 0.1872370
793.7890, 0.4780440
794.2711, 0.7679120
794.7532, 0.9199770
795.2354, 0.6464160
795.7175, 0.1777600
796.1996, 7.7767998E-02
796.6817, 0.3791050
797.1638, 0.6006770
797.6459, 0.4434680
798.1281, 0.1229090
798.6102, 0.1209890
799.0923, 0.5712630
799.5744, 0.7289570
800.0565, 0.4151590
800.5386, 0.1222980
801.0208, 2.7253000E-02
801.5029, 7.3312998E-02
801.9850, 0.2304310
802.4671, 0.5150100
802.9492, 0.7549690
803.4313, 0.9690220
803.9135, 1.019972
804.3956, 0.6472140
804.8777, 0.1280890
805.3598, 0.1130520
805.8419, 1.3836000E-02
806.3240, 0.2304020
806.8062, 0.4830430
807.2883, 0.7060740
807.7704, 0.7804410
808.2525, 0.7124590
808.7346, 0.6132560
809.2167, 0.4801240
809.6989, 0.3990760
810.1810, 0.4817790
810.6631, 0.6505930
811.1452, 0.6848700
811.6273, 0.4638520
812.1094, 0.4038520
812.5916, 0.6938410
813.0737, 0.9285780
813.5558, 0.9241870
814.0379, 0.7764420
814.5200, 0.5459690
815.0021, 0.2723120
815.4843, 0.1676720
815.9664, 0.5443960
816.4485, 1.013008
816.9306, 1.075654
817.4127, 0.8630460
817.8948, 0.7397250
818.3770, 0.7864240
818.8591, 0.9233350
819.3412, 1.079071
819.8233, 1.202032
820.3054, 1.095902
820.7875, 0.6921950
821.2697, 0.3376860
821.7518, 5.9900002E-04
822.2339, 0.1523480
822.7160, 0.1169260
823.1981, 0.5689380
823.6802, 0.7794550
824.1624, 0.6802250
824.6445, 0.6090260
825.1266, 0.5469210
825.6087, 0.6505350
826.0908, 1.249783
826.5729, 1.905149
827.0551, 1.902069
827.5372, 1.216591
828.0193, 0.5940720
828.5014, 0.6367940
828.9835, 0.9861080
829.4656, 1.025225
829.9478, 0.8245360
830.4299, 0.6965470
830.9120, 0.6945970
831.3941, 0.8713560
831.8762, 1.321126
832.3583, 1.864928
832.8404, 1.983270
833.3225, 1.420072
833.8046, 1.170610
834.2867, 1.500877
834.7689, 1.792549
835.2510, 1.915658
835.7331, 1.846831
836.2152, 1.413999
836.6973, 0.6215440
837.1794, 0.1535800
837.6616, 0.5593720
838.1437, 0.9930960
838.6258, 0.8359210
839.1079, 0.4472600
839.5900, 0.3091490
840.0721, 0.4600910
840.5543, 0.7356840
841.0364, 1.019327
841.5185, 1.274840
842.0006, 1.456030
842.4827, 1.569112
842.9648, 1.497875
843.4470, 1.149017
843.9291, 0.9498090
844.4112, 1.204403
844.8933, 1.603485
845.3754, 1.593930
845.8575, 1.067693
846.3397, 0.8173410
846.8218, 1.058202
847.3039, 1.286828
847.7860, 1.448892
848.2681, 1.528838
848.7502, 1.491851
849.2324, 1.348011
849.7145, 1.186911
850.1966, 1.003881
850.6787, 0.8611970
851.1608, 0.7914220
851.6429, 0.7917580
852.1251, 0.8877550
852.6072, 1.041389
853.0893, 1.190398
853.5714, 1.303611
854.0535, 1.338371
854.5356, 1.210196
855.0178, 0.9557610
855.4999, 0.7003740
855.9820, 0.4395080
856.4641, 0.3852660
856.9462, 0.6333850
857.4283, 1.005266
857.9105, 1.331404
858.3926, 1.580976
858.8747, 1.639344
859.3568, 1.345163
859.8389, 1.143805
860.3210, 1.149039
860.8032, 1.182324
861.2853, 1.143759
861.7674, 1.033504
862.2495, 0.8489660
862.7316, 0.5685800
863.2137, 0.3988310
863.6959, 0.4663410
864.1780, 0.6106970
864.6601, 0.7615220
865.1422, 0.9001480
865.6243, 1.000492
866.1064, 1.056786
866.5886, 1.065925
867.0707, 0.9690360
867.5528, 0.8602250
868.0349, 0.9738830
868.5170, 1.250640
868.9991, 1.262792
869.4813, 0.9459430
869.9634, 0.7266630
870.4455, 0.8646780
870.9276, 1.158799
871.4097, 1.234516
871.8918, 1.054316
872.3740, 0.9133230
872.8561, 0.7472410
873.3382, 0.7296540
873.8203, 1.156548
874.3024, 1.549903
874.7845, 1.444415
875.2667, 0.9635100
875.7488, 0.6199900
876.2309, 0.5956410
876.7130, 0.6110470
877.1951, 0.5325380
877.6772, 0.4845630
878.1594, 0.6724040
878.6415, 0.9508370
879.1236, 0.9413100
879.6057, 0.5422730
880.0878, 0.1967370
880.5699, 0.4966690
881.0521, 0.2756930
881.5342, 0.2780260
882.0163, 0.5090870
882.4984, 0.3772530
882.9805, 0.7558090
883.4626, 1.112340
883.9448, 1.011958
884.4269, 0.6215490
884.9090, 0.4193750
885.3911, 0.4275150
885.8732, 0.5009750
886.3553, 0.6607330
886.8375, 0.8329510
887.3196, 1.050997
887.8017, 1.232756
888.2838, 1.195596
888.7659, 0.9274710
889.2480, 0.6800600
889.7302, 0.3723770
890.2123, 0.2010190
890.6944, 0.3633280
891.1765, 0.5548510
891.6586, 0.5239910
892.1407, 0.3513670
892.6229, 0.1830810
893.1050, 5.5743001E-02
893.5871, 3.2341000E-02
894.0692, 0.2787820
894.5513, 0.5634700
895.0334, 0.5722490
895.5156, 0.4013320
895.9977, 0.3300310
896.4798, 0.4264020
896.9619, 0.5117110
897.4440, 0.4091110
897.9261, 0.2137040
898.4083, 0.2258830
898.8904, 0.4092640
899.3725, 0.2541320
899.8546, 9.8108999E-02
900.3367, 0.3166720
900.8188, 9.5991999E-02
901.3010, 1.8986000E-02
901.7831, 0.3864640
902.2652, 0.5278170
902.7473, 0.6209800
903.2294, 0.6629610
903.7115, 0.6602110
904.1937, 0.5328390
904.6758, 0.4329220
905.1579, 0.5710320
905.6400, 0.8602170
906.1221, 0.9243090
906.6042, 0.5575050
907.0864, 0.2647290
907.5685, 0.2458120
908.0506, 0.2657990
908.5327, 0.1119400
909.0148, 8.8253997E-02
909.4969, 8.8853002E-02
909.9791, 0.1500860
910.4612, 0.3871550
910.9433, 0.4268880
911.4254, 0.4281590
911.9075, 0.6170880
912.3896, 0.8728030
912.8718, 0.9711230
913.3539, 0.8813890
913.8360, 0.6177860
914.3181, 0.1750970
914.8002, 0.1318540
915.2823, 0.1551520
915.7645, 0.1829970
916.2466, 0.4385490
916.7287, 0.5531320
917.2108, 0.4065350
917.6929, 0.1270870
918.1750, 0.1957690
918.6572, 8.3384000E-02
919.1393, 0.5407090
919.6214, 0.7991470
920.1035, 0.2005480
920.5856, 0.1598880
921.0677, 0.1412510
921.5499, 7.7687003E-02
922.0320, 0.2116010
922.5141, 0.4922020
922.9962, 0.4487180
923.4783, 1.7926000E-02
923.9604, 7.6632999E-02
924.4426, 3.8968999E-02
924.9247, 0.1726810
925.4068, 0.2834230
925.8889, 0.3699320
926.3710, 0.5283270
926.8531, 0.7199210
927.3353, 0.8314830
927.8174, 0.8302630
928.2995, 0.7519980
928.7816, 0.6196010
929.2637, 0.4543540
929.7458, 0.2047520
930.2280, 3.7191000E-02
930.7101, 1.6737999E-02
931.1922, 0.2652410
931.6743, 0.4353530
932.1564, 0.1733780
932.6385, 5.3468000E-02
933.1207, 3.4954999E-02
933.6028, 0.6661440
934.0849, 0.8918350
934.5670, 0.6624340
935.0491, 0.5056860
935.5313, 0.6562640
936.0134, 0.8693340
936.4955, 0.8199930
936.9776, 0.8813220
937.4597, 0.8865860
937.9418, 0.7033770
938.4240, 0.7513260
938.9061, 0.4313000
939.3882, 0.1990830
939.8703, 0.4341120
940.3524, 0.8897230
940.8345, 1.011831
941.3167, 0.6934380
941.7988, 0.4467040
942.2809, 0.1922690
942.7630, 0.1113750
943.2451, 0.5186640
943.7272, 0.8880680
944.2094, 0.6330250
944.6915, 3.8120002E-02
945.1736, 0.1934150
945.6557, 4.0088002E-02
946.1378, 0.3045800
946.6199, 0.4668180
947.1021, 0.5734180
947.5842, 0.8523710
948.0663, 1.065328
948.5484, 0.6849620
949.0305, 8.7925002E-02
949.5126, 0.7141160
949.9948, 0.4552480
950.4769, 5.5654999E-02
950.9590, 0.3196510
951.4411, 0.5261180
951.9232, 0.4889850
952.4053, 0.2870000
952.8875, 0.1877130
953.3696, 0.2886060
953.8517, 0.4302460
954.3338, 0.4480640
954.8159, 0.3776480
955.2980, 0.2884130
955.7802, 0.1904180
956.2623, 0.1612610
956.7444, 0.2136230
957.2265, 0.2908410
957.7086, 0.3460460
958.1907, 0.3800420
958.6729, 0.4348050
959.1550, 0.5177470
959.6371, 0.6495300
960.1192, 0.8308220
960.6013, 1.084028
961.0834, 1.505383
961.5656, 1.795745
962.0477, 1.653497
962.5298, 1.209527
963.0119, 0.9228650
963.4940, 0.8859200
963.9761, 0.7682640
964.4583, 0.4461940
964.9404, 0.2083760
965.4225, 0.2102000
965.9046, 0.2803970
966.3867, 0.2263770
966.8688, 7.5952001E-02
967.3510, 6.3208997E-02
967.8331, 0.3470370
968.3152, 0.5565190
968.7973, 0.5317670
969.2794, 0.5003120
969.7615, 0.6484740
970.2437, 0.8461330
970.7258, 0.8727810
971.2079, 0.7128190
971.6900, 0.5754070
972.1721, 0.5534110
972.6542, 0.5685290
973.1364, 0.6746350
973.6185, 0.7673960
974.1006, 0.6431270
974.5827, 0.3862230
975.0648, 0.2076710
975.5469, 0.1673820
976.0291, 0.2187060
976.5112, 0.4556760
976.9933, 0.7075760
977.4754, 0.6642670
977.9575, 0.4505190
978.4396, 0.3679840
978.9218, 0.4312400
979.4039, 0.3476980
979.8860, 3.8577002E-02
980.3681, 0.1749630
980.8502, 9.4218999E-02
981.3323, 0.5933710
981.8145, 0.8201180
982.2966, 0.6642220
982.7787, 0.5944960
983.2608, 0.7097810
983.7429, 0.7271510
984.2250, 0.4314850
984.7072, 1.6743001E-02
985.1893, 9.7260997E-02
985.6714, 2.8251000E-02
986.1535, 0.2404140
986.6356, 0.5342840
987.1177, 0.8156130
987.5999, 1.098757
988.0820, 1.206405
988.5641, 0.9636320
989.0462, 0.4849770
989.5283, 0.1513710
990.0104, 2.7632000E-02
990.4926, 7.2843999E-02
990.9747, 7.6311998E-02
991.4568, 5.2995000E-02
991.9389, 0.1325860
992.4210, 0.3261840
992.9031, 0.4381590
993.3853, 0.4706340
993.8674, 0.4275810
994.3495, 0.1984100
994.8316, 8.2664996E-02
995.3137, 7.5185001E-02
995.7958, 0.1897960
996.2780, 0.5767960
996.7601, 0.9892680
997.2422, 1.120777
997.7243, 0.9955930
998.2064, 0.9398330
998.6885, 1.147713
999.1707, 1.216683
999.6528, 0.8523000
1000.135, 0.5171390
1000.617, 0.5757070
1001.099, 0.8219310
1001.581, 0.9349300
1002.063, 0.8755950
1002.545, 0.7941780
1003.028, 0.7641970
1003.510, 0.7359510
1003.992, 0.6370300
1004.474, 0.5258040
1004.956, 0.4682430
1005.438, 0.4478730
1005.920, 0.4062050
1006.402, 0.3365400
1006.885, 0.3002600
1007.367, 0.3293400
1007.849, 0.4478480
1008.331, 0.7321520
1008.813, 1.023632
1009.295, 1.071648
1009.777, 0.9296000
1010.259, 0.8105990
1010.741, 0.7909500
1011.224, 0.8038210
1011.706, 0.8289690
1012.188, 0.8077300
1012.670, 0.5851090
1013.152, 0.2663810
1013.634, 6.9521002E-02
1014.116, 2.7109001E-02
1014.598, 0.1663400
1015.081, 0.4926910
1015.563, 0.8221890
1016.045, 0.9719520
1016.527, 0.9563460
1017.009, 0.7198240
1017.491, 0.3368260
1017.973, 0.1749760
1018.455, 0.2743880
1018.937, 0.4452040
1019.420, 0.5953930
1019.902, 0.7069050
1020.384, 0.7519890
1020.866, 0.7401690
1021.348, 0.7027260
1021.830, 0.6419940
1022.312, 0.6451900
1022.794, 0.7349190
1023.276, 0.7720570
1023.759, 0.6378910
1024.241, 0.4392750
1024.723, 0.3623680
1025.205, 0.3924590
1025.687, 0.2688560
1026.169, 4.9276002E-02
1026.651, 5.4614000E-02
1027.133, 1.6380999E-02
1027.616, 0.2989340
1028.098, 0.6077150
1028.580, 0.8647620
1029.062, 0.9080090
1029.544, 0.7296730
1030.026, 0.6260380
1030.508, 0.6180600
1030.990, 0.6009050
1031.473, 0.5170420
1031.955, 0.5308190
1032.437, 0.8388610
1032.919, 1.196863
1033.401, 1.097256
1033.883, 0.4496050
1034.365, 9.7296998E-02
1034.847, 0.1153170
1035.329, 0.2756200
1035.812, 0.6948320
1036.294, 1.004835
1036.776, 0.9211020
1037.258, 0.6073290
1037.740, 0.3522110
1038.222, 0.1266290
1038.704, 0.1008110
1039.186, 0.4356180
1039.668, 0.6906950
1040.151, 0.6428260
1040.633, 0.6742310
1041.115, 1.270501
1041.597, 2.012027
1042.079, 2.003945
1042.561, 1.094083
1043.043, 0.4362560
1043.525, 0.1912150
1044.008, 4.4011999E-02
1044.490, 5.0838001E-02
1044.972, 6.7841999E-02
1045.454, 0.1205160
1045.936, 0.3568610
1046.418, 0.3108060
1046.900, 8.3788998E-02
1047.382, 8.4735997E-02
1047.865, 1.8800000E-03
1048.347, 2.5133001E-02
1048.829, 0.4735510
1049.311, 0.8659070
1049.793, 0.7480000
1050.275, 0.3594360
1050.757, 9.5671996E-02
1051.239, 8.6999999E-04
1051.721, 2.5530001E-03
1052.203, 2.0419000E-02
1052.686, 0.1504690
1053.168, 0.8439820
1053.650, 1.456579
1054.132, 1.539962
1054.614, 1.269911
1055.096, 0.9034070
1055.578, 0.4815910
1056.060, 0.2089280
1056.543, 0.2220710
1057.025, 0.2773250
1057.507, 0.2782640
1057.989, 0.3132230
1058.471, 0.5213110
1058.953, 0.7805700
1059.435, 0.8285790
1059.917, 0.6472650
1060.400, 0.5639550
1060.882, 0.8540560
1061.364, 1.045821
1061.846, 0.8522280
1062.328, 0.6239490
1062.810, 0.6047420
1063.292, 0.7337880
1063.774, 0.9003520
1064.256, 1.079967
1064.739, 1.185497
1065.221, 1.145947
1065.703, 1.096289
1066.185, 1.123350
1066.667, 1.126595
1067.149, 0.9919050
1067.631, 0.8110230
1068.113, 0.6270450
1068.595, 0.5076920
1069.078, 0.7754380
1069.560, 1.936929
1070.042, 2.638880
1070.524, 1.810226
1071.006, 0.8097560
1071.488, 0.5712490
1071.970, 0.7602400
1072.452, 0.9477420
1072.935, 1.041236
1073.417, 0.9867810
1073.899, 0.6713140
1074.381, 0.5000020
1074.863, 0.8888290
1075.345, 1.242207
1075.827, 1.039574
1076.309, 0.6437020
1076.792, 0.5043450
1077.274, 0.6168410
1077.756, 0.7566810
1078.238, 0.8821820
1078.720, 0.8953760
1079.202, 0.7043530
1079.684, 0.4385840
1080.166, 3.4040001E-03
1080.648, 0.1656200
1081.130, 5.0790999E-02
1081.613, 0.4517250
1082.095, 0.7703970
1082.577, 0.6443690
1083.059, 0.4247530
1083.541, 6.2684998E-02
1084.023, 6.8650998E-02
1084.505, 0.3290140
1084.987, 0.8796410
1085.469, 0.9787050
1085.952, 0.7509650
1086.434, 0.6973020
1086.916, 0.9532660
1087.398, 1.116782
1087.880, 0.8905540
1088.362, 0.7018350
1088.844, 0.9276210
1089.326, 1.118638
1089.809, 0.7034660
1090.291, 4.6050001E-02
1090.773, 8.6010002E-02
1091.255, 0.3657320
1091.737, 0.6781950
1092.219, 0.3248400
1092.701, 0.1032230
1093.183, 0.5644970
1093.666, 1.018732
1094.148, 0.9002980
1094.630, 0.4858660
1095.112, 0.1862030
1095.594, 6.0706001E-02
1096.076, 6.6078998E-02
1096.558, 0.2613870
1097.040, 0.4456120
1097.522, 0.6261490
1098.005, 0.6922250
1098.487, 0.4286280
1098.969, 0.1230840
1099.451, 0.1572250
1099.933, 0.4711400
1100.415, 0.6835860
1100.897, 0.6870860
1101.379, 0.6646630
1101.861, 0.7078450
1102.344, 0.6731980
1102.826, 0.4267330
1103.308, 0.1477740
1103.790, 4.9527999E-02
1104.272, 4.5260001E-02
1104.754, 8.2057998E-02
1105.236, 0.2220550
1105.718, 0.3755380
1106.201, 5.9290002E-03
1106.683, 8.0668002E-02
1107.165, 2.0768000E-02
1107.647, 0.2711950
1108.129, 0.2336150
1108.611, 1.1047000E-02
1109.093, 5.2492000E-02
1109.575, 1.0610000E-02
1110.057, 6.7326002E-02
1110.540, 0.2824110
1111.022, 0.5533600
1111.504, 0.5134030
1111.986, 0.4386780
1112.468, 0.4928530
1112.950, 0.5740490
1113.432, 0.5046760
1113.914, 0.3013250
1114.396, 0.2585300
1114.879, 0.6371220
1115.361, 0.7217720
1115.843, 0.2404190
1116.325, 4.3138001E-02
1116.807, 4.0084999E-02
1117.289, 4.6859998E-02
1117.771, 1.0146000E-02
1118.253, 0.1904540
1118.736, 0.4898160
1119.218, 1.040995
1119.700, 1.121571
1120.182, 0.3855150
1120.664, 7.4450999E-02
1121.146, 0.1351620
1121.628, 0.4521820
1122.110, 0.4791950
1122.593, 0.3408460
1123.075, 0.2976260
1123.557, 0.3579620
1124.039, 0.3724530
1124.521, 0.3354720
1125.003, 0.2887370
1125.485, 0.2089240
1125.967, 0.1725340
1126.449, 0.2081440
1126.932, 0.3319390
1127.414, 0.5650280
1127.896, 0.8842730
1128.378, 1.105862
1128.860, 1.234097
1129.342, 1.205360
1129.824, 1.001002
1130.306, 0.7402600
1130.788, 0.4555470
1131.271, 0.2081260
1131.753, 5.6116000E-02
1132.235, 1.2360000E-02
1132.717, 2.6138000E-02
1133.199, 1.5475000E-02
1133.681, 0.1163940
1134.163, 0.2788640
1134.645, 0.6183740
1135.128, 1.153898
1135.610, 1.451636
1136.092, 1.219982
1136.574, 0.7989190
1137.056, 0.7100410
1137.538, 0.8366200
1138.020, 0.7780770
1138.502, 0.5677670
1138.984, 0.3355350
1139.467, 0.1507270
1139.949, 0.4385370
1140.431, 1.333155
1140.913, 1.989676
1141.395, 1.508686
1141.877, 0.5071250
1142.359, 2.3380001E-03
1142.841, 0.3730760
1143.323, 7.9438001E-02
1143.806, 0.4219340
1144.288, 0.7538430
1144.770, 0.5916500
1145.252, 0.4567890
1145.734, 0.6866250
1146.216, 0.8995630
1146.698, 0.6206700
1147.180, 0.2198870
1147.663, 0.1384700
1148.145, 0.2257470
1148.627, 0.1865080
1149.109, 6.7000002E-02
1149.591, 0.1322740
1150.073, 0.4805650
1150.555, 0.6881350
1151.037, 0.2853160
1151.520, 6.7818999E-02
1152.002, 0.1925020
1152.484, 0.5730100
1152.966, 0.6017760
1153.448, 0.4070580
1153.930, 0.2163490
1154.412, 9.2147999E-02
1154.894, 0.1561180
1155.376, 0.5951650
1155.859, 0.9318400
1156.341, 0.9678720
1156.823, 0.9315420
1157.305, 0.9104840
1157.787, 0.9004200
1158.269, 0.9179820
1158.751, 0.9348050
1159.233, 0.8483260
1159.715, 0.6008210
1160.198, 0.4415050
1160.680, 0.4086790
1161.162, 0.4344940
1161.644, 0.7196850
1162.126, 0.7743300
1162.608, 5.8024000E-02
1163.090, 0.5508730
1163.572, 0.5984630
1164.055, 0.1238050
1164.537, 0.3509460
1165.019, 0.5398440
1165.501, 0.8061010
1165.983, 1.252615
1166.465, 1.490166
1166.947, 1.335683
1167.429, 1.030812
1167.911, 0.7547920
1168.394, 0.5369460
1168.876, 0.4103380
1169.358, 0.3752770
1169.840, 0.4146330
1170.322, 0.5297240
1170.804, 0.6172280
1171.286, 0.6577770
1171.768, 0.6772890
1172.250, 0.6918050
1172.733, 0.6532560
1173.215, 0.4623140
1173.697, 0.2319580
1174.179, 0.4126850
1174.661, 0.8185080
1175.143, 0.6355400
1175.625, 1.8368000E-02
1176.107, 5.7574999E-02
1176.590, 0.5821530
1177.072, 1.067932
1177.554, 0.7950180
1178.036, 0.3390440
1178.518, 0.3550290
1179.000, 0.5458250
1179.482, 0.4953500
1179.964, 0.3134970
1180.447, 0.1968730
1180.929, 0.1492410
1181.411, 6.3750997E-02
1181.893, 8.7649003E-02
1182.375, 0.1243530
1182.857, 0.1452560
1183.339, 0.3628520
1183.821, 0.1432050
1184.303, 9.0161003E-02
1184.786, 6.6783004E-02
1185.268, 0.3937360
1185.750, 0.5588880
1186.232, 0.5613930
1186.714, 0.6057690
1187.196, 0.7684490
1187.678, 0.8603310
1188.160, 0.7301470
1188.642, 0.6864450
1189.125, 0.9897030
1189.607, 1.229915
1190.089, 1.065249
1190.571, 0.7012010
1191.053, 0.5008000
1191.535, 0.4595500
1192.017, 0.2725940
1192.499, 0.2251430
1192.982, 0.3460810
1193.464, 0.1659540
1193.946, 0.5856910
1194.428, 0.6812530
1194.910, 0.5944580
1195.392, 0.4112150
1195.874, 0.2013650
1196.356, 0.1329130
1196.839, 0.1978250
1197.321, 0.3031910
1197.803, 0.4472420
1198.285, 0.6112900
1198.767, 0.7828110
1199.249, 0.8460260
1199.731, 0.7506960
1200.213, 0.6233010
1200.695, 0.6049670
1201.177, 0.6263670
1201.660, 0.4043390
1202.142, 0.5559000
1202.624, 0.2535100
1203.106, 0.6306880
1203.588, 0.7832990
1204.070, 0.6567820
1204.552, 0.4202660
1205.034, 0.1191070
1205.517, 7.7973001E-02
1205.999, 0.8959660
1206.481, 1.609360
1206.963, 1.358083
1207.445, 0.8215610
1207.927, 0.5680060
1208.409, 0.5685130
1208.891, 0.7759160
1209.374, 1.118561
1209.856, 1.194071
1210.338, 0.6769440
1210.820, 0.3599400
1211.302, 0.4722560
1211.784, 0.6622590
1212.266, 0.9882310
1212.748, 1.155922
1213.230, 0.8031460
1213.713, 0.2598480
1214.195, 0.2235050
1214.677, 0.1057110
1215.159, 2.2953000E-02
1215.641, 0.3224720
1216.123, 0.1649850
1216.605, 0.4614240
1217.087, 0.6421960
1217.569, 0.4829080
1218.052, 0.2636450
1218.534, 0.2199760
1219.016, 0.2994470
1219.498, 0.4508160
1219.980, 0.6285910
1220.462, 0.5683370
1220.944, 0.6372070
1221.426, 0.2785210
1221.909, 0.5040760
1222.391, 0.5424300
1222.873, 0.2476410
1223.355, 4.6120002E-03
1223.837, 9.8683000E-02
1224.319, 0.3086640
1224.801, 0.3847900
1225.283, 0.4258070
1225.766, 0.5259210
1226.248, 0.6449270
1226.730, 0.7105570
1227.212, 0.7272860
1227.694, 0.7489260
1228.176, 0.7983140
1228.658, 0.7968560
1229.140, 0.7454290
1229.622, 0.6017970
1230.104, 0.1494400
1230.587, 0.1019530
1231.069, 8.5510001E-02
1231.551, 0.4723450
1232.033, 0.5028400
1232.515, 0.2624520
1232.997, 6.4447999E-02
1233.479, 0.1032130
1233.961, 0.1075510
1234.444, 0.1450610
1234.926, 2.7171001E-02
1235.408, 0.4065260
1235.890, 0.6128810
1236.372, 0.4246660
1236.854, 0.2617100
1237.336, 0.6669730
1237.818, 1.279628
1238.301, 1.009500
1238.783, 1.188090
1239.265, 1.105281
1239.747, 0.7187420
1240.229, 0.6973550
1240.711, 4.0810000E-02
1241.193, 1.0782000E-02
1241.675, 0.1787070
1242.157, 0.7156890
1242.640, 0.7563540
1243.122, 0.6915340
1243.604, 0.8992540
1244.086, 1.129595
1244.568, 1.081894
1245.050, 0.9259010
1245.532, 0.9874240
1246.014, 1.204872
1246.496, 1.161428
1246.979, 0.6585380
1247.461, 0.4565140
1247.943, 1.028638
1248.425, 1.385210
1248.907, 1.262851
1249.389, 0.9966820
1249.871, 0.6765030
1250.353, 0.3621330
1250.836, 8.2076997E-02
1251.318, 0.1120920
1251.800, 2.1623001E-02
1252.282, 0.5203570
1252.764, 0.7370900
1253.246, 0.6661340
1253.728, 0.6059570
1254.210, 0.6125310
1254.693, 0.8206270
1255.175, 1.287323
1255.657, 1.599252
1256.139, 1.320515
1256.621, 0.7766450
1257.103, 0.2946400
1257.585, 7.0360000E-03
1258.067, 0.1804610
1258.549, 0.6414960
1259.031, 0.9975950
1259.514, 1.145663
1259.996, 0.9908330
1260.478, 0.5641680
1260.960, 0.2265040
1261.442, 9.7447000E-02
1261.924, 0.1625170
1262.406, 0.6976470
1262.888, 1.088935
1263.371, 0.7598320
1263.853, 0.3490750
1264.335, 0.6301280
1264.817, 0.3515100
1265.299, 0.2493080
1265.781, 0.4318560
1266.263, 0.1763540
1266.745, 0.5219660
1267.228, 0.9139010
1267.710, 1.325842
1268.192, 1.503498
1268.674, 1.323620
1269.156, 1.089371
1269.638, 0.9706460
1270.120, 0.9407220
1270.602, 1.018307
1271.084, 1.115773
1271.567, 0.9619250
1272.049, 0.7133800
1272.531, 0.6923240
1273.013, 0.8649810
1273.495, 1.088236
1273.977, 1.296650
1274.459, 1.368734
1274.941, 1.217384
1275.423, 1.047373
1275.906, 0.8602420
1276.388, 0.8019670
1276.870, 1.223645
1277.352, 1.515244
1277.834, 0.8294900
1278.316, 4.8241999E-02
1278.798, 0.2270280
1279.280, 1.446785
1279.763, 2.185412
1280.245, 2.395672
1280.727, 2.280621
1281.209, 1.803167
1281.691, 1.176314
1282.173, 0.3412350
1282.655, 7.2130002E-03
1283.137, 5.9260000E-02
1283.620, 0.5023570
1284.102, 0.4935110
1284.584, 0.2600910
1285.066, 0.0000000E+00
##END=



