##NAMES=Magnesio-fluoro-hastingsite
##RRUFFID=R141099
##IDEAL CHEMISTRY=NaCa_2_(Mg_4_Fe^3+^)(Si_6_Al_2_)O_22_F_2_
##LOCALITY=Mt. Vesuvius, Naples, Campania, Italy
##OWNER=RRUFF
##SOURCE=Ch. and H. Sch√§fer
##DESCRIPTION=Prismatic brown crystals
##STATUS=The identification of this mineral has been confirmed only by single crystal X-ray diffraction.
##URL=rruff.info/R141099
154.2351, 0.0000000E+00
154.7172, 3.6118001E-02
155.1993, 0.6625520
155.6814, 1.261459
156.1635, 1.516846
156.6456, 1.601883
157.1278, 1.699631
157.6099, 1.902573
158.0920, 2.226868
158.5741, 2.733643
159.0562, 3.990463
159.5383, 4.738632
160.0205, 4.199753
160.5026, 2.904602
160.9847, 2.116638
161.4668, 2.489258
161.9489, 3.775940
162.4310, 4.671799
162.9131, 5.072815
163.3953, 5.112244
163.8774, 4.859131
164.3595, 4.383179
164.8416, 3.914719
165.3237, 3.552017
165.8058, 3.265930
166.2880, 2.901947
166.7701, 2.258163
167.2522, 1.647659
167.7343, 1.518784
168.2164, 1.964249
168.6985, 2.412766
169.1807, 2.484085
169.6628, 2.370148
170.1449, 2.273788
170.6270, 2.214615
171.1091, 2.254715
171.5912, 2.601181
172.0734, 3.516357
172.5555, 4.305893
173.0376, 4.651428
173.5197, 4.691589
174.0018, 4.621140
174.4839, 4.531021
174.9661, 4.405075
175.4482, 4.635452
175.9303, 5.561447
176.4124, 6.688324
176.8945, 8.029877
177.3766, 9.410706
177.8588, 10.54819
178.3409, 11.30110
178.8230, 11.74310
179.3051, 12.17256
179.7872, 12.39067
180.2693, 12.75070
180.7515, 13.38684
181.2336, 14.18413
181.7157, 14.98067
182.1978, 15.75194
182.6799, 16.46965
183.1620, 16.97038
183.6441, 17.43376
184.1263, 17.67418
184.6084, 17.44832
185.0905, 16.79858
185.5726, 16.09348
186.0547, 15.73589
186.5368, 15.78738
187.0190, 15.48329
187.5011, 14.48869
187.9832, 13.41977
188.4653, 12.84134
188.9474, 12.79433
189.4296, 12.70120
189.9117, 11.89278
190.3938, 10.39676
190.8759, 9.210663
191.3580, 8.647629
191.8401, 8.356339
192.3223, 7.983688
192.8044, 7.499268
193.2865, 6.878342
193.7686, 5.879074
194.2507, 4.653748
194.7328, 3.764755
195.2150, 3.659454
195.6971, 3.958481
196.1792, 3.887787
196.6613, 3.277206
197.1434, 2.525711
197.6255, 1.868835
198.1077, 1.298065
198.5898, 0.8278810
199.0719, 0.4620670
199.5540, 0.1989290
200.0361, 4.7699001E-02
200.5182, 7.4202999E-02
201.0004, 0.1282810
201.4825, 0.1427460
201.9646, 0.1193080
202.4467, 6.1370999E-02
202.9288, 9.8145001E-02
203.4109, 0.3403470
203.8930, 0.3093410
204.3752, 0.3680570
204.8573, 0.9645080
205.3394, 1.178970
205.8215, 1.077011
206.3036, 0.8702550
206.7857, 0.7049100
207.2679, 0.5791320
207.7500, 0.6284030
208.2321, 1.051819
208.7142, 1.458817
209.1963, 1.675430
209.6784, 1.794571
210.1606, 2.105408
210.6427, 2.851044
211.1248, 3.985809
211.6069, 4.978714
212.0890, 5.889771
212.5711, 6.563980
213.0533, 6.862656
213.5354, 6.909851
214.0175, 6.993301
214.4996, 7.288147
214.9817, 7.752075
215.4638, 8.563080
215.9460, 10.01430
216.4281, 11.41753
216.9102, 12.36160
217.3923, 12.91797
217.8744, 13.50468
218.3565, 14.50734
218.8387, 15.97491
219.3208, 17.08203
219.8029, 17.69511
220.2850, 18.16150
220.7671, 18.58997
221.2492, 19.00458
221.7314, 19.52269
222.2135, 20.32668
222.6956, 21.44672
223.1777, 22.25298
223.6598, 22.50839
224.1419, 22.63687
224.6240, 22.91805
225.1062, 23.37300
225.5883, 23.93300
226.0704, 24.56950
226.5525, 25.27336
227.0346, 25.93875
227.5167, 26.65970
227.9989, 27.27536
228.4810, 27.55299
228.9631, 27.47231
229.4452, 27.38841
229.9273, 27.52361
230.4094, 27.86250
230.8916, 28.36148
231.3737, 29.27750
231.8558, 30.20261
232.3379, 30.61020
232.8200, 30.43663
233.3021, 30.18993
233.7843, 30.12369
234.2664, 30.20882
234.7485, 30.43445
235.2306, 30.90425
235.7127, 31.42400
236.1948, 31.66658
236.6770, 31.53781
237.1591, 31.53123
237.6412, 32.13081
238.1233, 32.92711
238.6054, 33.47025
239.0875, 33.59070
239.5697, 33.44565
240.0518, 33.30859
240.5339, 33.25018
241.0160, 32.96204
241.4981, 32.05331
241.9802, 30.98013
242.4624, 30.22791
242.9445, 30.02626
243.4266, 30.01138
243.9087, 29.50447
244.3908, 28.28127
244.8729, 27.17583
245.3550, 26.43288
245.8372, 25.88638
246.3193, 25.47169
246.8014, 25.17908
247.2835, 24.85214
247.7656, 24.17734
248.2477, 22.97607
248.7299, 21.82874
249.2120, 20.84151
249.6941, 19.94470
250.1762, 19.08844
250.6583, 18.25624
251.1404, 17.46889
251.6226, 16.81010
252.1047, 16.50369
252.5868, 15.78372
253.0689, 14.26027
253.5510, 12.59387
254.0331, 11.23627
254.5153, 10.29860
254.9974, 9.582779
255.4795, 8.763077
255.9616, 7.655167
256.4437, 6.870819
256.9258, 6.620026
257.4080, 6.484909
257.8901, 6.214355
258.3722, 5.762863
258.8543, 5.218811
259.3364, 4.691040
259.8185, 4.175766
260.3007, 3.681503
260.7828, 3.148529
261.2649, 2.654953
261.7470, 2.305756
262.2291, 2.123825
262.7112, 1.981125
263.1934, 1.735565
263.6755, 1.341141
264.1576, 0.9657590
264.6397, 0.6559450
265.1218, 0.3224640
265.6039, 0.1339260
266.0861, 0.6700440
266.5682, 1.135071
267.0503, 1.372604
267.5324, 1.341766
268.0145, 1.354614
268.4966, 1.501633
268.9788, 1.589417
269.4609, 1.372391
269.9430, 0.9712680
270.4251, 0.8171690
270.9072, 1.318390
271.3893, 2.511002
271.8715, 3.316071
272.3536, 3.705109
272.8357, 3.829498
273.3178, 3.609619
273.7999, 3.153275
274.2820, 2.735611
274.7642, 2.562027
275.2463, 2.598953
275.7284, 2.413101
276.2105, 1.754349
276.6926, 1.190643
277.1747, 1.005539
277.6568, 1.065430
278.1389, 1.050201
278.6211, 0.7713620
279.1032, 0.3074190
279.5853, 5.2189999E-03
280.0674, 0.1310730
280.5495, 0.1870880
281.0316, 0.1685180
281.5138, 0.1044310
281.9959, 8.7130005E-03
282.4780, 0.1358950
282.9601, 0.2332150
283.4422, 1.1993000E-02
283.9243, 0.6246340
284.4065, 1.334808
284.8886, 2.195175
285.3707, 3.051895
285.8528, 3.645447
286.3349, 3.875870
286.8170, 3.918732
287.2992, 4.026276
287.7813, 4.114731
288.2634, 4.518372
288.7455, 5.627457
289.2276, 6.943192
289.7097, 7.811600
290.1919, 8.075500
290.6740, 8.100067
291.1561, 8.298981
291.6382, 8.681946
292.1203, 9.177643
292.6024, 9.786819
293.0846, 10.50215
293.5667, 11.37868
294.0488, 12.42198
294.5309, 13.42494
295.0130, 14.18976
295.4951, 14.70445
295.9773, 15.20206
296.4594, 15.53772
296.9415, 15.96783
297.4236, 16.74232
297.9057, 17.84294
298.3878, 19.03700
298.8700, 20.22969
299.3521, 21.36797
299.8342, 22.25763
300.3163, 22.66631
300.7984, 23.03271
301.2805, 23.60818
301.7627, 24.36542
302.2448, 25.20195
302.7269, 26.12270
303.2090, 27.04759
303.6911, 27.74834
304.1732, 28.07925
304.6554, 28.45518
305.1375, 29.01782
305.6196, 29.76471
306.1017, 30.75140
306.5838, 32.08571
307.0659, 33.50816
307.5481, 34.43152
308.0302, 34.72836
308.5123, 35.15758
308.9944, 36.06685
309.4765, 37.24425
309.9586, 38.28380
310.4408, 39.04723
310.9229, 39.78969
311.4050, 40.91142
311.8871, 42.42911
312.3692, 43.78423
312.8513, 44.78696
313.3335, 45.60562
313.8156, 46.41357
314.2977, 47.22945
314.7798, 48.10463
315.2619, 49.15135
315.7440, 50.34647
316.2262, 51.34117
316.7083, 51.84003
317.1904, 52.31506
317.6725, 53.17906
318.1546, 54.43150
318.6367, 55.77557
319.1188, 57.01723
319.6010, 58.19719
320.0831, 59.52127
320.5652, 61.36830
321.0473, 62.98988
321.5294, 63.78441
322.0115, 63.95589
322.4937, 64.25914
322.9758, 65.05626
323.4579, 66.16272
323.9400, 67.10551
324.4221, 67.88885
324.9042, 68.57658
325.3864, 69.06572
325.8685, 69.50679
326.3506, 70.25177
326.8327, 71.47186
327.3148, 72.85658
327.7969, 73.91916
328.2791, 74.64154
328.7612, 75.14505
329.2433, 75.26144
329.7254, 75.22206
330.2075, 75.36014
330.6896, 75.74548
331.1718, 76.05629
331.6539, 75.86031
332.1360, 75.10361
332.6181, 74.84375
333.1002, 75.56882
333.5823, 76.44458
334.0645, 76.83723
334.5466, 76.76413
335.0287, 76.68811
335.5108, 76.92966
335.9929, 77.44922
336.4750, 77.88058
336.9572, 78.28780
337.4393, 78.57837
337.9214, 78.57272
338.4035, 78.39996
338.8856, 78.40536
339.3677, 78.78064
339.8499, 79.35043
340.3320, 79.61774
340.8141, 79.36472
341.2962, 79.26260
341.7783, 79.63629
342.2604, 80.14740
342.7426, 80.26849
343.2247, 79.84671
343.7068, 79.33435
344.1889, 79.39192
344.6710, 80.33017
345.1531, 80.96049
345.6353, 80.89510
346.1174, 80.78035
346.5995, 81.26733
347.0816, 82.31631
347.5637, 83.29079
348.0458, 83.63940
348.5280, 83.33740
349.0101, 82.61859
349.4922, 80.87314
349.9743, 79.39517
350.4564, 78.81912
350.9385, 78.95668
351.4207, 79.37106
351.9028, 79.84813
352.3849, 80.31856
352.8670, 80.47543
353.3491, 80.08575
353.8312, 79.67499
354.3134, 79.28830
354.7955, 78.92049
355.2776, 78.53770
355.7597, 78.13249
356.2418, 77.77936
356.7239, 77.64632
357.2061, 78.15973
357.6882, 77.96103
358.1703, 76.35794
358.6524, 74.62671
359.1345, 73.76923
359.6166, 73.76996
360.0987, 73.84778
360.5808, 73.20406
361.0630, 71.73102
361.5451, 70.56656
362.0272, 69.92499
362.5093, 69.34727
362.9914, 68.82690
363.4735, 68.24541
363.9557, 67.38684
364.4378, 66.09409
364.9199, 64.50052
365.4020, 63.18564
365.8841, 62.50883
366.3662, 61.62199
366.8484, 60.20541
367.3305, 58.65973
367.8126, 57.39764
368.2947, 56.54834
368.7768, 55.89816
369.2589, 55.17136
369.7411, 54.48045
370.2232, 53.38242
370.7053, 51.46991
371.1874, 49.50168
371.6695, 47.79344
372.1516, 46.39380
372.6338, 45.22424
373.1159, 44.30927
373.5980, 43.63460
374.0801, 42.65875
374.5622, 41.13470
375.0443, 39.59001
375.5265, 38.16321
376.0086, 36.83679
376.4907, 35.56992
376.9728, 34.31732
377.4549, 33.15506
377.9370, 32.31171
378.4192, 31.95927
378.9013, 31.43489
379.3834, 30.36319
379.8655, 29.16899
380.3476, 28.20415
380.8297, 27.53648
381.3119, 26.91078
381.7940, 26.10114
382.2761, 25.10835
382.7582, 23.94656
383.2403, 22.28024
383.7224, 20.87173
384.2046, 20.40366
384.6867, 20.63959
385.1688, 20.70538
385.6509, 20.02379
386.1330, 18.86707
386.6151, 17.83907
387.0973, 16.97034
387.5794, 16.12659
388.0615, 15.11568
388.5436, 14.11063
389.0257, 13.39874
389.5078, 13.14276
389.9900, 12.98744
390.4721, 12.63602
390.9542, 12.10390
391.4363, 11.51973
391.9184, 10.89420
392.4005, 10.27103
392.8827, 9.631989
393.3648, 8.941345
393.8469, 8.565338
394.3290, 8.907684
394.8111, 9.572998
395.2932, 10.05388
395.7754, 10.31244
396.2575, 10.05106
396.7396, 8.745636
397.2217, 6.516495
397.7038, 4.877808
398.1859, 4.115799
398.6681, 3.751968
399.1501, 3.603455
399.6323, 3.611755
400.1144, 3.612717
400.5965, 3.522781
401.0786, 3.374496
401.5607, 3.268311
402.0428, 3.255249
402.5250, 3.185806
403.0071, 3.005585
403.4892, 2.766617
403.9713, 2.482330
404.4534, 2.169174
404.9355, 1.948074
405.4177, 1.990097
405.8998, 2.384964
406.3819, 2.587463
406.8640, 2.434647
407.3461, 2.287613
407.8282, 2.334030
408.3104, 2.527893
408.7925, 2.699524
409.2746, 2.734573
409.7567, 2.677094
410.2388, 2.733002
410.7209, 3.110031
411.2031, 3.328384
411.6852, 3.213013
412.1673, 2.999466
412.6494, 2.908081
413.1315, 3.008499
413.6136, 3.210022
414.0958, 3.398468
414.5779, 3.575699
415.0600, 3.736633
415.5421, 3.789917
416.0242, 3.946976
416.5063, 4.353073
416.9885, 4.939285
417.4706, 5.523041
417.9527, 5.975540
418.4348, 6.291550
418.9169, 6.502701
419.3990, 6.419678
419.8812, 6.774521
420.3633, 8.436478
420.8454, 10.25941
421.3275, 11.06703
421.8096, 10.54817
422.2917, 9.593445
422.7739, 9.065582
423.2560, 8.968857
423.7381, 8.892075
424.2202, 8.406937
424.7023, 8.488434
425.1844, 10.35799
425.6666, 13.45813
426.1487, 15.79486
426.6308, 16.19926
427.1129, 15.55093
427.5950, 14.88791
428.0771, 14.18423
428.5593, 14.08524
429.0414, 15.41901
429.5235, 17.28433
430.0056, 17.72151
430.4877, 16.19542
430.9698, 14.55986
431.4520, 13.63966
431.9341, 13.25905
432.4162, 13.06831
432.8983, 12.95406
433.3804, 12.87595
433.8625, 12.87334
434.3447, 12.99248
434.8268, 13.05637
435.3089, 12.97363
435.7910, 12.81004
436.2731, 12.71651
436.7552, 12.65591
437.2374, 12.43195
437.7195, 11.90858
438.2016, 11.17625
438.6837, 10.59555
439.1658, 10.12050
439.6479, 9.853012
440.1301, 9.939926
440.6122, 10.17552
441.0943, 10.17410
441.5764, 9.938583
442.0585, 10.14006
442.5406, 11.80881
443.0227, 15.43805
443.5049, 16.94701
443.9870, 14.39418
444.4691, 11.69931
444.9512, 9.762314
445.4333, 8.555573
445.9154, 7.951172
446.3976, 7.958160
446.8797, 8.219757
447.3618, 7.848053
447.8439, 6.502197
448.3260, 5.540497
448.8081, 5.536636
449.2903, 5.755188
449.7724, 5.709137
450.2545, 5.392395
450.7366, 5.168304
451.2187, 5.461472
451.7008, 6.105911
452.1830, 6.344864
452.6651, 6.016617
453.1472, 5.651108
453.6293, 5.673294
454.1114, 5.826950
454.5935, 5.714783
455.0757, 5.146469
455.5578, 4.506912
456.0399, 4.093079
456.5220, 3.875549
457.0041, 3.748459
457.4862, 3.738068
457.9684, 3.685837
458.4505, 3.257492
458.9326, 2.444580
459.4147, 1.976059
459.8968, 2.227539
460.3789, 2.703476
460.8611, 3.025024
461.3432, 3.174271
461.8253, 3.284302
462.3074, 3.498810
462.7895, 3.672165
463.2716, 3.166306
463.7538, 0.9463500
464.2359, 0.5532530
464.7180, 0.7329560
465.2001, 0.2534640
465.6822, 0.3931730
466.1643, 1.023254
466.6465, 1.414536
467.1286, 1.253357
467.6107, 0.4306340
468.0928, 7.5043000E-02
468.5749, 0.8673400
469.0570, 1.398468
469.5392, 1.078064
470.0213, 0.3128660
470.5034, 0.2804570
470.9855, 0.4304500
471.4676, 0.3222960
471.9497, 0.2290800
472.4319, 0.1072850
472.9140, 0.1870420
473.3961, 0.6659390
473.8782, 1.220657
474.3603, 1.809433
474.8424, 2.343430
475.3246, 2.558838
475.8067, 2.066315
476.2888, 1.225449
476.7709, 0.8589780
477.2530, 1.033585
477.7351, 1.269821
478.2173, 1.432236
478.6994, 1.472534
479.1815, 1.278381
479.6636, 0.7488710
480.1457, 0.3409270
480.6278, 0.3387450
481.1100, 0.6003420
481.5920, 0.9274140
482.0742, 1.294220
482.5563, 1.547653
483.0384, 1.505066
483.5205, 1.173843
484.0026, 1.029404
484.4847, 1.193298
484.9669, 1.399719
485.4490, 1.674957
485.9311, 1.893356
486.4132, 1.767120
486.8953, 1.194107
487.3774, 0.4961240
487.8596, 0.2185970
488.3417, 0.5617220
488.8238, 0.7866520
489.3059, 1.113907
489.7880, 1.136948
490.2701, 0.3076320
490.7523, 0.9777530
491.2344, 1.782928
491.7165, 1.466095
492.1986, 0.5219270
492.6807, 0.3896940
493.1628, 1.457733
493.6450, 2.267136
494.1271, 2.324661
494.6092, 2.154800
495.0913, 2.020111
495.5734, 1.966202
496.0555, 2.023666
496.5377, 2.341095
497.0198, 2.777420
497.5019, 2.811813
497.9840, 2.279678
498.4661, 2.099335
498.9482, 3.087860
499.4304, 4.640717
499.9125, 5.575012
500.3946, 5.659698
500.8767, 5.554337
501.3588, 5.465134
501.8409, 5.437897
502.3231, 5.515869
502.8052, 5.707031
503.2873, 6.147934
503.7694, 7.100693
504.2515, 8.595627
504.7336, 9.282761
505.2158, 8.379333
505.6979, 7.638885
506.1800, 7.802872
506.6621, 8.494034
507.1442, 9.092392
507.6263, 9.378815
508.1085, 9.623245
508.5906, 10.30980
509.0727, 11.70624
509.5548, 12.57220
510.0369, 12.39427
510.5190, 12.19420
511.0012, 12.34183
511.4833, 12.75360
511.9654, 13.23647
512.4475, 13.71518
512.9296, 14.15216
513.4117, 14.44510
513.8939, 14.56476
514.3760, 14.77448
514.8581, 15.20131
515.3402, 15.66785
515.8223, 16.07101
516.3044, 16.39919
516.7866, 16.58998
517.2687, 16.43246
517.7508, 16.22963
518.2329, 16.35599
518.7150, 16.80861
519.1971, 17.52074
519.6793, 18.61081
520.1614, 19.76526
520.6435, 20.15796
521.1256, 19.50462
521.6077, 19.09512
522.0898, 19.37157
522.5720, 19.80650
523.0541, 19.88484
523.5362, 19.63567
524.0183, 19.49493
524.5004, 19.80302
524.9825, 20.45320
525.4647, 20.89201
525.9468, 20.93187
526.4289, 21.01746
526.9110, 21.13777
527.3931, 21.34996
527.8752, 21.75310
528.3574, 22.31198
528.8395, 22.85876
529.3216, 23.22673
529.8037, 23.45734
530.2858, 23.83910
530.7679, 24.47285
531.2501, 24.97482
531.7322, 24.73787
532.2143, 24.49559
532.6964, 25.35013
533.1785, 27.71628
533.6606, 29.50626
534.1428, 28.88435
534.6249, 26.79872
535.1070, 25.15201
535.5891, 24.17047
536.0712, 23.80913
536.5533, 24.28934
537.0355, 25.41599
537.5176, 25.89607
537.9997, 25.09760
538.4818, 24.44867
538.9639, 24.49135
539.4460, 24.84616
539.9282, 25.10739
540.4103, 25.15781
540.8924, 24.95874
541.3745, 24.40833
541.8566, 23.48141
542.3387, 23.00806
542.8209, 23.45280
543.3029, 23.79057
543.7850, 23.88548
544.2672, 23.78622
544.7493, 23.42763
545.2314, 22.79001
545.7135, 22.20381
546.1956, 22.16861
546.6777, 22.64792
547.1599, 22.85654
547.6420, 22.70456
548.1241, 22.44798
548.6062, 22.11180
549.0883, 21.76233
549.5704, 21.58549
550.0526, 21.73631
550.5347, 21.76047
551.0168, 21.17596
551.4989, 20.31125
551.9810, 19.91579
552.4631, 20.14615
552.9453, 20.60902
553.4274, 21.02496
553.9095, 21.39738
554.3916, 21.30339
554.8737, 20.17909
555.3558, 19.33168
555.8380, 19.35506
556.3201, 19.72102
556.8022, 19.77991
557.2843, 19.36198
557.7664, 18.80753
558.2485, 18.48386
558.7307, 18.39771
559.2128, 18.44580
559.6949, 18.80940
560.1770, 19.03896
560.6591, 19.07019
561.1412, 18.86655
561.6234, 18.24532
562.1055, 17.10948
562.5876, 16.14789
563.0697, 16.13559
563.5518, 16.79367
564.0339, 17.21689
564.5161, 17.30472
564.9982, 17.12453
565.4803, 16.58844
565.9624, 15.81976
566.4445, 15.36398
566.9266, 15.48851
567.4088, 15.54294
567.8909, 15.08855
568.3730, 14.54488
568.8551, 14.60208
569.3372, 15.29170
569.8193, 15.86992
570.3015, 15.60393
570.7836, 14.54465
571.2657, 13.71423
571.7478, 13.23283
572.2299, 12.82974
572.7120, 12.36823
573.1942, 12.01720
573.6763, 12.00487
574.1584, 12.32785
574.6405, 12.67932
575.1226, 12.91141
575.6047, 12.96506
576.0869, 12.47852
576.5690, 11.29126
577.0511, 10.24541
577.5332, 9.843048
578.0153, 9.771774
578.4974, 9.511002
578.9796, 9.009644
579.4617, 8.513260
579.9438, 8.152130
580.4259, 7.823013
580.9080, 7.325027
581.3901, 6.698700
581.8723, 6.275497
582.3544, 6.306503
582.8365, 6.615509
583.3186, 6.596298
583.8007, 5.932404
584.2828, 5.413589
584.7650, 5.199692
585.2471, 5.001694
585.7292, 4.606903
586.2113, 4.050980
586.6934, 3.494675
587.1755, 3.026108
587.6577, 2.644516
588.1398, 2.376312
588.6219, 2.238922
589.1040, 2.084412
589.5861, 1.833817
590.0682, 1.601913
590.5504, 1.586807
591.0325, 1.730286
591.5146, 1.640747
591.9967, 0.9313050
592.4788, 0.1679840
592.9609, 0.1605220
593.4431, 0.1374360
593.9252, 1.8723000E-02
594.4073, 0.1075590
594.8894, 0.2756350
595.3715, 0.5698390
595.8536, 1.094864
596.3358, 1.253525
596.8179, 0.7388610
597.3000, 0.2560420
597.7821, 8.7357000E-02
598.2642, 9.1934003E-02
598.7463, 4.6371002E-02
599.2285, 0.1255650
599.7106, 0.3287200
600.1927, 0.4297180
600.6748, 0.4358670
601.1569, 0.5536190
601.6390, 0.9073030
602.1212, 1.125412
602.6033, 0.8316650
603.0854, 0.3149410
603.5675, 2.9526001E-02
604.0496, 0.1065060
604.5317, 0.1811680
605.0139, 7.7956997E-02
605.4960, 0.1441960
605.9781, 0.4406130
606.4602, 0.7890010
606.9423, 1.091415
607.4244, 1.279510
607.9066, 1.363297
608.3887, 1.380203
608.8708, 1.144943
609.3529, 1.118073
609.8350, 1.558029
610.3171, 2.009933
610.7993, 2.152023
611.2814, 2.005203
611.7635, 1.740891
612.2456, 1.400574
612.7277, 1.119354
613.2098, 1.255676
613.6920, 1.854980
614.1741, 2.330887
614.6562, 2.518570
615.1383, 2.565491
615.6204, 2.521912
616.1025, 2.425232
616.5847, 2.554947
617.0668, 3.206085
617.5489, 3.863876
618.0310, 4.217560
618.5131, 4.334869
618.9952, 4.310410
619.4774, 4.181992
619.9595, 4.084778
620.4416, 4.175507
620.9237, 4.460358
621.4058, 4.848358
621.8879, 5.530945
622.3701, 6.080643
622.8522, 6.408737
623.3343, 6.564102
623.8164, 6.546265
624.2985, 6.374725
624.7806, 6.203049
625.2628, 6.137390
625.7448, 6.170120
626.2269, 6.291168
626.7090, 6.503815
627.1912, 6.765457
627.6733, 7.056686
628.1554, 7.386246
628.6375, 7.832306
629.1196, 8.480789
629.6017, 8.843079
630.0839, 8.514267
630.5660, 8.173904
631.0481, 8.361526
631.5302, 8.918289
632.0123, 9.363251
632.4944, 9.474152
632.9766, 9.514175
633.4587, 10.03612
633.9408, 11.24242
634.4229, 11.86354
634.9050, 11.38307
635.3871, 10.96126
635.8693, 11.14716
636.3514, 11.69322
636.8335, 12.25902
637.3156, 12.79257
637.7977, 13.20583
638.2798, 13.25706
638.7620, 13.19724
639.2441, 13.65237
639.7262, 14.66194
640.2083, 15.42798
640.6904, 15.37257
641.1725, 14.75851
641.6547, 14.46120
642.1368, 14.71747
642.6189, 14.96100
643.1010, 15.10959
643.5831, 15.31674
644.0652, 15.77651
644.5474, 16.37201
645.0295, 16.77237
645.5116, 16.76317
645.9937, 16.66844
646.4758, 17.08961
646.9579, 18.02119
647.4401, 18.75111
647.9222, 19.09032
648.4043, 19.38870
648.8864, 19.93442
649.3685, 20.65048
649.8506, 21.29591
650.3328, 21.96983
650.8149, 22.37785
651.2970, 22.10832
651.7791, 21.70703
652.2612, 21.93143
652.7433, 22.77446
653.2255, 23.57361
653.7076, 23.80008
654.1897, 23.66649
654.6718, 24.08853
655.1539, 25.43156
655.6360, 26.46599
656.1182, 26.53654
656.6003, 26.63283
657.0824, 27.46246
657.5645, 28.81335
658.0466, 29.93512
658.5287, 30.48143
659.0109, 30.77362
659.4930, 30.97383
659.9751, 31.16652
660.4572, 31.66515
660.9393, 32.55074
661.4214, 33.50403
661.9036, 34.27115
662.3857, 34.86728
662.8678, 35.34145
663.3499, 35.37291
663.8320, 35.65172
664.3141, 36.67302
664.7963, 37.67480
665.2784, 37.83987
665.7605, 37.38171
666.2426, 37.26930
666.7247, 38.16534
667.2068, 39.51285
667.6890, 40.20477
668.1711, 40.26022
668.6532, 40.36528
669.1353, 40.72095
669.6174, 41.05566
670.0995, 41.04385
670.5817, 40.71568
671.0638, 40.55453
671.5459, 41.02422
672.0280, 41.15639
672.5101, 40.34813
672.9922, 39.21425
673.4744, 38.42429
673.9565, 38.04095
674.4386, 37.75920
674.9207, 37.40317
675.4028, 36.87665
675.8849, 35.69751
676.3671, 33.56979
676.8492, 32.14752
677.3313, 32.25751
677.8134, 32.59520
678.2955, 32.11562
678.7776, 30.99678
679.2598, 29.86298
679.7419, 28.86221
680.2240, 27.87247
680.7061, 26.78360
681.1882, 25.67578
681.6703, 24.68620
682.1525, 23.83076
682.6346, 22.97089
683.1167, 21.97266
683.5988, 20.90279
684.0809, 20.12170
684.5630, 19.89627
685.0452, 19.37932
685.5273, 18.03632
686.0094, 16.74899
686.4915, 16.14862
686.9736, 16.03766
687.4557, 15.73648
687.9379, 14.83897
688.4200, 13.94444
688.9021, 13.76379
689.3842, 13.96555
689.8663, 13.75258
690.3484, 12.98244
690.8306, 12.01726
691.3127, 11.08272
691.7948, 10.22575
692.2769, 9.678574
692.7590, 9.769135
693.2411, 9.648285
693.7233, 9.119049
694.2054, 8.530533
694.6875, 8.162537
695.1696, 7.906754
695.6517, 7.389587
696.1339, 6.317047
696.6160, 5.340057
697.0981, 5.433578
697.5802, 6.244324
698.0623, 6.440399
698.5444, 5.787735
699.0266, 5.042496
699.5087, 4.743500
699.9908, 4.753662
700.4729, 4.557556
700.9550, 3.937088
701.4371, 3.440491
701.9193, 3.207855
702.4014, 2.975845
702.8835, 2.551056
703.3656, 2.005447
703.8477, 1.467346
704.3298, 0.9773560
704.8120, 0.6777950
705.2941, 0.9297790
705.7762, 1.573502
706.2583, 1.767212
706.7404, 1.378342
707.2225, 0.9134520
707.7046, 0.6147000
708.1867, 0.4745180
708.6688, 0.5147250
709.1509, 0.9204410
709.6331, 1.024109
710.1152, 0.4933780
710.5973, 7.2646998E-02
711.0794, 0.3080900
711.5615, 0.3280790
712.0436, 0.4024350
712.5258, 0.6275630
713.0079, 0.8147740
713.4900, 0.6589510
713.9721, 0.2510530
714.4542, 0.1375120
714.9363, 0.3832860
715.4185, 0.6079100
715.9006, 0.6417690
716.3827, 0.5539250
716.8648, 0.4395600
717.3469, 0.2849880
717.8290, 0.1827090
718.3112, 7.6233000E-02
718.7933, 9.2377000E-02
719.2754, 0.5005950
719.7575, 0.9851530
720.2396, 1.052750
720.7217, 0.6049190
721.2039, 2.5940000E-03
721.6860, 0.5171200
722.1681, 0.8811040
722.6502, 0.5927730
723.1323, 0.5015110
723.6144, 0.8885350
724.0966, 0.3294220
724.5787, 1.819168
725.0608, 1.899979
725.5429, 0.6034700
726.0250, 0.3951110
726.5071, 1.043732
726.9893, 1.342651
727.4714, 1.151672
727.9535, 0.6950680
728.4356, 0.1089630
728.9177, 0.5097810
729.3998, 0.9463650
729.8820, 1.006424
730.3641, 0.8490910
730.8462, 0.8518070
731.3283, 1.021759
731.8104, 1.100861
732.2925, 0.9557950
732.7747, 0.9109500
733.2568, 1.341934
733.7389, 2.116730
734.2210, 2.537659
734.7031, 2.435913
735.1852, 2.241081
735.6674, 1.860794
736.1495, 1.561546
736.6316, 1.633423
737.1137, 1.979454
737.5958, 2.287613
738.0779, 2.403214
738.5601, 2.431549
739.0422, 2.495537
739.5243, 2.601280
740.0064, 2.835571
740.4885, 3.240829
740.9706, 3.617424
741.4528, 3.880394
741.9349, 4.025818
742.4170, 3.997902
742.8991, 3.684647
743.3812, 3.597366
743.8633, 4.096947
744.3455, 4.500786
744.8276, 4.268211
745.3097, 3.772797
745.7918, 3.670563
746.2739, 4.116112
746.7560, 4.602943
747.2382, 4.584053
747.7203, 4.235756
748.2024, 4.079529
748.6845, 4.117294
749.1666, 4.298561
749.6487, 4.642395
750.1309, 5.036346
750.6130, 5.356079
751.0951, 5.596603
751.5772, 5.816620
752.0593, 6.001053
752.5414, 6.183281
753.0236, 6.412308
753.5057, 6.609352
753.9878, 6.616791
754.4699, 6.504837
754.9520, 6.602005
755.4341, 7.221672
755.9163, 7.864044
756.3984, 7.645935
756.8805, 6.804146
757.3626, 6.412468
757.8447, 6.660103
758.3268, 7.122772
758.8090, 7.570496
759.2911, 7.943108
759.7732, 8.023422
760.2553, 7.495247
760.7374, 7.258133
761.2195, 7.669220
761.7017, 7.980270
762.1838, 7.634605
762.6659, 7.030922
763.1480, 6.880341
763.6301, 7.397224
764.1122, 7.918770
764.5944, 7.883568
765.0765, 7.580513
765.5586, 7.463417
766.0407, 7.516182
766.5228, 7.533401
767.0049, 7.430779
767.4871, 7.308723
767.9692, 7.297127
768.4513, 7.389694
768.9334, 7.520828
769.4155, 7.707603
769.8976, 7.925583
770.3798, 8.268059
770.8619, 8.545921
771.3440, 8.587219
771.8261, 8.441048
772.3082, 8.314438
772.7903, 8.220650
773.2725, 8.217758
773.7546, 8.545380
774.2367, 8.926369
774.7188, 8.771469
775.2009, 8.121773
775.6830, 7.680908
776.1652, 7.937157
776.6473, 8.573273
777.1294, 8.834648
777.6115, 8.670074
778.0936, 8.418739
778.5757, 8.036476
779.0579, 7.768410
779.5400, 7.767937
780.0221, 7.923889
780.5042, 8.074486
780.9863, 8.206978
781.4684, 8.244957
781.9506, 8.146675
782.4327, 8.052597
782.9148, 8.089943
783.3969, 8.207932
783.8790, 8.302330
784.3611, 8.331711
784.8433, 8.337708
785.3254, 8.378876
785.8075, 8.449562
786.2896, 8.508995
786.7717, 8.539398
787.2538, 8.424583
787.7360, 8.084778
788.2181, 7.745293
788.7002, 7.589378
789.1823, 7.615639
789.6644, 7.823486
790.1465, 8.551086
790.6286, 8.966057
791.1107, 8.720146
791.5928, 8.409775
792.0750, 8.533867
792.5571, 8.875038
793.0392, 8.885994
793.5213, 8.342049
794.0034, 7.698967
794.4855, 7.248116
794.9677, 7.014000
795.4498, 7.113060
795.9319, 7.508820
796.4140, 8.008286
796.8961, 8.556435
797.3782, 8.914398
797.8604, 8.690582
798.3425, 7.844810
798.8246, 7.345749
799.3067, 7.385765
799.7888, 7.419037
800.2709, 7.342911
800.7531, 7.186783
801.2352, 6.831383
801.7173, 6.376595
802.1994, 6.302032
802.6815, 7.062584
803.1636, 7.746254
803.6458, 7.899895
804.1279, 7.704491
804.6100, 7.215942
805.0921, 6.575058
805.5742, 6.143890
806.0563, 6.133087
806.5385, 6.286324
807.0206, 6.158882
807.5027, 5.781906
807.9848, 5.617317
808.4669, 5.728302
808.9490, 5.814453
809.4312, 5.724197
809.9133, 5.567711
810.3954, 5.509422
810.8775, 5.565514
811.3596, 5.620895
811.8417, 5.716553
812.3239, 5.760483
812.8060, 5.775101
813.2881, 5.693710
813.7702, 5.303566
814.2523, 4.729218
814.7344, 4.499863
815.2166, 5.034340
815.6987, 5.682617
816.1808, 5.704025
816.6629, 5.353760
817.1450, 5.174591
817.6271, 5.219498
818.1093, 5.299744
818.5914, 5.312279
819.0735, 5.306870
819.5556, 5.396980
820.0377, 5.623810
820.5198, 5.635941
821.0020, 5.284210
821.4841, 4.991829
821.9662, 4.933823
822.4483, 5.006279
822.9304, 5.162010
823.4125, 5.388634
823.8947, 5.428352
824.3768, 4.967972
824.8589, 4.635742
825.3410, 4.845055
825.8231, 5.220528
826.3052, 5.370888
826.7874, 5.272820
827.2695, 5.071541
827.7516, 4.826149
828.2337, 4.623734
828.7158, 4.636421
829.1979, 4.807442
829.6801, 4.839745
830.1622, 4.704819
830.6443, 4.800255
831.1264, 5.409225
831.6085, 6.104736
832.0906, 6.131630
832.5728, 5.362190
833.0549, 4.797020
833.5370, 4.075211
834.0191, 4.089340
834.5012, 6.049202
834.9833, 7.987740
835.4655, 8.065704
835.9476, 6.556343
836.4297, 5.266953
836.9118, 4.692741
837.3939, 4.524872
837.8760, 4.894547
838.3582, 5.381622
838.8403, 5.429436
839.3224, 5.125870
839.8045, 4.940208
840.2866, 5.096390
840.7687, 5.353416
841.2509, 5.415802
841.7330, 5.291466
842.2151, 4.935265
842.6972, 4.318108
843.1793, 4.031509
843.6614, 4.384712
844.1436, 4.888718
844.6257, 4.950241
845.1078, 4.572906
845.5899, 4.359467
846.0720, 4.527229
846.5541, 4.593292
847.0363, 4.358078
847.5184, 4.069572
848.0005, 3.877831
848.4826, 3.779190
848.9647, 3.728333
849.4468, 3.724442
849.9290, 3.712227
850.4111, 3.654930
850.8932, 3.575623
851.3753, 3.493401
851.8574, 3.404205
852.3395, 3.294800
852.8217, 3.165779
853.3038, 3.045296
853.7859, 2.989510
854.2680, 2.963737
854.7501, 2.810875
855.2322, 2.512924
855.7144, 2.245514
856.1965, 2.039764
856.6786, 1.913605
857.1607, 1.939377
857.6428, 2.024864
858.1249, 1.827950
858.6071, 1.020203
859.0892, 0.6419750
859.5713, 1.088089
860.0534, 1.485458
860.5355, 1.443687
861.0176, 1.241409
861.4998, 1.243401
861.9819, 1.463989
862.4640, 1.584366
862.9461, 1.428848
863.4282, 1.206200
863.9103, 0.9474110
864.3925, 0.7339860
864.8746, 0.7460780
865.3567, 0.9534840
865.8388, 1.160828
866.3209, 1.265305
866.8030, 1.230377
867.2852, 0.8928150
867.7673, 0.3445890
868.2494, 0.1117550
868.7315, 0.2337040
869.2136, 0.3396610
869.6957, 0.2550740
870.1779, 0.1728670
870.6600, 0.3856120
871.1421, 0.8982320
871.6242, 1.156616
872.1063, 1.112839
872.5884, 0.9029310
873.0705, 0.3334500
873.5526, 0.2065890
874.0347, 0.4887920
874.5168, 0.5578690
874.9990, 0.5229490
875.4811, 0.3477480
875.9632, 0.2221910
876.4453, 0.2665180
876.9274, 0.3312840
877.4095, 0.3156590
877.8917, 0.2352450
878.3738, 0.1181790
878.8559, 1.6266000E-02
879.3380, 0.1225590
879.8201, 0.1477280
880.3022, 0.1453320
880.7844, 0.2209780
881.2665, 0.3450390
881.7486, 0.2897340
882.2307, 5.1047999E-02
882.7128, 0.2899550
883.1949, 1.529442
883.6771, 3.040596
884.1592, 3.152008
884.6413, 1.587471
885.1234, 0.7229460
885.6055, 0.8349990
886.0876, 0.9607850
886.5698, 0.7547610
887.0519, 0.4306870
887.5340, 0.2200240
888.0161, 0.1166460
888.4982, 1.2886000E-02
888.9803, 0.2532350
889.4625, 0.4055250
889.9446, 0.4626770
890.4267, 0.4027250
890.9088, 5.7587001E-02
891.3909, 0.3727040
891.8730, 0.4675980
892.3552, 9.9097997E-02
892.8373, 0.2638470
893.3194, 0.3204730
893.8015, 0.2226790
894.2836, 9.3741998E-02
894.7657, 5.4703001E-02
895.2479, 0.2322390
895.7300, 0.4281770
896.2121, 0.5764010
896.6942, 0.6257710
897.1763, 0.5930560
897.6584, 0.4857330
898.1406, 0.3206180
898.6227, 0.2438510
899.1048, 0.2724230
899.5869, 0.3251720
900.0690, 0.3771740
900.5511, 0.4010470
901.0333, 0.3292920
901.5154, 0.1478810
901.9975, 0.1874920
902.4796, 0.7297290
902.9617, 0.9549030
903.4438, 0.2783510
903.9260, 0.3331150
904.4081, 1.5594000E-02
904.8902, 0.8482740
905.3723, 1.244331
905.8544, 0.9017030
906.3365, 0.5476300
906.8187, 0.3140180
907.3008, 0.1723020
907.7829, 0.1028820
908.2650, 0.1197130
908.7471, 0.2780380
909.2292, 0.5608670
909.7114, 0.8449020
910.1935, 1.142853
910.6756, 1.274063
911.1577, 0.8684540
911.6398, 0.2414550
912.1219, 4.1618001E-02
912.6041, 5.6580000E-02
913.0862, 0.4070660
913.5683, 0.9517520
914.0504, 1.440369
914.5325, 1.481796
915.0146, 1.161293
915.4968, 0.9544300
915.9789, 0.8621370
916.4610, 0.8504940
916.9431, 0.9103620
917.4252, 0.9172670
917.9073, 0.7408070
918.3895, 0.4854350
918.8716, 0.5777360
919.3537, 1.347794
919.8358, 1.636757
920.3179, 0.9843750
920.8000, 0.4656520
921.2822, 0.6549610
921.7643, 1.117683
922.2464, 1.394943
922.7285, 1.460739
923.2106, 1.484116
923.6927, 1.512367
924.1749, 1.510475
924.6570, 1.426231
925.1391, 1.365585
925.6212, 1.422340
926.1033, 1.530579
926.5854, 1.575020
927.0676, 1.537811
927.5497, 1.525208
928.0318, 1.651901
928.5139, 1.749527
928.9960, 1.591080
929.4781, 1.337379
929.9603, 1.265770
930.4424, 1.400215
930.9245, 1.643021
931.4066, 1.958809
931.8887, 2.242012
932.3708, 2.302895
932.8530, 2.200729
933.3351, 2.150917
933.8172, 2.149536
934.2993, 2.052689
934.7814, 1.800224
935.2635, 1.574883
935.7457, 1.571350
936.2278, 1.759331
936.7099, 2.023308
937.1920, 2.416054
937.6741, 2.671730
938.1563, 2.726547
938.6384, 2.706985
939.1205, 2.650948
939.6026, 2.585724
940.0847, 2.579193
940.5668, 2.670853
941.0490, 2.659386
941.5311, 2.372086
942.0132, 2.193512
942.4953, 2.270477
942.9774, 2.423744
943.4595, 2.548012
943.9417, 2.633987
944.4238, 2.698532
944.9059, 2.765968
945.3880, 2.735741
945.8701, 2.480904
946.3522, 2.209923
946.8344, 2.026039
947.3165, 1.931633
947.7986, 1.932640
948.2807, 2.012955
948.7628, 2.132698
949.2449, 2.278603
949.7271, 2.420219
950.2092, 2.518051
950.6913, 2.556282
951.1734, 2.547745
951.6555, 2.502502
952.1376, 2.407684
952.6198, 2.260574
953.1019, 2.084808
953.5840, 1.870667
954.0661, 1.690849
954.5482, 1.772575
955.0303, 2.063347
955.5124, 2.204720
955.9945, 2.146782
956.4766, 2.146851
956.9587, 2.362854
957.4409, 2.632797
957.9230, 2.661201
958.4051, 2.447456
958.8872, 2.339493
959.3693, 2.333359
959.8514, 2.448532
960.3336, 2.714180
960.8157, 3.093979
961.2978, 3.636688
961.7799, 4.192719
962.2620, 4.361931
962.7441, 3.803261
963.2263, 3.891090
963.7084, 5.455666
964.1905, 6.496597
964.6726, 5.790161
965.1547, 4.929123
965.6368, 5.710823
966.1190, 7.642723
966.6011, 8.297417
967.0832, 6.696396
967.5653, 5.204720
968.0474, 4.272835
968.5295, 3.654190
969.0117, 3.292015
969.4938, 3.067093
969.9759, 2.938911
970.4580, 2.896011
970.9401, 2.728378
971.4222, 2.255745
971.9044, 1.768387
972.3865, 1.361290
972.8686, 1.090157
973.3507, 0.8773350
973.8328, 0.9001690
974.3149, 1.826126
974.7971, 3.702118
975.2792, 5.015350
975.7613, 4.225876
976.2434, 2.571190
976.7255, 1.490631
977.2076, 0.9145580
977.6898, 0.8058010
978.1719, 1.027466
978.6540, 1.066574
979.1361, 0.7022630
979.6182, 0.3450390
980.1003, 0.5902480
980.5825, 1.228371
981.0646, 1.479027
981.5467, 1.373512
982.0288, 1.037781
982.5109, 0.4975970
982.9930, 0.1708910
983.4752, 0.3685230
983.9573, 0.7928310
984.4394, 0.8273930
984.9215, 0.4624480
985.4036, 0.4085080
985.8857, 0.7577360
986.3679, 0.9260640
986.8500, 0.6710820
987.3321, 0.4170000
987.8142, 0.5573500
988.2963, 0.9714740
988.7784, 1.227074
989.2606, 1.301384
989.7427, 1.256294
990.2248, 0.9834590
990.7069, 0.8015590
991.1890, 0.8524320
991.6711, 0.9772950
992.1533, 1.014923
992.6354, 0.9923480
993.1175, 1.066345
993.5996, 1.365112
994.0817, 1.516434
994.5638, 1.411919
995.0460, 1.295349
995.5281, 1.250984
996.0102, 1.270020
996.4923, 1.342697
996.9744, 1.401207
997.4565, 1.369980
997.9387, 1.189476
998.4208, 1.097519
998.9029, 1.256844
999.3850, 1.416435
999.8671, 1.362076
1000.349, 1.229286
1000.831, 1.233139
1001.313, 1.390167
1001.796, 1.534172
1002.278, 1.554382
1002.760, 1.628265
1003.242, 1.995659
1003.724, 2.304733
1004.206, 2.126480
1004.688, 1.683792
1005.170, 1.485153
1005.653, 1.628326
1006.135, 1.702995
1006.617, 1.300034
1007.099, 0.9215010
1007.581, 1.135551
1008.063, 1.606606
1008.545, 1.911415
1009.027, 2.038574
1009.509, 2.100372
1009.992, 2.118057
1010.474, 2.041260
1010.956, 1.796471
1011.438, 1.509956
1011.920, 1.342613
1012.402, 1.295486
1012.884, 1.459106
1013.366, 1.754662
1013.849, 1.794609
1014.331, 1.417717
1014.813, 0.9669270
1015.295, 0.8094860
1015.777, 0.8808820
1016.259, 1.093437
1016.741, 1.375526
1017.223, 1.446251
1017.705, 1.276459
1018.188, 0.9786830
1018.670, 0.6019440
1019.152, 0.2379380
1019.634, 8.3539998E-03
1020.116, 9.1576003E-02
1020.598, 7.3158003E-02
1021.080, 6.2775001E-02
1021.562, 0.2904820
1022.044, 0.6109310
1022.527, 0.8084260
1023.009, 0.7387920
1023.491, 0.5836790
1023.973, 0.6771010
1024.455, 0.9886550
1024.937, 0.9134670
1025.419, 0.3784100
1025.901, 1.1162000E-02
1026.384, 0.1322940
1026.866, 0.2040860
1027.348, 1.287056
1027.830, 2.743675
1028.312, 3.989449
1028.794, 5.066704
1029.276, 4.875610
1029.758, 2.955284
1030.240, 1.387077
1030.723, 0.6050870
1031.205, 0.1298290
1031.687, 0.3336720
1032.169, 0.6714780
1032.651, 0.6831510
1033.133, 0.3509290
1033.615, 3.4897000E-02
1034.097, 0.1906590
1034.579, 0.5177540
1035.062, 1.019890
1035.544, 1.632858
1036.026, 2.620438
1036.508, 3.498734
1036.990, 3.071564
1037.472, 0.9444120
1037.954, 0.2551880
1038.436, 0.1153870
1038.919, 0.4026790
1039.401, 0.1857530
1039.883, 6.3950002E-02
1040.365, 2.6108000E-02
1040.847, 0.2738880
1041.329, 0.2715840
1041.811, 5.2979000E-02
1042.293, 0.2074280
1042.776, 0.1029280
1043.258, 0.1614610
1043.740, 0.5616460
1044.222, 1.157188
1044.704, 0.8034520
1045.186, 1.8620000E-03
1045.668, 0.2432860
1046.150, 0.2364960
1046.632, 0.5618130
1047.115, 0.4903340
1047.597, 0.4729770
1048.079, 0.7254330
1048.561, 0.9773100
1049.043, 0.9818190
1049.525, 0.8635860
1050.007, 0.9132000
1050.489, 1.192413
1050.971, 1.284592
1051.454, 0.9301300
1051.936, 0.6174620
1052.418, 0.3891300
1052.900, 0.3641820
1053.382, 1.166382
1053.864, 2.016037
1054.346, 1.099449
1054.828, 1.907799
1055.311, 3.582436
1055.793, 1.987213
1056.275, 0.3133540
1056.757, 0.4777600
1057.239, 0.8129650
1057.721, 0.8594280
1058.203, 0.7636720
1058.685, 0.6676790
1059.167, 0.5963060
1059.650, 0.6700900
1060.132, 1.147835
1060.614, 1.488670
1061.096, 1.381058
1061.578, 1.160767
1062.060, 1.059242
1062.542, 1.041069
1063.024, 1.018501
1063.506, 0.9677430
1063.989, 0.8792650
1064.471, 0.7361600
1064.953, 0.6006550
1065.435, 0.3598480
1065.917, 0.2303160
1066.399, 0.6317520
1066.881, 1.144402
1067.363, 0.9601210
1067.846, 7.8994997E-02
1068.328, 0.4612960
1068.810, 9.2162997E-02
1069.292, 0.3702010
1069.774, 0.6467360
1070.256, 0.7882310
1070.738, 0.8199620
1071.220, 0.7441250
1071.703, 0.4675750
1072.185, 5.7991002E-02
1072.667, 8.3457999E-02
1073.149, 0.4106600
1073.631, 0.6506880
1074.113, 0.1953200
1074.595, 1.011383
1075.077, 0.8382570
1075.559, 0.2224500
1076.042, 9.6329004E-02
1076.524, 7.4874997E-02
1077.006, 5.7303999E-02
1077.488, 0.1653670
1077.970, 0.2501220
1078.452, 0.2848360
1078.934, 0.2094730
1079.416, 9.6992001E-02
1079.898, 0.4838790
1080.380, 0.8231660
1080.863, 1.060883
1081.345, 1.083199
1081.827, 0.7884450
1082.309, 0.6597290
1082.791, 0.9784550
1083.273, 1.421593
1083.755, 1.967346
1084.237, 2.416840
1084.720, 2.504959
1085.202, 2.348259
1085.684, 2.280678
1086.166, 2.410217
1086.648, 2.446945
1087.130, 2.064384
1087.612, 1.806274
1088.094, 2.088394
1088.577, 2.499344
1089.059, 2.663734
1089.541, 2.638283
1090.023, 2.568787
1090.505, 2.497482
1090.987, 2.645287
1091.469, 3.270996
1091.951, 3.882828
1092.433, 4.377975
1092.916, 4.686012
1093.398, 4.645874
1093.880, 4.416756
1094.362, 4.215034
1094.844, 4.090431
1095.326, 4.124458
1095.808, 4.402847
1096.290, 4.737389
1096.772, 5.155685
1097.255, 5.472794
1097.737, 5.500389
1098.219, 5.422867
1098.701, 5.468346
1099.183, 5.642975
1099.665, 5.849808
1100.147, 6.122253
1100.629, 6.341133
1101.112, 6.464523
1101.594, 6.483292
1102.076, 6.209358
1102.558, 6.028336
1103.040, 6.469025
1103.522, 7.324577
1104.004, 7.791649
1104.486, 7.609161
1104.969, 7.534554
1105.451, 7.690529
1105.933, 7.977127
1106.415, 8.562683
1106.897, 9.085480
1107.379, 9.181801
1107.861, 9.013329
1108.343, 8.965927
1108.825, 9.069046
1109.307, 9.318855
1109.790, 9.861221
1110.272, 10.33252
1110.754, 10.80083
1111.236, 10.99957
1111.718, 10.53297
1112.200, 9.870033
1112.682, 9.751549
1113.164, 10.18409
1113.647, 10.41478
1114.129, 10.23161
1114.611, 10.18598
1115.093, 10.40326
1115.575, 10.65069
1116.057, 10.80650
1116.539, 10.97615
1117.021, 11.26527
1117.504, 11.66743
1117.986, 12.18091
1118.468, 12.97453
1118.950, 13.47650
1119.432, 13.56905
1119.914, 13.56732
1120.396, 13.40331
1120.878, 13.45700
1121.360, 14.15137
1121.843, 15.25969
1122.325, 16.16522
1122.807, 16.95467
1123.289, 16.88634
1123.771, 15.54114
1124.253, 14.81763
1124.735, 15.30193
1125.217, 15.90837
1125.699, 15.93582
1126.182, 15.70734
1126.664, 15.78085
1127.146, 16.13553
1127.628, 16.50604
1128.110, 16.88992
1128.592, 17.31270
1129.074, 17.77800
1129.556, 18.23779
1130.039, 18.68100
1130.521, 19.01308
1131.003, 19.11116
1131.485, 19.02135
1131.967, 18.84306
1132.449, 18.58954
1132.931, 18.62746
1133.413, 18.97653
1133.896, 19.46719
1134.378, 20.05118
1134.860, 20.64032
1135.342, 21.18559
1135.824, 21.58647
1136.306, 21.55801
1136.788, 21.24211
1137.270, 21.19057
1137.752, 21.37044
1138.234, 21.59467
1138.717, 21.83032
1139.199, 22.09506
1139.681, 22.40161
1140.163, 22.70166
1140.645, 22.96649
1141.127, 23.19174
1141.609, 23.26767
1142.091, 23.34445
1142.574, 23.93555
1143.056, 24.83687
1143.538, 25.17770
1144.020, 24.75653
1144.502, 24.34363
1144.984, 24.47369
1145.466, 24.86421
1145.948, 25.44690
1146.431, 25.93701
1146.913, 25.81265
1147.395, 25.39360
1147.877, 25.19867
1148.359, 25.35374
1148.841, 25.92982
1149.323, 27.06769
1149.805, 27.98318
1150.287, 27.91481
1150.770, 27.74757
1151.252, 28.29294
1151.734, 28.93304
1152.216, 28.82480
1152.698, 28.28212
1153.180, 28.13864
1153.662, 28.56950
1154.144, 29.22397
1154.626, 30.25264
1155.109, 31.12349
1155.591, 31.64536
1156.073, 31.97214
1156.555, 32.20398
1157.037, 32.30489
1157.519, 32.07597
1158.001, 31.61963
1158.483, 31.65970
1158.966, 32.71368
1159.448, 33.33488
1159.930, 32.95181
1160.412, 32.78818
1160.894, 33.22751
1161.376, 33.94922
1161.858, 34.86829
1162.340, 35.83272
1162.822, 36.45757
1163.305, 36.68173
1163.787, 37.26906
1164.269, 38.52850
1164.751, 39.13284
1165.233, 38.59332
1165.715, 38.28683
1166.197, 38.89134
1166.679, 40.02237
1167.161, 41.32364
1167.644, 42.68539
1168.126, 43.58722
1168.608, 44.00798
1169.090, 44.86256
1169.572, 46.28818
1170.054, 48.00661
1170.536, 49.71289
1171.018, 51.23100
1171.500, 52.52011
1171.983, 53.98877
1172.465, 56.19101
1172.947, 58.61603
1173.429, 60.06013
1173.911, 60.87817
1174.393, 62.06738
1174.875, 63.69893
1175.357, 65.45139
1175.840, 67.15149
1176.322, 68.83267
1176.804, 70.55615
1177.286, 72.41003
1177.768, 74.62086
1178.250, 76.91150
1178.732, 78.94325
1179.214, 80.73279
1179.697, 82.35802
1180.179, 83.85814
1180.661, 85.15472
1181.143, 86.18481
1181.625, 87.34836
1182.107, 89.01779
1182.589, 90.46393
1183.071, 91.03693
1183.553, 91.47925
1184.036, 92.60016
1184.518, 94.05399
1185.000, 95.07828
1185.482, 95.61014
1185.964, 96.39694
1186.446, 97.89996
1186.928, 99.16425
1187.410, 99.86221
1187.892, 100.5336
1188.375, 101.4546
1188.857, 102.4073
1189.339, 103.1400
1189.821, 103.7418
1190.303, 104.3970
1190.785, 105.1423
1191.267, 105.6795
1191.749, 105.9155
1192.232, 106.1904
1192.714, 106.4637
1193.196, 107.0905
1193.678, 108.3290
1194.160, 109.7665
1194.642, 110.9863
1195.124, 111.8265
1195.606, 111.4075
1196.089, 109.7954
1196.571, 108.7804
1197.053, 108.4008
1197.535, 108.1410
1198.017, 107.8410
1198.499, 107.2743
1198.981, 106.2607
1199.463, 105.4386
1199.945, 105.9290
1200.427, 106.9531
1200.910, 107.1510
1201.392, 106.6361
1201.874, 105.3701
1202.356, 103.7094
1202.838, 102.6502
1203.320, 102.3891
1203.802, 102.0509
1204.284, 101.0184
1204.767, 100.0976
1205.249, 100.1770
1205.731, 100.3033
1206.213, 99.79102
1206.695, 98.74323
1207.177, 97.02701
1207.659, 95.02567
1208.141, 93.68881
1208.624, 93.23254
1209.106, 92.65155
1209.588, 91.87823
1210.070, 90.66116
1210.552, 88.49603
1211.034, 86.46042
1211.516, 85.38123
1211.998, 84.43616
1212.480, 82.70340
1212.963, 80.43799
1213.445, 78.63177
1213.927, 77.51270
1214.409, 75.55139
1214.891, 72.39178
1215.373, 69.92487
1215.855, 68.74561
1216.337, 66.98792
1216.819, 63.50427
1217.302, 59.83118
1217.784, 58.00134
1218.266, 57.20612
1218.748, 54.94092
1219.230, 51.40106
1219.712, 47.24548
1220.194, 42.73712
1220.676, 38.83533
1221.159, 35.73395
1221.641, 33.14178
1222.123, 30.94312
1222.605, 28.64069
1223.087, 25.62958
1223.569, 22.35577
1224.051, 19.40906
1224.533, 16.45447
1225.016, 12.87640
1225.498, 8.950378
1225.980, 5.336975
1226.462, 2.094238
1226.944, 1.478149
1227.426, 5.943176
1227.908, 6.866943
1228.390, 5.949768
1228.872, 5.505310
1229.354, 7.638611
1229.837, 9.503601
1230.319, 8.054138
1230.801, 5.179749
1231.283, 4.331665
1231.765, 5.422791
1232.247, 6.566467
1232.729, 8.074707
1233.211, 8.616028
1233.694, 7.865662
1234.176, 6.999878
1234.658, 6.356384
1235.140, 5.707031
1235.622, 4.872803
1236.104, 3.958252
1236.586, 3.139526
1237.068, 2.438416
1237.551, 1.889282
1238.033, 1.485107
1238.515, 1.365173
1238.997, 1.258179
1239.479, 0.4342650
1239.961, 3.960327
1240.443, 7.537109
1240.925, 10.01160
1241.407, 12.15369
1241.890, 14.72937
1242.372, 17.29413
1242.854, 19.04205
1243.336, 20.99371
1243.818, 24.61285
1244.300, 29.38751
1244.782, 34.02899
1245.264, 38.35712
1245.746, 42.54657
1246.229, 46.42847
1246.711, 50.41620
1247.193, 54.49463
1247.675, 58.91901
1248.157, 63.56140
1248.639, 68.82654
1249.121, 75.39435
1249.603, 82.33380
1250.085, 87.93872
1250.568, 92.28168
1251.050, 97.08832
1251.532, 102.3016
1252.014, 108.3802
1252.496, 115.3016
1252.978, 121.5344
1253.460, 126.7104
1253.942, 132.0060
1254.425, 138.0585
1254.907, 144.4634
1255.389, 150.7209
1255.871, 156.3872
1256.353, 159.7727
1256.835, 161.9901
1257.317, 164.3773
1257.799, 166.1472
1258.281, 168.3608
1258.764, 169.4335
1259.246, 169.2847
1259.728, 168.8955
1260.210, 168.1644
1260.692, 166.5460
1261.174, 165.2816
1261.656, 165.0535
1262.138, 164.8442
1262.620, 165.6146
1263.103, 166.6562
1263.585, 165.3734
1264.067, 162.2009
1264.549, 160.6395
1265.031, 161.5828
1265.513, 162.2023
1265.995, 162.2902
1266.477, 162.0200
1266.960, 161.5723
1267.442, 160.2307
1267.924, 157.4623
1268.406, 153.9326
1268.888, 150.5975
1269.370, 147.4829
1269.852, 144.8962
1270.334, 142.5576
1270.817, 139.8527
1271.299, 136.5342
1271.781, 131.8485
1272.263, 126.1974
1272.745, 121.4762
1273.227, 118.3812
1273.709, 114.8237
1274.191, 109.1357
1274.673, 103.2545
1275.156, 98.51636
1275.638, 93.63354
1276.120, 87.15601
1276.602, 80.61694
1277.084, 76.48865
1277.566, 73.78430
1278.048, 68.69604
1278.530, 60.87317
1279.012, 54.03955
1279.495, 48.47791
1279.977, 42.57898
1280.459, 36.24756
1280.941, 29.64319
1281.423, 22.78796
1281.905, 16.26917
1282.387, 10.58533
1282.869, 6.032471
1283.352, 1.533325
1283.834, 0.6348880
1284.316, 3.732666
1284.798, 0.0000000E+00
##END=



