##NAMES=Meneghinite
##RRUFFID=R050444
##IDEAL CHEMISTRY=Pb^2+^_13_Cu^1+^Sb^3+^_7_S^2-^_24_
##LOCALITY=Bottino, Tucsany, Italy
##OWNER=RRUFF
##SOURCE=Peter Megaw
##DESCRIPTION=Lead-gray metallic slender prismatic and striated crystal
##STATUS=The identification of this mineral is confirmed by single-crystal X-ray diffraction and chemical analysis.
##URL=rruff.info/R050444
##MEASURED CHEMISTRY=(Pb_12.75_Sb_0.25_)_Σ=13.00_(Cu_0.73_Sb_0.13_Fe_0.01_)_Σ=0.87_Sb_7.00_S_24.00_
120.8990, 0.0000000E+00
121.3812, 0.3619540
121.8633, 5.2124001E-02
122.3454, 0.5197680
122.8275, 2.461227
123.3096, 3.839561
123.7917, 3.110405
124.2739, 0.9639280
124.7560, 0.7466130
125.2381, 0.5200500
125.7202, 0.8690030
126.2023, 2.064117
126.6844, 2.638748
127.1666, 3.069717
127.6487, 4.031654
128.1308, 5.509583
128.6129, 7.164719
129.0950, 8.796173
129.5771, 10.40681
130.0593, 12.03496
130.5414, 13.71129
131.0235, 15.37813
131.5056, 16.71576
131.9877, 17.14803
132.4698, 16.76588
132.9520, 16.30289
133.4341, 15.77710
133.9162, 15.59828
134.3983, 15.99005
134.8804, 16.87494
135.3625, 17.74281
135.8447, 18.61069
136.3268, 19.44449
136.8089, 20.16171
137.2910, 20.72397
137.7731, 21.43069
138.2552, 22.64951
138.7374, 24.55562
139.2195, 25.43698
139.7016, 25.15355
140.1837, 24.02490
140.6658, 22.53880
141.1479, 20.34163
141.6301, 18.55121
142.1122, 17.79520
142.5943, 18.59764
143.0764, 18.94627
143.5585, 18.60806
144.0406, 17.80312
144.5228, 17.28987
145.0049, 17.04065
145.4870, 17.10664
145.9691, 17.60101
146.4512, 19.39307
146.9333, 20.18825
147.4155, 19.36438
147.8976, 17.15727
148.3797, 15.83786
148.8618, 16.02698
149.3439, 16.63968
149.8260, 16.97501
150.3082, 17.13788
150.7903, 16.90494
151.2724, 16.12811
151.7545, 14.79327
152.2366, 13.54062
152.7188, 11.96046
153.2009, 10.67049
153.6830, 10.18393
154.1651, 11.58337
154.6472, 12.76706
155.1293, 13.07411
155.6115, 12.34822
156.0936, 11.95616
156.5757, 12.57199
157.0578, 13.48819
157.5399, 13.92026
158.0220, 13.20204
158.5042, 12.40067
158.9863, 11.89403
159.4684, 11.73767
159.9505, 11.75287
160.4326, 12.00243
160.9147, 12.37476
161.3969, 12.70241
161.8790, 13.00912
162.3611, 13.20114
162.8432, 13.18756
163.3253, 12.87938
163.8074, 12.60295
164.2896, 12.43077
164.7717, 12.39029
165.2538, 12.53922
165.7359, 13.02692
166.2180, 13.63605
166.7001, 14.23462
167.1823, 14.84509
167.6644, 15.31184
168.1465, 15.40933
168.6286, 15.25667
169.1107, 15.19060
169.5928, 15.72549
170.0750, 16.30446
170.5571, 16.29305
171.0392, 15.26955
171.5213, 14.09268
172.0034, 13.34219
172.4855, 13.00970
172.9677, 13.06673
173.4498, 13.76517
173.9319, 14.77438
174.4140, 15.62067
174.8961, 16.14012
175.3782, 16.49808
175.8604, 16.90472
176.3425, 17.34647
176.8246, 17.69432
177.3067, 17.74718
177.7888, 17.64571
178.2709, 17.69621
178.7531, 17.96182
179.2352, 18.29178
179.7173, 17.94023
180.1994, 16.94508
180.6815, 16.15369
181.1636, 16.72742
181.6458, 18.18965
182.1279, 19.06680
182.6100, 18.49416
183.0921, 17.21144
183.5742, 16.62434
184.0563, 16.74333
184.5385, 17.30663
185.0206, 18.29977
185.5027, 19.61461
185.9848, 20.68182
186.4669, 21.29283
186.9490, 21.51511
187.4312, 21.46309
187.9133, 21.09032
188.3954, 20.74460
188.8775, 20.84375
189.3596, 21.35565
189.8417, 22.00818
190.3239, 22.79955
190.8060, 23.67377
191.2881, 24.26442
191.7702, 24.52104
192.2523, 24.67474
192.7344, 24.96683
193.2166, 25.39815
193.6987, 26.01901
194.1808, 27.18338
194.6629, 28.76634
195.1450, 29.09871
195.6271, 27.84789
196.1093, 26.19705
196.5914, 26.02785
197.0735, 27.45702
197.5556, 28.89473
198.0377, 29.54713
198.5198, 29.41109
199.0020, 29.75177
199.4841, 30.74091
199.9662, 31.90010
200.4483, 32.43930
200.9304, 32.28568
201.4125, 31.95277
201.8947, 31.52557
202.3768, 30.95793
202.8589, 30.93951
203.3410, 31.63200
203.8231, 32.66936
204.3052, 33.42624
204.7874, 33.92404
205.2695, 34.08809
205.7516, 33.81831
206.2337, 33.05342
206.7158, 32.25322
207.1979, 31.36436
207.6801, 30.49516
208.1622, 29.93588
208.6443, 29.79202
209.1264, 29.62062
209.6085, 29.10962
210.0906, 28.06926
210.5728, 27.62061
211.0549, 28.00824
211.5370, 28.83458
212.0191, 29.22298
212.5012, 29.14343
212.9833, 28.71535
213.4655, 27.86571
213.9476, 26.33995
214.4297, 25.36072
214.9118, 25.13425
215.3939, 25.37526
215.8760, 25.38353
216.3581, 25.13002
216.8403, 24.70413
217.3224, 24.08035
217.8045, 23.07523
218.2866, 22.46829
218.7687, 22.53552
219.2508, 22.90916
219.7330, 22.50502
220.2151, 20.86217
220.6972, 19.28529
221.1793, 18.43939
221.6614, 18.55984
222.1435, 18.75940
222.6257, 19.07849
223.1078, 19.44734
223.5899, 19.70999
224.0720, 19.97760
224.5541, 19.96115
225.0362, 19.39014
225.5184, 17.72310
226.0005, 16.90768
226.4826, 17.28484
226.9647, 18.45294
227.4468, 19.34048
227.9289, 20.00505
228.4111, 20.30481
228.8932, 20.13358
229.3753, 18.93544
229.8574, 18.33159
230.3395, 18.65906
230.8216, 19.58090
231.3038, 20.08398
231.7859, 19.84816
232.2680, 19.61644
232.7501, 19.73364
233.2322, 20.28549
233.7143, 21.12680
234.1965, 22.40247
234.6786, 23.85071
235.1607, 24.87428
235.6428, 25.40993
236.1249, 25.77615
236.6070, 26.06952
237.0892, 26.25435
237.5713, 26.31639
238.0534, 26.09488
238.5355, 25.76949
239.0176, 25.85733
239.4997, 26.64706
239.9819, 27.37503
240.4640, 27.63855
240.9461, 27.00015
241.4282, 26.97263
241.9103, 27.99977
242.3924, 29.58887
242.8746, 30.43742
243.3567, 30.11137
243.8388, 29.55904
244.3209, 29.16695
244.8030, 28.94490
245.2851, 28.94464
245.7673, 29.25346
246.2494, 29.72142
246.7315, 30.02513
247.2136, 30.06955
247.6957, 30.10445
248.1778, 30.25468
248.6600, 30.63441
249.1421, 30.76807
249.6242, 30.51857
250.1063, 30.09483
250.5884, 29.92282
251.0705, 30.16222
251.5527, 30.37718
252.0348, 30.40285
252.5169, 30.18344
252.9990, 29.95216
253.4811, 29.64839
253.9632, 29.36490
254.4454, 29.27669
254.9275, 29.42523
255.4096, 29.68513
255.8917, 30.06374
256.3738, 30.63225
256.8560, 30.97816
257.3381, 31.04666
257.8202, 30.94086
258.3023, 30.82707
258.7844, 30.77766
259.2665, 30.56711
259.7487, 30.04900
260.2308, 29.14235
260.7129, 28.54556
261.1950, 28.38748
261.6771, 28.39987
262.1592, 28.22025
262.6414, 27.79538
263.1235, 27.31732
263.6056, 26.81990
264.0877, 26.28795
264.5698, 25.87614
265.0519, 25.62448
265.5341, 25.44102
266.0162, 25.23515
266.4983, 25.04001
266.9804, 24.73251
267.4625, 24.28378
267.9446, 23.70039
268.4268, 22.88882
268.9089, 21.70734
269.3910, 20.58511
269.8731, 20.08447
270.3552, 20.44490
270.8373, 20.46109
271.3195, 19.76651
271.8016, 18.44173
272.2837, 17.28174
272.7658, 16.24658
273.2479, 15.42666
273.7300, 15.00254
274.2122, 15.08424
274.6943, 14.87340
275.1764, 14.11496
275.6585, 12.94388
276.1406, 12.09817
276.6227, 11.65279
277.1049, 11.28856
277.5870, 10.73122
278.0691, 9.960869
278.5512, 9.251297
279.0333, 8.689369
279.5154, 8.196274
279.9976, 7.472740
280.4797, 6.473534
280.9618, 5.460625
281.4439, 4.548996
281.9260, 3.743156
282.4081, 3.103378
282.8903, 2.604446
283.3724, 2.309669
283.8545, 2.674599
284.3366, 3.812363
284.8187, 4.404526
285.3008, 3.029282
285.7830, 7.8971997E-02
286.2651, 1.860733
286.7472, 1.819580
287.2293, 0.8124010
287.7114, 0.3327480
288.1935, 0.3767700
288.6757, 0.4816210
289.1578, 0.2542720
289.6399, 0.1805340
290.1220, 8.3939001E-02
290.6041, 0.7092210
291.0862, 1.637276
291.5684, 1.693611
292.0505, 0.9938810
292.5326, 0.6053090
293.0147, 1.324966
293.4968, 2.765160
293.9789, 3.803574
294.4611, 4.377274
294.9432, 4.636314
295.4253, 4.733086
295.9074, 4.662910
296.3895, 4.385506
296.8716, 3.801483
297.3538, 3.007675
297.8359, 2.076721
298.3180, 0.9802020
298.8001, 0.1268460
299.2822, 0.2066570
299.7643, 0.8579710
300.2465, 1.110725
300.7286, 0.2495880
301.2107, 0.9601440
301.6928, 1.382881
302.1749, 1.064568
302.6570, 0.7360230
303.1392, 1.112518
303.6213, 1.844177
304.1034, 2.298111
304.5855, 2.063133
305.0676, 1.822769
305.5497, 2.408279
306.0319, 3.696907
306.5140, 4.967247
306.9961, 5.737221
307.4782, 6.195694
307.9603, 6.520737
308.4424, 6.653015
308.9246, 6.887024
309.4067, 7.628510
309.8888, 8.684425
310.3709, 9.511917
310.8530, 9.492943
311.3351, 9.298470
311.8173, 9.550186
312.2994, 10.47112
312.7815, 11.43790
313.2636, 12.24603
313.7457, 12.83315
314.2278, 13.08586
314.7100, 12.53156
315.1921, 11.91556
315.6742, 11.69498
316.1563, 11.97225
316.6384, 12.38216
317.1205, 12.79317
317.6027, 13.23698
318.0848, 13.75426
318.5669, 14.58103
319.0490, 15.30033
319.5311, 15.67694
320.0132, 15.68467
320.4954, 15.76675
320.9775, 16.21974
321.4596, 16.71774
321.9417, 16.98073
322.4238, 16.50542
322.9059, 16.24096
323.3881, 16.53657
323.8702, 17.34338
324.3523, 17.99070
324.8344, 18.29862
325.3165, 18.47229
325.7986, 18.63459
326.2808, 18.84075
326.7629, 18.99171
327.2450, 19.03507
327.7271, 19.00725
328.2092, 19.05178
328.6913, 19.31271
329.1735, 19.51495
329.6556, 19.54842
330.1377, 19.36217
330.6198, 19.10260
331.1019, 18.68668
331.5840, 18.22314
332.0662, 17.91834
332.5483, 17.90948
333.0304, 17.85554
333.5125, 17.62876
333.9946, 17.16759
334.4767, 16.85803
334.9589, 16.91502
335.4410, 16.91821
335.9231, 16.20383
336.4052, 14.33933
336.8873, 12.94404
337.3694, 12.59030
337.8516, 13.19740
338.3336, 13.32082
338.8158, 12.83580
339.2979, 12.13823
339.7800, 11.53609
340.2621, 11.03719
340.7442, 10.64149
341.2263, 10.37562
341.7085, 10.20969
342.1906, 10.12457
342.6727, 10.15084
343.1548, 10.05511
343.6369, 9.632919
344.1190, 8.834740
344.6012, 7.913376
345.0833, 6.819489
345.5654, 5.848595
346.0475, 5.713638
346.5296, 6.363480
347.0117, 6.990768
347.4939, 7.048294
347.9760, 6.712822
348.4581, 6.646492
348.9402, 6.926750
349.4223, 7.186523
349.9044, 6.990517
350.3866, 6.399681
350.8687, 5.641624
351.3508, 4.590919
351.8329, 3.508583
352.3150, 2.812309
352.7971, 2.512154
353.2793, 2.417755
353.7614, 2.620567
354.2435, 2.896255
354.7256, 2.851425
355.2077, 2.150314
355.6898, 1.395569
356.1720, 1.155281
356.6541, 1.323875
357.1362, 1.457352
357.6183, 1.372917
358.1004, 1.094376
358.5826, 0.6122670
359.0647, 0.2571790
359.5468, 0.9159700
360.0289, 0.9544910
360.5110, 0.5632250
360.9931, 7.0998996E-02
361.4753, 0.7473300
361.9574, 1.326721
362.4395, 1.256226
362.9216, 0.3776930
363.4037, 0.3546220
363.8858, 0.6628570
364.3680, 0.6776730
364.8501, 0.5409850
365.3322, 8.9446999E-02
365.8143, 0.3083650
366.2964, 0.5375140
366.7785, 0.6055450
367.2607, 0.7131810
367.7428, 0.9769740
368.2249, 1.218391
368.7070, 1.327637
369.1891, 1.143364
369.6712, 1.045380
370.1534, 1.124809
370.6355, 1.298912
371.1176, 1.286674
371.5997, 0.8282010
372.0818, 0.5159680
372.5639, 0.6328280
373.0461, 1.378647
373.5282, 1.872360
374.0103, 1.984062
374.4924, 1.969986
374.9745, 2.282104
375.4566, 3.096138
375.9388, 3.681900
376.4209, 3.765778
376.9030, 3.382492
377.3851, 3.105736
377.8672, 2.950989
378.3493, 2.848709
378.8315, 2.688576
379.3136, 2.464180
379.7957, 2.467949
380.2778, 2.858414
380.7599, 3.405365
381.2420, 3.472862
381.7242, 3.061592
382.2063, 2.670013
382.6884, 2.713394
383.1705, 3.055389
383.6526, 3.206627
384.1347, 3.090622
384.6169, 2.884109
385.0990, 2.740501
385.5811, 2.677979
386.0632, 2.768524
386.5453, 3.166611
387.0274, 3.681442
387.5096, 4.084381
387.9917, 4.370605
388.4738, 4.537903
388.9559, 4.552498
389.4380, 4.455284
389.9201, 4.285370
390.4023, 3.924332
390.8844, 3.653099
391.3665, 3.669762
391.8486, 3.932922
392.3307, 4.301361
392.8128, 5.029701
393.2950, 5.625748
393.7771, 5.668358
394.2592, 4.806274
394.7413, 4.155220
395.2234, 4.254410
395.7055, 4.755440
396.1877, 5.115173
396.6698, 5.152367
397.1519, 5.090721
397.6340, 4.968552
398.1161, 4.777855
398.5982, 4.630402
399.0804, 4.593727
399.5625, 4.566589
400.0446, 4.478737
400.5267, 4.312225
401.0088, 4.101990
401.4909, 3.720306
401.9731, 3.287025
402.4552, 3.324989
402.9373, 4.035149
403.4194, 4.889816
403.9015, 5.714310
404.3836, 6.610382
404.8658, 7.060867
405.3479, 7.016693
405.8300, 6.595001
406.3121, 5.708252
406.7942, 4.205574
407.2763, 3.337776
407.7585, 3.764839
408.2406, 5.193024
408.7227, 5.927910
409.2048, 5.906960
409.6869, 5.595154
410.1690, 5.344925
410.6512, 5.160255
411.1333, 5.017937
411.6154, 4.929733
412.0975, 4.868759
412.5796, 4.818825
413.0617, 4.752495
413.5439, 4.590538
414.0260, 4.022804
414.5081, 3.458473
414.9902, 3.618835
415.4723, 4.619865
415.9544, 5.584587
416.4366, 5.819176
416.9187, 5.511185
417.4008, 4.994400
417.8829, 3.979713
418.3650, 3.244728
418.8471, 3.520294
419.3293, 4.616989
419.8114, 5.359520
420.2935, 5.045364
420.7756, 4.282242
421.2577, 3.429611
421.7398, 2.362503
422.2220, 1.644005
422.7041, 1.695404
423.1862, 2.153633
423.6683, 2.322601
424.1504, 1.641960
424.6325, 1.108200
425.1147, 1.008308
425.5968, 1.385452
426.0789, 1.845604
426.5610, 2.546806
427.0431, 3.175125
427.5252, 3.463081
428.0074, 3.301292
428.4895, 3.045830
428.9716, 2.631149
429.4537, 2.167862
429.9358, 2.112000
430.4179, 2.592857
430.9001, 3.092041
431.3822, 3.315857
431.8643, 3.252968
432.3464, 3.206314
432.8285, 3.200073
433.3106, 3.161629
433.7928, 2.970367
434.2749, 2.637901
434.7570, 2.249741
435.2391, 1.715965
435.7212, 1.240746
436.2033, 1.363846
436.6855, 2.024437
437.1676, 2.622864
437.6497, 2.652977
438.1318, 2.379204
438.6139, 2.220497
439.0960, 2.282310
439.5782, 2.296028
440.0603, 1.904633
440.5424, 1.323914
441.0245, 0.9566570
441.5066, 1.107246
441.9887, 1.398636
442.4709, 1.661316
442.9530, 1.884476
443.4351, 2.017479
443.9172, 1.907738
444.3993, 1.782410
444.8814, 1.815193
445.3636, 2.287933
445.8457, 2.574593
446.3278, 2.538887
446.8099, 2.255722
447.2920, 1.904732
447.7741, 1.246765
448.2563, 0.7945630
448.7384, 0.7507100
449.2205, 1.174721
449.7026, 1.556023
450.1847, 1.943939
450.6668, 2.227211
451.1490, 2.279747
451.6311, 2.056145
452.1132, 1.739174
452.5953, 1.237190
453.0774, 0.7450410
453.5595, 0.9416810
454.0417, 1.924492
454.5238, 2.683670
455.0059, 2.432495
455.4880, 1.413315
455.9701, 0.8524020
456.4522, 0.7941280
456.9344, 1.162468
457.4165, 2.298073
457.8986, 3.837715
458.3807, 4.705055
458.8628, 4.317360
459.3449, 3.389099
459.8271, 2.480629
460.3092, 1.664688
460.7913, 1.223801
461.2734, 1.914932
461.7555, 2.692032
462.2376, 2.466202
462.7198, 0.8242420
463.2019, 0.4260710
463.6840, 1.0361000E-02
464.1661, 1.078453
464.6482, 1.667564
465.1303, 0.8773960
465.6125, 0.2363430
466.0946, 0.2286300
466.5767, 0.7384950
467.0588, 1.172913
467.5409, 1.552605
468.0230, 1.844582
468.5052, 2.004112
468.9873, 1.877510
469.4694, 2.038506
469.9515, 2.761650
470.4336, 3.539711
470.9157, 3.570183
471.3979, 2.602913
471.8800, 1.741730
472.3621, 1.263374
472.8442, 1.117226
473.3263, 1.042839
473.8084, 1.037285
474.2906, 1.100166
474.7727, 1.282600
475.2548, 1.547844
475.7369, 1.748009
476.2190, 1.888969
476.7011, 1.869705
477.1833, 1.316147
477.6654, 0.4718780
478.1475, 1.1581000E-02
478.6296, 0.5529480
479.1117, 1.379242
479.5938, 1.782883
480.0760, 1.806221
480.5581, 1.721100
481.0402, 1.598862
481.5223, 1.484741
482.0044, 1.382095
482.4865, 1.219162
482.9687, 1.275780
483.4508, 1.980278
483.9329, 2.878685
484.4150, 3.316460
484.8971, 2.771210
485.3792, 2.182404
485.8614, 1.705185
486.3435, 1.341064
486.8256, 1.135719
487.3077, 1.160339
487.7898, 1.283958
488.2719, 1.404114
488.7541, 1.422089
489.2362, 1.669632
489.7183, 2.366272
490.2004, 3.009232
490.6825, 2.610893
491.1646, 1.019814
491.6468, 2.5780000E-02
492.1289, 0.1491620
492.6110, 1.088577
493.0931, 1.558052
493.5752, 1.560921
494.0573, 1.402153
494.5395, 1.247963
495.0216, 1.097626
495.5037, 0.9131010
495.9858, 0.6681750
496.4679, 0.5365980
496.9500, 0.8615110
497.4322, 1.381180
497.9143, 1.655693
498.3964, 1.202576
498.8785, 0.7326430
499.3606, 0.7752910
499.8427, 1.200195
500.3249, 1.390747
500.8070, 0.6608730
501.2891, 1.1223000E-02
501.7712, 6.2088002E-02
502.2533, 1.246292
502.7354, 2.065147
503.2176, 2.252922
503.6997, 2.096817
504.1818, 1.859673
504.6639, 1.456703
505.1460, 1.128601
505.6281, 0.9216160
506.1103, 0.8094790
506.5924, 0.6751860
507.0745, 0.4706570
507.5566, 0.4179920
508.0387, 0.8099670
508.5208, 1.598801
509.0030, 1.669632
509.4851, 0.9040370
509.9672, 8.7196000E-02
510.4493, 0.1848830
510.9314, 0.9491040
511.4135, 1.536285
511.8957, 1.684845
512.3778, 1.645401
512.8599, 1.740425
513.3420, 1.892387
513.8242, 1.871635
514.3063, 1.258904
514.7884, 0.6780550
515.2705, 0.6534810
515.7526, 1.185341
516.2347, 1.614777
516.7169, 1.567680
517.1990, 1.370628
517.6811, 1.279724
518.1632, 1.673035
518.6453, 1.713150
519.1274, 1.025063
519.6096, 1.8745000E-02
520.0917, 0.7503510
520.5738, 1.174774
521.0559, 1.274040
521.5380, 0.8565900
522.0201, 2.0752000E-02
522.5023, 0.2346650
522.9844, 0.4738460
523.4665, 1.112877
523.9486, 0.7295070
524.4307, 0.6050030
524.9128, 1.189629
525.3950, 0.7500230
525.8771, 2.6680000E-02
526.3592, 3.5698000E-02
526.8413, 0.6044770
527.3234, 1.099777
527.8055, 1.195091
528.2877, 1.189262
528.7698, 1.505028
529.2519, 2.051422
529.7340, 2.454086
530.2161, 2.455360
530.6982, 2.287430
531.1804, 1.962898
531.6625, 1.363365
532.1446, 1.200058
532.6267, 2.337326
533.1088, 3.718094
533.5909, 4.350891
534.0731, 3.466789
534.5552, 2.621239
535.0373, 1.802971
535.5194, 1.117844
536.0015, 0.8508070
536.4836, 1.267921
536.9658, 1.564148
537.4479, 1.346718
537.9300, 0.6576690
538.4121, 0.5409850
538.8942, 1.105782
539.3763, 1.787125
539.8585, 2.107063
540.3406, 2.119324
540.8227, 2.160065
541.3048, 2.302605
541.7869, 2.367561
542.2690, 2.053360
542.7512, 1.482498
543.2333, 0.9626390
543.7154, 0.6657180
544.1975, 0.4352570
544.6796, 2.4010001E-02
545.1617, 0.4771500
545.6439, 0.6502530
546.1260, 8.3022997E-02
546.6081, 0.9072490
547.0902, 1.368523
547.5723, 1.357300
548.0544, 1.148125
548.5366, 0.3801190
549.0187, 0.3003460
549.5008, 0.2899320
549.9829, 1.051071
550.4650, 1.901932
550.9471, 1.909897
551.4293, 1.448647
551.9114, 1.474014
552.3935, 2.130699
552.8756, 2.566833
553.3577, 2.352921
553.8398, 1.656700
554.3220, 1.234993
554.8041, 1.091621
555.2862, 1.106606
555.7683, 1.259583
556.2504, 1.488045
556.7325, 1.692131
557.2147, 1.874748
557.6968, 1.941971
558.1789, 1.714752
558.6610, 1.345314
559.1431, 1.075607
559.6252, 0.8896030
560.1074, 0.8960040
560.5895, 1.455421
561.0716, 2.357681
561.5537, 2.777649
562.0358, 2.074104
562.5179, 1.324814
563.0001, 0.8633420
563.4822, 0.6934280
563.9643, 0.8309780
564.4464, 1.528625
564.9285, 2.155884
565.4106, 2.211113
565.8928, 1.590469
566.3749, 1.175186
566.8570, 1.070091
567.3391, 1.097084
567.8212, 0.8835600
568.3033, 0.4945980
568.7855, 0.4516600
569.2676, 1.188202
569.7497, 2.102325
570.2318, 2.294235
570.7139, 1.861450
571.1960, 1.246132
571.6782, 0.3402250
572.1603, 0.3911820
572.6424, 0.4337460
573.1245, 0.2984090
573.6066, 0.9548110
574.0887, 1.160568
574.5709, 1.193695
575.0530, 1.279617
575.5351, 1.664536
576.0172, 1.778343
576.4993, 1.407814
576.9814, 0.8541260
577.4636, 0.6405330
577.9457, 0.9127270
578.4278, 1.045715
578.9099, 0.8497920
579.3920, 0.4711300
579.8741, 0.3688200
580.3563, 0.5273900
580.8384, 0.7280500
581.3205, 0.8772200
581.8026, 0.9988940
582.2847, 1.027313
582.7668, 0.9330060
583.2490, 0.8655010
583.7311, 0.9253010
584.2132, 1.094559
584.6953, 1.392487
585.1774, 1.938347
585.6595, 2.326096
586.1416, 2.354561
586.6237, 2.088562
587.1058, 1.627975
587.5880, 0.5349730
588.0701, 0.2444380
588.5522, 0.3814090
589.0343, 1.3810000E-03
589.5164, 0.3824840
589.9985, 0.8118740
590.4807, 1.152184
590.9628, 1.291206
591.4449, 1.218910
591.9270, 1.459846
592.4091, 2.105667
592.8912, 2.669365
593.3734, 2.594162
593.8555, 2.021843
594.3376, 1.639824
594.8197, 1.572495
595.3018, 1.590889
595.7839, 1.429535
596.2661, 1.177132
596.7482, 1.004646
597.2303, 0.9972310
597.7124, 1.070198
598.1945, 1.190544
598.6766, 1.354340
599.1588, 1.548798
599.6409, 1.993546
600.1230, 2.258110
600.6051, 2.053741
601.0872, 1.338089
601.5693, 0.9562910
602.0515, 1.127762
602.5336, 1.334312
603.0157, 1.210320
603.4978, 0.6934050
603.9799, 0.2863160
604.4620, 9.5146000E-02
604.9442, 0.2242660
605.4263, 0.4672090
605.9084, 1.791855
606.3905, 2.562172
606.8726, 2.348129
607.3547, 1.759758
607.8369, 1.444801
608.3190, 1.338722
608.8011, 1.312248
609.2832, 1.283920
609.7653, 1.334602
610.2474, 1.661995
610.7296, 2.199173
611.2117, 2.438217
611.6938, 1.628502
612.1759, 0.8673860
612.6580, 0.8864140
613.1401, 2.008278
613.6223, 2.503654
614.1044, 2.105652
614.5865, 1.439842
615.0686, 1.123795
615.5507, 1.136581
616.0328, 0.8163380
616.5150, 7.5020000E-02
616.9971, 0.8873670
617.4792, 0.2962950
617.9613, 1.354630
618.4434, 2.440773
618.9255, 2.176308
619.4077, 1.385994
619.8898, 0.9070510
620.3719, 0.6767500
620.8540, 0.4867780
621.3361, 3.8947999E-02
621.8182, 0.2276000
622.3004, 9.5261000E-02
622.7825, 1.007233
623.2646, 1.614418
623.7467, 1.499428
624.2288, 1.231941
624.7109, 1.086380
625.1931, 1.094398
625.6752, 1.123741
626.1573, 1.191170
626.6394, 1.237152
627.1215, 1.167061
627.6036, 0.9747540
628.0858, 0.8717190
628.5679, 0.8894580
629.0500, 1.008553
629.5321, 1.273766
630.0142, 1.594322
630.4963, 1.804405
630.9785, 1.869644
631.4606, 1.798538
631.9427, 1.530602
632.4248, 1.138504
632.9069, 0.8535920
633.3890, 0.7496570
633.8712, 0.7990650
634.3533, 1.066566
634.8354, 1.575676
635.3175, 1.903946
635.7996, 2.013153
636.2817, 1.975342
636.7639, 1.817802
637.2460, 1.515205
637.7281, 1.104958
638.2102, 0.4876940
638.6923, 4.5235001E-02
639.1744, 0.3540650
639.6566, 1.272957
640.1387, 1.994301
640.6208, 2.355705
641.1029, 2.481194
641.5850, 2.425331
642.0671, 2.244194
642.5493, 2.044189
643.0314, 1.795280
643.5135, 1.612221
643.9956, 1.645035
644.4777, 1.805374
644.9598, 1.815727
645.4420, 1.420570
645.9241, 1.044777
646.4062, 0.8524250
646.8883, 0.8675230
647.3704, 0.8444140
647.8525, 0.7070770
648.3347, 0.6800380
648.8168, 0.9893040
649.2989, 1.620026
649.7810, 1.944832
650.2631, 1.945854
650.7452, 1.763802
651.2274, 1.356171
651.7095, 0.8937070
652.1916, 0.7782970
652.6737, 1.166199
653.1558, 1.586761
653.6379, 1.630447
654.1201, 1.522789
654.6022, 1.561607
655.0843, 2.157425
655.5664, 2.565376
656.0485, 2.370445
656.5306, 1.840202
657.0128, 1.626060
657.4949, 1.936005
657.9770, 2.170563
658.4591, 2.156334
658.9412, 1.957970
659.4233, 1.852966
659.9055, 1.846329
660.3876, 1.888123
660.8697, 1.985840
661.3518, 2.105072
661.8339, 2.106171
662.3160, 1.995544
662.7982, 1.997749
663.2803, 2.610733
663.7624, 3.246559
664.2445, 3.209213
664.7266, 2.260269
665.2087, 1.605125
665.6909, 2.072456
666.1730, 2.751198
666.6551, 2.860580
667.1372, 2.032867
667.6193, 1.208633
668.1014, 0.2274630
668.5836, 0.5725560
669.0657, 0.6335750
669.5478, 0.1053390
670.0299, 0.9400330
670.5120, 1.885612
670.9941, 2.580696
671.4763, 1.972816
671.9584, 0.4459840
672.4405, 0.5192720
672.9226, 0.2449570
673.4047, 1.432518
673.8868, 1.939270
674.3690, 1.890610
674.8511, 1.783318
675.3332, 1.858437
675.8153, 2.048515
676.2974, 2.338753
676.7795, 2.734695
677.2617, 3.005058
677.7438, 3.123344
678.2259, 3.157341
678.7080, 3.170822
679.1901, 3.163872
679.6722, 2.831436
680.1544, 2.146034
680.6365, 1.514297
681.1186, 1.470535
681.6007, 1.754478
682.0828, 1.590034
682.5649, 0.7709120
683.0471, 8.2649000E-02
683.5292, 0.4394230
684.0113, 1.205711
684.4934, 1.599739
684.9755, 1.089424
685.4576, 0.6980740
685.9398, 0.7407230
686.4219, 1.040611
686.9040, 1.309906
687.3861, 1.618843
687.8682, 1.722412
688.3503, 1.444008
688.8325, 1.038757
689.3146, 1.351440
689.7967, 2.398224
690.2788, 3.062851
690.7609, 2.720207
691.2430, 1.881744
691.7252, 1.472519
692.2073, 1.404213
692.6894, 1.290169
693.1715, 0.7670360
693.6536, 0.2275010
694.1357, 7.6789998E-02
694.6179, 0.1340790
695.1000, 1.9347999E-02
695.5821, 0.4849780
696.0642, 0.9414060
696.5463, 1.125725
697.0284, 1.010780
697.5106, 0.9470370
697.9927, 0.9737550
698.4748, 0.9509280
698.9569, 0.6671520
699.4390, 0.1830830
699.9211, 7.7262998E-02
700.4033, 0.4318700
700.8854, 0.8448720
701.3675, 0.8378910
701.8496, 0.6438750
702.3317, 0.6222000
702.8138, 0.8617550
703.2960, 1.271011
703.7781, 2.057198
704.2602, 2.889366
704.7423, 3.363281
705.2244, 3.021095
705.7065, 2.822914
706.1887, 2.936409
706.6708, 3.169395
707.1529, 3.149788
707.6350, 2.836052
708.1171, 2.511551
708.5992, 2.251213
709.0814, 2.018875
709.5635, 1.687439
710.0456, 1.292656
710.5277, 1.012268
711.0098, 1.139664
711.4919, 1.256699
711.9741, 0.8442460
712.4562, 6.6459998E-02
712.9383, 0.4312130
713.4204, 0.2423780
713.9025, 0.1129000
714.3846, 0.4929500
714.8668, 0.8560940
715.3489, 1.102066
715.8310, 1.148254
716.3131, 1.282883
716.7952, 1.817406
717.2773, 2.678444
717.7595, 2.756943
718.2416, 2.015083
718.7237, 1.147636
719.2058, 0.4975360
719.6879, 3.0471999E-02
720.1700, 6.9816999E-02
720.6522, 0.6839140
721.1343, 1.248642
721.6164, 1.473129
722.0985, 1.452354
722.5806, 1.216263
723.0627, 0.5159450
723.5449, 0.2200700
724.0270, 0.6683580
724.5091, 1.239639
724.9912, 1.299133
725.4733, 0.7161180
725.9554, 0.4050370
726.4376, 0.4390260
726.9197, 0.6472550
727.4018, 0.8767090
727.8839, 1.059692
728.3660, 1.037376
728.8481, 0.6127850
729.3303, 0.3546300
729.8124, 1.138298
730.2945, 2.262817
730.7766, 2.795181
731.2587, 1.655060
731.7408, 0.7240370
732.2230, 0.4877550
732.7051, 0.7133790
733.1872, 1.051254
733.6693, 1.610909
734.1514, 1.914299
734.6335, 1.697762
735.1157, 1.296516
735.5978, 1.854095
736.0799, 3.209435
736.5620, 3.988464
737.0441, 3.092873
737.5262, 1.664642
738.0084, 0.9069980
738.4905, 0.7103420
738.9726, 0.7014470
739.4547, 0.7846830
739.9368, 0.9577030
740.4189, 1.308838
740.9011, 1.808319
741.3832, 2.055412
741.8653, 1.965614
742.3474, 1.765259
742.8295, 1.477684
743.3116, 1.139984
743.7938, 1.175789
744.2759, 1.599976
744.7580, 1.892998
745.2401, 1.568924
745.7222, 0.9403080
746.2043, 0.3751450
746.6865, 9.3718998E-02
747.1686, 0.2362520
747.6507, 0.3510440
748.1328, 1.094475
748.6149, 1.630142
749.0970, 1.878662
749.5792, 2.071716
750.0613, 2.291817
750.5434, 2.369148
751.0255, 2.117538
751.5076, 1.486435
751.9897, 1.163193
752.4719, 1.204079
752.9540, 1.343910
753.4361, 1.199829
753.9182, 0.8838810
754.4003, 0.5330580
754.8824, 0.1313020
755.3646, 4.3489998E-03
755.8467, 0.6423190
756.3288, 1.509026
756.8109, 2.098709
757.2930, 2.302826
757.7751, 2.280121
758.2573, 1.938187
758.7394, 1.488144
759.2215, 1.081833
759.7036, 0.6854480
760.1857, 0.5894320
760.6678, 0.8657460
761.1500, 1.284744
761.6321, 1.692406
762.1142, 2.001930
762.5963, 1.931229
763.0784, 1.249420
763.5605, 0.6390610
764.0427, 0.5671840
764.5248, 0.8541950
765.0069, 1.275337
765.4890, 2.234619
765.9711, 2.701614
766.4532, 2.431702
766.9354, 1.776344
767.4175, 1.120781
767.8996, 0.3756410
768.3817, 0.3177570
768.8638, 1.293861
769.3459, 2.511055
769.8281, 2.666405
770.3102, 2.004372
770.7923, 1.180649
771.2744, 0.2349320
771.7565, 0.3833850
772.2386, 0.1737980
772.7208, 0.5038990
773.2029, 1.025841
773.6850, 1.135841
774.1671, 1.231995
774.6492, 1.533104
775.1313, 1.777534
775.6135, 1.144333
776.0956, 0.6047670
776.5777, 1.372490
777.0598, 0.2396240
777.5419, 1.615250
778.0240, 2.100113
778.5062, 1.537804
778.9883, 0.9201810
779.4704, 0.5536420
779.9525, 0.4199450
780.4346, 0.6924440
780.9167, 1.188202
781.3989, 1.458923
781.8810, 1.177284
782.3631, 0.9559100
782.8452, 0.9113690
783.3273, 0.9971690
783.8094, 1.088463
784.2916, 1.189217
784.7737, 1.269371
785.2558, 1.297852
785.7379, 1.332504
786.2200, 1.476326
786.7021, 1.701454
787.1843, 1.873680
787.6664, 1.985649
788.1485, 1.978149
788.6306, 1.631248
789.1127, 1.101746
789.5948, 1.012535
790.0770, 1.955101
790.5591, 2.574944
791.0412, 2.376312
791.5233, 1.658989
792.0054, 1.453743
792.4875, 1.775223
792.9697, 1.941460
793.4518, 1.485184
793.9339, 0.8429490
794.4160, 0.7383190
794.8981, 1.051910
795.3802, 1.387192
795.8624, 1.731537
796.3445, 1.878891
796.8266, 1.581383
797.3087, 0.9562300
797.7908, 0.6120380
798.2729, 0.7491840
798.7551, 0.7985150
799.2372, 0.5160520
799.7193, 5.7541002E-02
800.2014, 7.9154998E-02
800.6835, 0.5411680
801.1656, 0.8783870
801.6478, 0.5420070
802.1299, 0.1276930
802.6120, 0.5619510
803.0941, 1.541710
803.5762, 2.104652
804.0583, 1.241241
804.5405, 0.5136950
805.0226, 0.7003250
805.5047, 1.563522
805.9868, 2.073853
806.4689, 2.150925
806.9510, 2.102509
807.4332, 2.015167
807.9153, 1.885841
808.3974, 1.753494
808.8795, 1.593376
809.3616, 1.261307
809.8438, 0.1864620
810.3259, 0.6650620
810.8080, 0.2184220
811.2901, 1.145355
811.7722, 2.175323
812.2543, 2.491409
812.7365, 2.458855
813.2186, 1.973419
813.7007, 1.243629
814.1828, 1.097931
814.6649, 1.620201
815.1470, 2.046394
815.6292, 2.045135
816.1113, 1.825714
816.5934, 1.822662
817.0755, 1.944244
817.5576, 1.888794
818.0397, 1.203308
818.5219, 0.6128160
819.0040, 0.5596310
819.4861, 0.9061660
819.9682, 1.206696
820.4503, 1.546677
820.9324, 1.609306
821.4146, 1.174202
821.8967, 0.5384750
822.3788, 0.5673450
822.8609, 1.215851
823.3430, 1.794312
823.8251, 2.038750
824.3073, 2.102791
824.7894, 2.146187
825.2715, 2.155357
825.7536, 2.103188
826.2357, 1.931023
826.7178, 1.750870
827.2000, 1.519150
827.6821, 1.321075
828.1642, 1.380211
828.6463, 1.805519
829.1284, 2.041084
829.6105, 1.958878
830.0927, 1.690041
830.5748, 1.276375
831.0569, 0.7925870
831.5390, 0.5419920
832.0211, 0.7566680
832.5032, 1.015671
832.9854, 0.9490810
833.4675, 0.7530590
833.9496, 0.6898500
834.4317, 1.004341
834.9138, 1.292557
835.3959, 1.432541
835.8781, 1.488724
836.3602, 1.588387
836.8423, 1.729614
837.3244, 1.813873
837.8065, 1.815109
838.2886, 1.776764
838.7708, 1.719521
839.2529, 1.665680
839.7350, 1.666588
840.2171, 1.820030
840.6992, 1.855980
841.1813, 1.668228
841.6635, 1.326073
842.1456, 0.8475190
842.6277, 3.9032001E-02
843.1098, 0.2530210
843.5919, 0.1101380
844.0740, 0.7438810
844.5562, 1.291084
845.0383, 1.731293
845.5204, 2.036514
846.0025, 2.229561
846.4846, 2.090546
846.9667, 0.8386080
847.4489, 0.4541700
847.9310, 0.6436770
848.4131, 1.107391
848.8952, 2.075829
849.3773, 1.835609
849.8594, 1.322060
850.3416, 1.330902
850.8237, 1.797173
851.3058, 1.666023
851.7879, 0.8567660
852.2700, 0.1106410
852.7521, 0.1215740
853.2343, 0.4906160
853.7164, 0.7312470
854.1985, 0.7883610
854.6806, 0.9978710
855.1627, 2.013039
855.6448, 2.693527
856.1270, 2.281342
856.6091, 0.7365490
857.0912, 0.1228870
857.5733, 0.5824200
858.0554, 1.197380
858.5375, 1.334908
859.0197, 1.229454
859.5018, 1.474564
859.9839, 2.003448
860.4660, 2.391754
860.9481, 2.332855
861.4302, 2.137047
861.9124, 1.852119
862.3945, 1.533669
862.8766, 1.624825
863.3587, 2.452972
863.8408, 2.893059
864.3229, 2.371391
864.8051, 1.312958
865.2872, 1.111519
865.7693, 1.619720
866.2514, 1.982651
866.7335, 1.666779
867.2156, 1.220474
867.6978, 0.8150860
868.1799, 0.3960040
868.6620, 0.2222980
869.1441, 0.3414690
869.6262, 0.6857680
870.1083, 1.465767
870.5905, 2.304100
871.0726, 2.269684
871.5547, 1.394409
872.0368, 0.9546200
872.5189, 1.379784
873.0010, 2.031273
873.4832, 2.166260
873.9653, 2.029411
874.4474, 2.042282
874.9295, 2.596107
875.4116, 2.832031
875.8937, 2.248306
876.3759, 1.455513
876.8580, 1.004440
877.3401, 0.9299320
877.8222, 1.055389
878.3043, 1.419258
878.7864, 1.775169
879.2686, 1.848297
879.7507, 1.734138
880.2328, 1.557411
880.7149, 1.316978
881.1970, 1.220879
881.6791, 1.681335
882.1613, 2.081871
882.6434, 1.897919
883.1255, 1.005447
883.6076, 0.5399480
884.0897, 0.6271360
884.5718, 0.7381130
885.0540, 0.3871460
885.5361, 0.2102810
886.0182, 0.2741390
886.5003, 0.1333850
886.9824, 0.4903340
887.4645, 0.3089750
887.9467, 0.1291960
888.4288, 0.3536530
888.9109, 0.9455640
889.3930, 1.352333
889.8751, 1.487740
890.3572, 1.588295
890.8394, 1.726006
891.3215, 1.877777
891.8036, 2.016983
892.2857, 2.119781
892.7678, 2.051033
893.2499, 1.589325
893.7321, 1.133507
894.2142, 1.004623
894.6963, 1.087379
895.1784, 1.162231
895.6605, 1.178589
896.1426, 1.190430
896.6248, 1.147415
897.1069, 1.168091
897.5890, 1.524132
898.0711, 2.166962
898.5532, 2.600021
899.0353, 2.738716
899.5175, 2.643105
899.9996, 2.168663
900.4817, 1.590645
900.9638, 1.221451
901.4459, 1.150436
901.9280, 1.262177
902.4102, 1.708672
902.8923, 2.122162
903.3744, 2.196983
903.8565, 1.923767
904.3386, 1.896950
904.8207, 2.130875
905.3029, 2.229362
905.7850, 1.828499
906.2671, 1.242050
906.7492, 0.5775530
907.2313, 0.1092150
907.7134, 0.3860780
908.1956, 0.3602980
908.6777, 1.005135
909.1598, 1.173584
909.6419, 0.9436870
910.1240, 0.6318970
910.6061, 0.2358320
911.0883, 4.1809000E-02
911.5704, 0.1911390
912.0525, 7.7979997E-02
912.5346, 0.8858640
913.0167, 2.204666
913.4988, 2.802834
913.9810, 1.491547
914.4631, 0.4467470
914.9452, 0.2238080
915.4273, 0.4122770
915.9094, 0.4174500
916.3915, 0.2111360
916.8737, 0.2391200
917.3558, 0.6094510
917.8379, 1.014595
918.3200, 1.051910
918.8021, 0.9194030
919.2842, 0.9354170
919.7664, 1.214279
920.2485, 1.382736
920.7306, 1.064163
921.2127, 0.8422470
921.6948, 1.138062
922.1769, 2.013618
922.6591, 2.574440
923.1412, 2.840324
923.6233, 2.578629
924.1054, 0.8699650
924.5875, 1.030670
925.0696, 1.061081
925.5518, 0.4886090
926.0339, 1.783104
926.5160, 1.944618
926.9981, 1.876266
927.4802, 1.874207
927.9623, 1.882866
928.4445, 1.705353
928.9266, 1.272888
929.4087, 1.021355
929.8908, 1.162117
930.3729, 1.394363
930.8550, 1.240631
931.3372, 0.8965230
931.8193, 0.7257080
932.3014, 1.035004
932.7835, 1.193634
933.2656, 0.9290470
933.7477, 0.5502550
934.2299, 0.2836760
934.7120, 0.1159970
935.1941, 0.3187480
935.6762, 0.9595570
936.1583, 1.495033
936.6404, 1.160179
937.1226, 0.5478520
937.6047, 0.5309980
938.0868, 1.186470
938.5689, 1.676178
939.0510, 1.520653
939.5331, 1.369690
940.0153, 1.519394
940.4974, 1.899071
940.9795, 1.976128
941.4616, 1.744667
941.9437, 1.594963
942.4258, 1.824333
942.9080, 2.094429
943.3901, 1.924355
943.8722, 1.484970
944.3543, 1.144661
944.8364, 1.046913
945.3185, 0.9832840
945.8007, 0.9727710
946.2828, 0.9368360
946.7649, 0.6608120
947.2470, 0.1611860
947.7291, 0.1636200
948.2112, 0.8293080
948.6934, 1.516876
949.1755, 1.523117
949.6576, 1.276985
950.1397, 1.263458
950.6218, 1.592751
951.1039, 1.882065
951.5861, 2.128899
952.0682, 2.258461
952.5503, 2.186340
953.0324, 1.954971
953.5145, 1.870201
953.9966, 1.919914
954.4788, 1.949532
954.9609, 1.816299
955.4430, 1.677620
955.9251, 1.596306
956.4072, 1.610367
956.8893, 1.843178
957.3715, 2.676117
957.8536, 3.062866
958.3357, 2.762291
958.8178, 2.119995
959.2999, 1.606758
959.7820, 1.217911
960.2642, 0.8930820
960.7463, 0.5749440
961.2284, 0.5889660
961.7105, 1.669121
962.1926, 2.832588
962.6747, 3.138603
963.1569, 2.308273
963.6390, 1.571968
964.1211, 0.8526230
964.6032, 0.4250870
965.0853, 0.6504210
965.5674, 1.233276
966.0496, 1.349068
966.5317, 1.059151
967.0138, 0.7766950
967.4959, 0.5120320
967.9780, 0.5300980
968.4601, 1.340294
968.9423, 2.450165
969.4244, 2.665924
969.9065, 1.747978
970.3886, 1.017296
970.8707, 0.6549070
971.3528, 0.6413570
971.8350, 1.178329
972.3171, 1.973091
972.7992, 2.507629
973.2813, 2.664848
973.7634, 2.658882
974.2455, 2.422745
974.7277, 2.178886
975.2098, 2.116234
975.6919, 2.240814
976.1740, 1.982506
976.6561, 1.322632
977.1382, 0.6806790
977.6204, 0.2428130
978.1025, 1.1581000E-02
978.5846, 5.5236999E-02
979.0667, 8.0596998E-02
979.5488, 0.5373080
980.0309, 2.037422
980.5131, 2.913910
980.9952, 2.640488
981.4773, 1.855728
981.9594, 1.635979
982.4415, 1.828812
982.9236, 1.751801
983.4058, 1.309898
983.8879, 0.8124390
984.3700, 0.6545560
984.8521, 0.5441820
985.3342, 0.1138310
985.8163, 0.8340070
986.2985, 1.193886
986.7806, 0.7663960
987.2627, 0.1849820
987.7448, 0.2667620
988.2269, 0.6085970
988.7090, 0.9114610
989.1912, 1.162224
989.6733, 1.301949
990.1554, 1.260628
990.6375, 1.147629
991.1196, 0.8153920
991.6017, 0.5386120
992.0839, 0.8388370
992.5660, 1.907288
993.0481, 2.473740
993.5302, 2.322571
994.0123, 1.911644
994.4944, 1.742958
994.9766, 1.667336
995.4587, 1.395035
995.9408, 0.8689420
996.4229, 0.5458760
996.9050, 0.6706470
997.3871, 0.9507140
997.8693, 1.341843
998.3514, 1.787872
998.8335, 1.878929
999.3156, 1.635452
999.7977, 1.404526
1000.280, 1.323425
1000.762, 1.347870
1001.244, 1.441483
1001.726, 1.614639
1002.208, 1.889969
1002.690, 2.435432
1003.173, 2.817032
1003.655, 3.047661
1004.137, 3.060478
1004.619, 2.627724
1005.101, 1.913315
1005.583, 1.565605
1006.065, 1.606689
1006.547, 1.659828
1007.029, 1.533707
1007.512, 1.320496
1007.994, 1.006615
1008.476, 0.6374360
1008.958, 0.3721310
1009.440, 0.1698380
1009.922, 0.3819270
1010.404, 1.276505
1010.886, 2.276268
1011.369, 2.548897
1011.851, 2.375969
1012.333, 2.251869
1012.815, 2.413017
1013.297, 2.342339
1013.779, 1.713402
1014.261, 1.123550
1014.743, 1.006508
1015.225, 1.340034
1015.708, 1.842819
1016.190, 2.482811
1016.672, 2.719574
1017.154, 1.765007
1017.636, 0.6782610
1018.118, 6.9885001E-02
1018.600, 4.1717999E-02
1019.082, 0.3751530
1019.565, 1.694603
1020.047, 2.466949
1020.529, 2.353401
1021.011, 1.884491
1021.493, 1.686234
1021.975, 1.708839
1022.457, 1.919205
1022.939, 2.352455
1023.421, 2.606163
1023.904, 2.236877
1024.386, 1.913879
1024.868, 2.069656
1025.350, 2.616989
1025.832, 2.682961
1026.314, 2.280762
1026.796, 1.807686
1027.278, 1.323090
1027.760, 1.069466
1028.243, 1.718643
1028.725, 2.688553
1029.207, 2.918602
1029.689, 1.366760
1030.171, 0.4975360
1030.653, 0.4691090
1031.135, 0.8952410
1031.617, 1.745316
1032.100, 2.737556
1032.582, 2.935776
1033.064, 2.374863
1033.546, 1.792542
1034.028, 1.540154
1034.510, 1.435211
1034.992, 1.406487
1035.474, 1.446472
1035.957, 1.649696
1036.439, 2.056610
1036.921, 1.917137
1037.403, 0.8427810
1037.885, 0.1165770
1038.367, 0.6478960
1038.849, 2.025238
1039.331, 2.541893
1039.813, 1.667480
1040.296, 1.159798
1040.778, 1.195999
1041.260, 1.463730
1041.742, 1.912460
1042.224, 2.419571
1042.706, 2.494278
1043.188, 2.223656
1043.670, 1.904877
1044.152, 1.723595
1044.635, 1.632843
1045.117, 1.669952
1045.599, 1.730995
1046.081, 1.666443
1046.563, 1.443336
1047.045, 1.436539
1047.527, 1.706985
1048.009, 1.783638
1048.492, 0.8528520
1048.974, 0.2121510
1049.456, 0.3888170
1049.938, 0.2802960
1050.420, 0.8611070
1050.902, 1.343422
1051.384, 1.520630
1051.866, 1.227646
1052.349, 0.7785340
1052.831, 0.7958370
1053.313, 1.149567
1053.795, 1.505852
1054.277, 1.803436
1054.759, 2.002274
1055.241, 2.005524
1055.723, 1.968758
1056.205, 2.024277
1056.688, 2.164474
1057.170, 2.063202
1057.652, 1.719505
1058.134, 1.386078
1058.616, 1.227036
1059.098, 1.100197
1059.580, 0.7502290
1060.062, 0.3673930
1060.544, 0.3326260
1061.027, 0.9451520
1061.509, 1.391434
1061.991, 1.620605
1062.473, 1.737717
1062.955, 1.921814
1063.437, 2.042259
1063.919, 1.655106
1064.401, 0.8270110
1064.884, 0.2717360
1065.366, 0.2852020
1065.848, 0.7069700
1066.330, 1.733795
1066.812, 2.915909
1067.294, 3.127953
1067.776, 2.468552
1068.258, 2.000320
1068.740, 1.985497
1069.223, 1.954369
1069.705, 1.309372
1070.187, 0.6466980
1070.669, 0.5341640
1071.151, 1.021294
1071.633, 1.497704
1072.115, 2.002762
1072.597, 2.312637
1073.079, 2.262405
1073.562, 2.051628
1074.044, 1.915558
1074.526, 1.859001
1075.008, 1.897110
1075.490, 2.174538
1075.972, 2.284996
1076.454, 2.153366
1076.936, 1.937347
1077.419, 1.686157
1077.901, 1.434441
1078.383, 1.352081
1078.865, 1.426277
1079.347, 1.559769
1079.829, 1.913719
1080.311, 2.076363
1080.793, 1.741989
1081.275, 1.145615
1081.758, 0.5507430
1082.240, 6.9931000E-02
1082.722, 0.1361620
1083.204, 0.4930570
1083.686, 0.9896700
1084.168, 0.2017590
1084.650, 0.7414700
1085.132, 0.6296460
1085.615, 0.5645140
1086.097, 1.262947
1086.579, 1.368782
1087.061, 1.103783
1087.543, 0.3830410
1088.025, 0.3517380
1088.507, 0.1773760
1088.989, 0.4417950
1089.471, 0.6054150
1089.953, 8.8013001E-02
1090.436, 0.4848480
1090.918, 0.2908330
1091.400, 0.2066040
1091.882, 1.061615
1092.364, 2.073151
1092.846, 2.197937
1093.328, 1.589828
1093.810, 0.9819030
1094.293, 0.5520250
1094.775, 0.4118960
1095.257, 0.8824010
1095.739, 1.479271
1096.221, 1.717804
1096.703, 1.532974
1097.185, 1.364357
1097.667, 1.216217
1098.150, 1.178459
1098.632, 1.432320
1099.114, 1.724724
1099.596, 1.864754
1100.078, 1.861313
1100.560, 1.746391
1101.042, 1.430435
1101.524, 1.339485
1102.006, 1.575775
1102.489, 1.818405
1102.971, 1.505753
1103.453, 1.046783
1103.935, 1.266388
1104.417, 2.201828
1104.899, 2.570267
1105.381, 1.625679
1105.863, 0.7056660
1106.345, 6.7351997E-02
1106.828, 0.2512970
1107.310, 5.0551999E-02
1107.792, 0.8181230
1108.274, 1.474808
1108.756, 1.947433
1109.238, 2.075470
1109.720, 1.317741
1110.202, 0.6566540
1110.685, 0.7230680
1111.167, 1.391151
1111.649, 1.792732
1112.131, 1.923882
1112.613, 1.699677
1113.095, 0.7726060
1113.577, 2.4405999E-02
1114.059, 0.3253710
1114.542, 1.028580
1115.024, 1.334457
1115.506, 1.093681
1115.988, 1.208855
1116.470, 1.735855
1116.952, 2.053337
1117.434, 1.477364
1117.916, 0.6901090
1118.398, 0.4004060
1118.880, 0.4913330
1119.363, 0.6817700
1119.845, 1.028107
1120.327, 1.249954
1120.809, 1.310547
1121.291, 1.299179
1121.773, 1.325188
1122.255, 1.330238
1122.737, 1.124466
1123.220, 0.7575150
1123.702, 0.5961610
1124.184, 0.8957750
1124.666, 1.270645
1125.148, 1.742210
1125.630, 2.129539
1126.112, 2.106201
1126.594, 1.760635
1127.077, 1.265358
1127.559, 0.6296460
1128.041, 0.2798080
1128.523, 0.6282880
1129.005, 1.099091
1129.487, 1.520767
1129.969, 1.863655
1130.451, 1.858299
1130.933, 1.577965
1131.416, 1.442482
1131.898, 1.582512
1132.380, 1.780701
1132.862, 2.098183
1133.344, 2.233009
1133.826, 1.845047
1134.308, 0.9819030
1134.790, 0.4371570
1135.272, 0.2113420
1135.755, 0.2620390
1136.237, 0.7421260
1136.719, 1.179779
1137.201, 0.9547350
1137.683, 0.5117420
1138.165, 0.4806370
1138.647, 1.055412
1139.129, 1.281715
1139.612, 1.099937
1140.094, 0.9674000
1140.576, 1.350334
1141.058, 1.807861
1141.540, 1.570000
1142.022, 0.9914930
1142.504, 0.7978210
1142.986, 1.601723
1143.469, 2.062164
1143.951, 2.040230
1144.433, 1.855125
1144.915, 1.846291
1145.397, 1.832924
1145.879, 1.273369
1146.361, 0.3790590
1146.843, 8.2611002E-02
1147.325, 0.6161190
1147.807, 0.9822920
1148.290, 0.6536180
1148.772, 0.2533420
1149.254, 0.7445830
1149.736, 1.667465
1150.218, 1.763412
1150.700, 1.012268
1151.182, 0.3570250
1151.664, 0.2474670
1152.147, 0.2517400
1152.629, 0.2582470
1153.111, 0.2855990
1153.593, 0.3743590
1154.075, 0.5140840
1154.557, 0.7136540
1155.039, 0.9860460
1155.521, 1.083702
1156.004, 0.6105120
1156.486, 0.2243350
1156.968, 0.3226780
1157.450, 0.6877060
1157.932, 0.5128710
1158.414, 8.8753000E-02
1158.896, 0.2476200
1159.378, 0.3694530
1159.860, 0.9697570
1160.343, 1.146759
1160.825, 1.101685
1161.307, 0.8920140
1161.789, 0.5806580
1162.271, 0.7399140
1162.753, 1.364250
1163.235, 1.773964
1163.717, 1.753136
1164.199, 1.517403
1164.682, 1.039093
1165.164, 0.5675740
1165.646, 0.2447590
1166.128, 4.6004999E-02
1166.610, 0.6578140
1167.092, 2.122772
1167.574, 3.051788
1168.056, 2.423943
1168.539, 1.461121
1169.021, 1.317879
1169.503, 1.504128
1169.985, 1.262131
1170.467, 0.3368450
1170.949, 0.1135030
1171.431, 0.6826710
1171.913, 1.176147
1172.396, 0.7076190
1172.878, 0.1333010
1173.360, 0.6571730
1173.842, 1.712219
1174.324, 2.128807
1174.806, 1.481277
1175.288, 1.108620
1175.770, 1.048447
1176.252, 1.217628
1176.734, 1.871971
1177.217, 2.477623
1177.699, 2.001549
1178.181, 0.9254610
1178.663, 0.7896350
1179.145, 2.647415
1179.627, 3.176445
1180.109, 1.845680
1180.591, 0.3622670
1181.074, 0.5731050
1181.556, 1.522255
1182.038, 1.930656
1182.520, 1.843475
1183.002, 1.802467
1183.484, 2.012527
1183.966, 2.020889
1184.448, 1.727509
1184.931, 1.365227
1185.413, 1.302444
1185.895, 1.290199
1186.377, 0.7472080
1186.859, 0.2477570
1187.341, 0.7035290
1187.823, 0.1793900
1188.305, 0.3972400
1188.787, 0.9372790
1189.270, 1.268776
1189.752, 0.9557720
1190.234, 0.3558350
1190.716, 8.2565002E-02
1191.198, 0.1943740
1191.680, 0.3775330
1192.162, 0.5818020
1192.644, 0.8935700
1193.126, 1.318130
1193.609, 1.740036
1194.091, 2.167511
1194.573, 2.447906
1195.055, 2.143944
1195.537, 1.152161
1196.019, 0.5473560
1196.501, 0.8151860
1196.983, 0.9985050
1197.466, 0.7072370
1197.948, 0.3552470
1198.430, 0.9217680
1198.912, 1.930450
1199.394, 2.395599
1199.876, 2.061996
1200.358, 1.664864
1200.840, 1.089554
1201.323, 1.007416
1201.805, 1.947090
1202.287, 3.127670
1202.769, 2.709793
1203.251, 1.335838
1203.733, 0.3290630
1204.215, 3.0913999E-02
1204.697, 4.9660001E-02
1205.179, 0.7337950
1205.661, 1.431671
1206.144, 1.942970
1206.626, 2.236572
1207.108, 2.083458
1207.590, 1.678879
1208.072, 1.473763
1208.554, 1.717667
1209.036, 1.757698
1209.518, 1.330338
1210.001, 0.9270480
1210.483, 0.7150730
1210.965, 0.7492900
1211.447, 1.363686
1211.929, 2.290695
1212.411, 2.953171
1212.893, 3.076180
1213.375, 3.216446
1213.858, 3.550476
1214.340, 3.698334
1214.822, 3.461388
1215.304, 2.877205
1215.786, 1.648048
1216.268, 0.2095870
1216.750, 0.3855740
1217.232, 0.6723020
1217.714, 1.638474
1218.197, 2.605148
1218.679, 2.926888
1219.161, 1.741531
1219.643, 4.5456000E-02
1220.125, 0.5207140
1220.607, 5.1941000E-02
1221.089, 0.5138320
1221.571, 1.066605
1222.053, 1.432457
1222.536, 1.604439
1223.018, 1.601227
1223.500, 1.302574
1223.982, 0.9265210
1224.464, 1.017159
1224.946, 1.361404
1225.428, 1.470879
1225.910, 0.7535860
1226.393, 0.6616520
1226.875, 1.445450
1227.357, 2.138992
1227.839, 1.929329
1228.321, 1.227119
1228.803, 0.4937740
1229.285, 0.1555180
1229.767, 0.4462130
1230.250, 0.1244510
1230.732, 0.2145920
1231.214, 0.5878300
1231.696, 0.8917160
1232.178, 0.9737550
1232.660, 0.9903180
1233.142, 1.202751
1233.624, 1.513298
1234.106, 1.684731
1234.589, 1.675415
1235.071, 1.518425
1235.553, 1.168396
1236.035, 0.8532640
1236.517, 1.048721
1236.999, 1.391144
1237.481, 1.440292
1237.963, 1.347946
1238.445, 1.519745
1238.928, 2.190361
1239.410, 2.321625
1239.892, 1.824715
1240.374, 1.275139
1240.856, 1.028954
1241.338, 1.005959
1241.820, 1.243546
1242.302, 1.620506
1242.785, 1.889763
1243.267, 2.036209
1243.749, 2.101601
1244.231, 2.082069
1244.713, 2.117325
1245.195, 2.407585
1245.677, 2.736244
1246.159, 3.135635
1246.641, 3.368805
1247.124, 2.985519
1247.606, 1.907768
1248.088, 1.175858
1248.570, 0.8370360
1249.052, 0.5531770
1249.534, 0.1511990
1250.016, 0.6020360
1250.498, 0.3291400
1250.980, 0.3676530
1251.463, 1.460243
1251.945, 2.879654
1252.427, 3.351692
1252.909, 3.040428
1253.391, 2.558891
1253.873, 2.031616
1254.355, 1.733498
1254.837, 2.034401
1255.320, 2.409767
1255.802, 2.184586
1256.284, 1.483238
1256.766, 1.010048
1257.248, 0.7023470
1257.730, 0.8078770
1258.212, 1.849312
1258.694, 2.502136
1259.177, 2.314507
1259.659, 1.817459
1260.141, 1.388550
1260.623, 1.127777
1261.105, 1.698456
1261.587, 2.846397
1262.069, 3.320702
1262.551, 1.775764
1263.033, 0.7432100
1263.516, 0.6320420
1263.998, 0.8858950
1264.480, 1.146454
1264.962, 1.292801
1265.444, 0.7946170
1265.926, 7.3608004E-02
1266.408, 0.2958450
1266.890, 1.119896
1267.372, 1.577782
1267.855, 1.132721
1268.337, 0.5847470
1268.819, 0.4925080
1269.301, 0.6451190
1269.783, 0.8115160
1270.265, 0.9767910
1270.747, 1.126518
1271.229, 1.280235
1271.712, 1.356415
1272.194, 1.340439
1272.676, 1.324684
1273.158, 1.407295
1273.640, 1.497604
1274.122, 1.431068
1274.604, 1.342041
1275.086, 1.520668
1275.568, 1.819626
1276.051, 2.061966
1276.533, 2.020386
1277.015, 1.885384
1277.497, 1.653397
1277.979, 1.525070
1278.461, 1.727493
1278.943, 2.039497
1279.425, 2.191650
1279.907, 2.188271
1280.390, 2.224251
1280.872, 2.266289
1281.354, 2.200104
1281.836, 2.005203
1282.318, 1.640984
1282.800, 0.8830410
1283.282, 0.1942520
1283.764, 1.2115000E-02
1284.247, 0.0000000E+00
##END=



