##NAMES=Metavoltine
##RRUFFID=R060835
##IDEAL CHEMISTRY=K_2_Na_6_Fe^2+^Fe^3+^_6_O_2_(S^6+^O_4_)_12_&#183;18H_2_O
##LOCALITY=Cetine mine, Siena Province, Tuscany, Italy
##OWNER=RRUFF
##SOURCE=Bob Jenkins
##DESCRIPTION=Yellowish-brown granular aggregate
##STATUS=The identification of this mineral is not yet confirmed.
##URL=rruff.info/R060835
192.8807, 0.0000000E+00
193.3628, 0.8309330
193.8449, 1.776337
194.3270, 2.607117
194.8092, 8.725159
195.2913, 29.16721
195.7734, 54.00687
196.2555, 62.91623
196.7376, 49.98746
197.2197, 34.22842
197.7019, 36.94067
198.1840, 51.88098
198.6661, 62.96350
199.1482, 59.22342
199.6303, 48.60791
200.1124, 41.32239
200.5946, 37.81445
201.0767, 38.22244
201.5588, 50.92578
202.0409, 77.54642
202.5230, 96.03143
203.0051, 73.28998
203.4873, 35.68817
203.9694, 15.27469
204.4515, 15.86819
204.9336, 23.62543
205.4157, 32.22137
205.8978, 40.31824
206.3800, 43.36203
206.8621, 34.39645
207.3442, 22.26184
207.8263, 20.99866
208.3084, 32.94348
208.7905, 43.43527
209.2727, 40.12524
209.7548, 27.21756
210.2369, 14.20596
210.7190, 4.9651999E-02
211.2011, 11.79007
211.6832, 15.87842
212.1654, 11.82303
212.6475, 4.186310
213.1296, 6.854645
213.6117, 19.12973
214.0938, 27.35913
214.5760, 27.48358
215.0581, 25.45044
215.5402, 27.50671
216.0223, 33.78604
216.5044, 39.91940
216.9865, 41.70282
217.4687, 42.02689
217.9508, 47.71918
218.4329, 64.00452
218.9150, 81.58633
219.3971, 94.28864
219.8792, 102.1156
220.3614, 103.0395
220.8435, 92.77759
221.3256, 75.63174
221.8077, 62.07712
222.2898, 49.55014
222.7719, 44.18652
223.2541, 57.22751
223.7362, 85.26166
224.2183, 103.0835
224.7004, 93.83612
225.1825, 70.17108
225.6646, 62.64774
226.1468, 79.78040
226.6289, 97.80078
227.1110, 102.1397
227.5931, 95.70728
228.0752, 89.49622
228.5573, 87.75323
229.0395, 88.82153
229.5216, 89.17435
230.0037, 88.48276
230.4858, 87.93393
230.9679, 85.68546
231.4500, 83.81726
231.9322, 89.75610
232.4143, 109.1961
232.8964, 131.4934
233.3785, 135.0923
233.8606, 115.0782
234.3427, 99.18155
234.8249, 100.2420
235.3070, 110.4340
235.7891, 114.5269
236.2712, 106.9815
236.7533, 97.77484
237.2354, 104.4702
237.7176, 130.5126
238.1997, 151.2504
238.6818, 160.2978
239.1639, 162.2356
239.6460, 161.8636
240.1281, 160.0444
240.6103, 158.2790
241.0924, 158.8011
241.5745, 162.3631
242.0566, 163.8962
242.5387, 159.8125
243.0208, 155.2755
243.5030, 155.1501
243.9851, 160.6476
244.4672, 168.3127
244.9493, 178.7972
245.4314, 192.6995
245.9135, 207.8864
246.3957, 231.3912
246.8778, 251.4196
247.3599, 256.3342
247.8420, 248.4184
248.3241, 238.8747
248.8062, 236.4998
249.2884, 241.6235
249.7705, 247.0711
250.2526, 252.0354
250.7347, 258.4276
251.2168, 268.9434
251.6989, 281.6220
252.1811, 290.2751
252.6632, 289.9155
253.1453, 282.0959
253.6274, 282.0822
254.1095, 298.1966
254.5916, 311.7612
255.0738, 316.2640
255.5559, 315.0450
256.0380, 312.7446
256.5201, 311.2798
257.0022, 312.5384
257.4843, 323.4127
257.9665, 354.9670
258.4486, 383.3319
258.9307, 401.4961
259.4128, 417.5969
259.8949, 442.5655
260.3770, 480.5745
260.8592, 524.3735
261.3413, 559.3672
261.8234, 581.1529
262.3055, 599.9188
262.7876, 608.5308
263.2697, 619.1100
263.7519, 644.8190
264.2340, 687.2750
264.7161, 734.2089
265.1982, 768.8179
265.6803, 787.7180
266.1624, 802.9480
266.6446, 810.7702
267.1267, 818.6865
267.6088, 833.6672
268.0909, 854.1121
268.5730, 870.9688
269.0551, 875.2163
269.5373, 866.7106
270.0194, 852.2924
270.5015, 826.8022
270.9836, 799.8557
271.4657, 776.9205
271.9478, 754.8832
272.4300, 725.9092
272.9121, 682.8979
273.3942, 627.8676
273.8763, 572.4111
274.3584, 508.8478
274.8405, 457.3929
275.3227, 433.0547
275.8048, 422.3041
276.2869, 403.6489
276.7690, 363.7342
277.2511, 313.6100
277.7332, 280.6330
278.2154, 271.8372
278.6975, 261.6628
279.1796, 236.4634
279.6617, 207.6419
280.1438, 187.4438
280.6259, 180.0167
281.1081, 177.3735
281.5902, 173.0297
282.0723, 167.8354
282.5544, 154.2293
283.0365, 119.3666
283.5186, 82.76590
284.0008, 63.72235
284.4829, 65.26486
284.9650, 71.45010
285.4471, 71.55609
285.9292, 66.64178
286.4113, 61.52609
286.8935, 57.50839
287.3756, 53.02570
287.8577, 44.58029
288.3398, 32.59619
288.8219, 25.43414
289.3040, 32.25308
289.7862, 44.41565
290.2683, 44.98871
290.7504, 29.80331
291.2325, 14.43127
291.7146, 16.08276
292.1967, 31.56711
292.6789, 38.41000
293.1610, 26.22372
293.6431, 9.297943
294.1252, 2.779358
294.6073, 9.368500
295.0894, 6.983826
295.5716, 10.56625
296.0537, 39.10855
296.5358, 52.52286
297.0179, 39.03650
297.5000, 24.37216
297.9821, 21.00653
298.4643, 24.56689
298.9464, 23.59970
299.4285, 11.70111
299.9106, 4.753448
300.3927, 8.059113
300.8748, 16.92163
301.3570, 33.32590
301.8391, 30.97458
302.3212, 21.23846
302.8033, 16.32468
303.2854, 19.63147
303.7675, 26.28409
304.2497, 28.88531
304.7318, 23.73343
305.2139, 24.00851
305.6960, 39.11526
306.1781, 51.44165
306.6602, 46.28223
307.1424, 25.94980
307.6245, 5.696259
308.1066, 5.5847000E-02
308.5887, 10.00681
309.0708, 17.36261
309.5529, 22.40277
310.0351, 24.29086
310.5172, 20.17355
310.9993, 12.95487
311.4814, 7.640381
311.9635, 7.562866
312.4456, 11.81757
312.9278, 14.29489
313.4099, 14.38284
313.8920, 13.47153
314.3741, 8.058136
314.8562, 3.723450
315.3383, 8.306793
315.8205, 24.98834
316.3026, 42.52533
316.7847, 43.42477
317.2668, 24.85355
317.7489, 12.19473
318.2310, 15.38940
318.7132, 22.94568
319.1953, 26.83102
319.6774, 26.74597
320.1595, 22.82632
320.6416, 11.45694
321.1237, 4.378540
321.6059, 12.90918
322.0880, 11.13980
322.5701, 5.751160
323.0522, 0.7810670
323.5343, 3.574799
324.0164, 6.260254
324.4986, 4.463837
324.9807, 2.280365
325.4628, 5.854584
325.9449, 15.21320
326.4270, 22.79080
326.9091, 23.57254
327.3913, 18.94705
327.8734, 15.48242
328.3555, 13.30515
328.8376, 12.07825
329.3197, 11.69055
329.8018, 12.14404
330.2840, 13.87259
330.7661, 17.32343
331.2482, 21.42770
331.7303, 22.48294
332.2124, 16.34708
332.6945, 14.58231
333.1767, 24.51035
333.6588, 35.44690
334.1409, 35.39145
334.6230, 23.64914
335.1051, 11.36206
335.5873, 11.91507
336.0694, 29.66205
336.5515, 34.77927
337.0336, 13.98318
337.5157, 4.392822
337.9979, 9.411072
338.4800, 3.317352
338.9621, 8.034180
339.4442, 22.21140
339.9263, 36.74750
340.4084, 39.35495
340.8906, 19.47110
341.3727, 3.927643
341.8548, 2.394470
342.3369, 2.146423
342.8190, 3.522766
343.3011, 14.34152
343.7833, 26.03937
344.2654, 33.69727
344.7475, 37.38910
345.2296, 36.07593
345.7117, 24.71060
346.1938, 12.85330
346.6760, 6.208984
347.1581, 5.136780
347.6402, 6.716949
348.1223, 8.921906
348.6044, 12.43332
349.0865, 21.40482
349.5687, 39.54980
350.0508, 52.21371
350.5329, 41.73254
351.0150, 17.83221
351.4971, 3.705566
351.9792, 9.749115
352.4614, 20.86136
352.9435, 27.47302
353.4256, 30.35272
353.9077, 30.03601
354.3898, 26.17883
354.8719, 20.15771
355.3541, 15.16431
355.8362, 10.82254
356.3183, 8.166168
356.8004, 8.129364
357.2825, 9.786987
357.7646, 11.45627
358.2468, 13.24774
358.7289, 17.11218
359.2110, 25.03488
359.6931, 39.17200
360.1752, 46.58463
360.6573, 39.87390
361.1395, 34.59515
361.6216, 42.64432
362.1037, 58.30270
362.5858, 65.90295
363.0679, 54.00919
363.5500, 28.44272
364.0322, 16.66306
364.5143, 30.77969
364.9964, 41.15002
365.4785, 39.70966
365.9606, 33.25693
366.4427, 29.73523
366.9249, 31.26041
367.4070, 33.88467
367.8891, 33.16251
368.3712, 29.00073
368.8533, 21.59970
369.3354, 4.155365
369.8176, 8.848389
370.2997, 4.267181
370.7818, 13.96838
371.2639, 28.45261
371.7460, 25.64868
372.2281, 14.77438
372.7103, 14.66846
373.1924, 27.61047
373.6745, 37.82486
374.1566, 34.72052
374.6387, 22.26144
375.1208, 11.56171
375.6030, 0.4113460
376.0851, 5.159851
376.5672, 2.685028
377.0493, 18.15280
377.5314, 29.21857
378.0135, 26.47928
378.4957, 33.60736
378.9778, 37.27399
379.4599, 37.56293
379.9420, 26.62039
380.4241, 30.65436
380.9063, 29.12946
381.3884, 27.51407
381.8705, 34.10184
382.3526, 25.61124
382.8347, 32.00397
383.3168, 32.49228
383.7990, 32.28268
384.2811, 33.89209
384.7632, 33.21606
385.2453, 25.82974
385.7274, 17.48907
386.2095, 16.87405
386.6917, 27.02249
387.1738, 38.42276
387.6559, 34.40292
388.1380, 11.12741
388.6201, 4.741821
389.1022, 5.428436
389.5844, 1.723328
390.0665, 0.9403990
390.5486, 2.363892
391.0307, 3.149200
391.5128, 1.710144
391.9949, 0.2571720
392.4771, 5.666290
392.9592, 19.68631
393.4413, 29.24606
393.9234, 23.76285
394.4055, 9.161407
394.8876, 0.7766420
395.3698, 1.763123
395.8519, 3.981903
396.3340, 4.367523
396.8161, 3.600250
397.2982, 2.090790
397.7803, 0.1769710
398.2625, 1.366791
398.7446, 1.656769
399.2267, 11.68759
399.7088, 15.91827
400.1909, 9.339386
400.6730, 2.421021
401.1552, 2.280426
401.6373, 7.123596
402.1194, 9.734314
402.6015, 4.674744
403.0836, 5.372803
403.5657, 7.198425
404.0479, 6.955322
404.5300, 17.41711
405.0121, 20.39511
405.4942, 19.54819
405.9763, 17.87891
406.4584, 16.13254
406.9406, 13.68222
407.4227, 9.046814
407.9048, 2.333160
408.3869, 2.272949
408.8690, 4.392242
409.3511, 4.571655
409.8333, 2.946381
410.3154, 0.3904110
410.7975, 5.590607
411.2796, 17.07495
411.7617, 26.79999
412.2438, 22.72543
412.7260, 6.802032
413.2081, 4.013733
413.6902, 1.005859
414.1723, 9.122314
414.6544, 11.09665
415.1365, 3.2649999E-03
415.6187, 3.879395
416.1008, 11.42389
416.5829, 30.75699
417.0650, 38.89462
417.5471, 34.49896
418.0292, 25.69016
418.5114, 19.20715
418.9935, 15.03558
419.4756, 11.77054
419.9577, 11.19458
420.4398, 9.490387
420.9219, 4.814972
421.4041, 0.9814150
421.8862, 6.929016
422.3683, 12.58325
422.8504, 14.53702
423.3325, 4.569366
423.8146, 20.13361
424.2968, 35.16522
424.7789, 32.21564
425.2610, 24.58020
425.7431, 18.55649
426.2252, 14.67923
426.7073, 14.05688
427.1895, 18.48795
427.6716, 25.00067
428.1537, 32.06372
428.6358, 39.94861
429.1179, 45.19379
429.6000, 44.39536
430.0822, 41.64420
430.5643, 47.35721
431.0464, 66.60898
431.5285, 81.06342
432.0106, 80.19202
432.4927, 74.91431
432.9749, 79.53601
433.4570, 95.05515
433.9391, 109.8010
434.4212, 112.9232
434.9033, 103.6661
435.3854, 102.0217
435.8676, 113.2255
436.3497, 126.1489
436.8318, 140.1064
437.3139, 153.7256
437.7960, 166.1391
438.2781, 176.9004
438.7603, 185.2596
439.2424, 189.0821
439.7245, 187.6866
440.2066, 187.8329
440.6887, 189.9080
441.1708, 194.2220
441.6530, 202.7377
442.1351, 213.8184
442.6172, 221.7813
443.0993, 220.6771
443.5814, 217.6038
444.0635, 224.1074
444.5457, 239.0054
445.0278, 247.5678
445.5099, 241.5640
445.9920, 227.7841
446.4741, 220.2363
446.9562, 220.7281
447.4384, 222.6167
447.9205, 226.0273
448.4026, 229.3054
448.8847, 232.6105
449.3668, 234.9395
449.8489, 232.0851
450.3311, 220.0012
450.8132, 199.9808
451.2953, 184.8052
451.7774, 177.7072
452.2595, 171.4410
452.7416, 164.1404
453.2238, 157.4804
453.7059, 153.1075
454.1880, 151.4141
454.6701, 151.1380
455.1522, 153.8473
455.6343, 158.4213
456.1165, 152.0159
456.5986, 128.8620
457.0807, 104.5979
457.5628, 91.46655
458.0449, 84.92767
458.5270, 75.23642
459.0092, 53.55276
459.4913, 36.55624
459.9734, 42.35632
460.4555, 61.94855
460.9376, 69.92776
461.4197, 57.59537
461.9019, 39.11981
462.3840, 33.82803
462.8661, 47.35599
463.3482, 53.67990
463.8303, 47.24930
464.3124, 39.54382
464.7946, 36.10873
465.2767, 35.89920
465.7588, 35.36456
466.2409, 32.34943
466.7230, 28.86429
467.2051, 30.44232
467.6873, 39.52612
468.1694, 45.99048
468.6515, 47.13904
469.1336, 45.67624
469.6157, 43.18008
470.0978, 39.80307
470.5800, 34.39200
471.0621, 23.14661
471.5442, 11.95078
472.0263, 12.56937
472.5084, 24.48608
472.9905, 32.95325
473.4727, 28.28662
473.9548, 18.43045
474.4369, 23.82443
474.9190, 54.58389
475.4011, 73.99979
475.8832, 64.43570
476.3654, 47.52512
476.8475, 45.63229
477.3296, 58.72391
477.8117, 70.30652
478.2938, 66.48926
478.7759, 50.14548
479.2581, 42.77441
479.7402, 53.02261
480.2223, 58.02274
480.7044, 47.50858
481.1865, 35.29816
481.6686, 33.63791
482.1508, 44.21411
482.6329, 57.54645
483.1150, 65.58246
483.5971, 69.94385
484.0792, 77.33569
484.5613, 89.18039
485.0435, 99.14804
485.5256, 103.2452
486.0077, 102.2303
486.4898, 99.64084
486.9719, 95.20352
487.4540, 89.63837
487.9362, 77.35873
488.4183, 66.53284
488.9004, 72.37946
489.3825, 96.28574
489.8646, 120.7734
490.3467, 127.6525
490.8289, 116.1717
491.3110, 109.2153
491.7931, 111.1656
492.2752, 112.8122
492.7573, 107.2264
493.2394, 102.6922
493.7216, 112.9062
494.2037, 141.6178
494.6858, 168.6518
495.1679, 167.0829
495.6500, 141.9225
496.1321, 133.4438
496.6143, 152.8441
497.0964, 169.3523
497.5785, 153.6135
498.0606, 117.7293
498.5427, 98.28043
499.0248, 108.7762
499.5070, 123.7089
499.9891, 135.0380
500.4712, 141.4013
500.9533, 136.9666
501.4355, 120.9803
501.9176, 106.2004
502.3997, 108.9335
502.8818, 132.1188
503.3639, 142.3819
503.8460, 126.0779
504.3282, 111.5777
504.8103, 103.2677
505.2924, 101.6923
505.7745, 110.1274
506.2566, 129.9351
506.7387, 148.2590
507.2209, 146.4450
507.7030, 127.6803
508.1851, 121.1842
508.6672, 135.7796
509.1493, 148.3724
509.6314, 135.3340
510.1136, 106.0780
510.5957, 93.01132
511.0778, 115.6420
511.5599, 135.2487
512.0420, 131.1484
512.5241, 113.0801
513.0062, 95.27814
513.4883, 81.59525
513.9705, 69.63098
514.4526, 56.25137
514.9347, 40.83521
515.4168, 32.38992
515.8989, 35.25540
516.3810, 40.53369
516.8632, 50.26758
517.3453, 59.45071
517.8274, 60.94614
518.3095, 52.57632
518.7916, 42.82974
519.2737, 40.10907
519.7559, 43.24915
520.2380, 48.33069
520.7201, 56.31366
521.2022, 60.49792
521.6843, 53.96445
522.1664, 39.45743
522.6486, 30.28864
523.1307, 29.57809
523.6128, 30.02130
524.0949, 30.30493
524.5770, 29.94199
525.0591, 28.83875
525.5413, 26.71954
526.0234, 21.91196
526.5055, 11.52774
526.9876, 3.660828
527.4697, 9.311218
527.9518, 4.471649
528.4340, 11.75388
528.9161, 0.6076350
529.3982, 18.03519
529.8803, 25.62360
530.3624, 20.83820
530.8445, 13.84171
531.3267, 11.16559
531.8088, 11.35306
532.2909, 12.51605
532.7730, 14.56448
533.2551, 13.08987
533.7372, 4.549683
534.2194, 8.792267
534.7015, 19.29498
535.1836, 27.14224
535.6657, 32.15726
536.1478, 30.76877
536.6299, 29.14514
537.1121, 35.09814
537.5942, 46.42227
538.0763, 52.09265
538.5584, 42.66132
539.0405, 24.41129
539.5226, 18.06229
540.0048, 26.46625
540.4869, 36.52533
540.9690, 47.09253
541.4511, 56.32550
541.9332, 62.91010
542.4153, 66.84912
542.8975, 68.57782
543.3796, 64.35425
543.8617, 60.97357
544.3438, 68.08865
544.8259, 82.43671
545.3080, 90.25742
545.7902, 85.01483
546.2723, 74.88651
546.7544, 75.02710
547.2365, 91.64127
547.7186, 101.2547
548.2007, 99.90479
548.6829, 96.35703
549.1650, 92.38211
549.6471, 89.21548
550.1292, 89.51825
550.6113, 95.38278
551.0934, 100.1382
551.5756, 89.93878
552.0577, 68.35754
552.5398, 64.93643
553.0219, 89.62558
553.5040, 117.4905
553.9861, 127.9363
554.4683, 122.2868
554.9504, 119.1968
555.4325, 121.9955
555.9146, 123.4546
556.3967, 118.2132
556.8788, 111.7276
557.3610, 111.8233
557.8431, 119.3268
558.3252, 127.6868
558.8073, 130.6547
559.2894, 128.5880
559.7715, 124.5151
560.2537, 115.4404
560.7358, 110.6782
561.2179, 120.5829
561.7000, 132.0924
562.1821, 131.1631
562.6642, 115.9240
563.1464, 102.4047
563.6285, 100.5628
564.1106, 103.3661
564.5927, 101.5934
565.0748, 95.77765
565.5569, 92.50806
566.0391, 95.60089
566.5212, 101.8024
567.0033, 103.6461
567.4854, 98.97058
567.9675, 94.27957
568.4496, 89.01898
568.9318, 84.28232
569.4139, 79.70078
569.8960, 76.16537
570.3781, 75.51959
570.8602, 78.84744
571.3423, 84.53400
571.8245, 92.83481
572.3066, 102.5258
572.7887, 105.7973
573.2708, 100.3512
573.7529, 92.08411
574.2350, 90.37369
574.7172, 94.39658
575.1993, 87.21878
575.6814, 50.09952
576.1635, 26.55545
576.6456, 36.79178
577.1277, 59.71860
577.6099, 75.86078
578.0920, 82.08179
578.5741, 82.70517
579.0562, 78.68988
579.5383, 70.12616
580.0204, 67.72302
580.5026, 74.42242
580.9847, 77.62247
581.4668, 72.44214
581.9489, 62.10046
582.4310, 48.84534
582.9132, 32.11188
583.3953, 21.45871
583.8774, 23.39673
584.3596, 29.12085
584.8417, 31.80774
585.3238, 32.14380
585.8059, 35.18228
586.2880, 42.44040
586.7701, 48.49323
587.2523, 40.38452
587.7344, 12.14651
588.2165, 4.684784
588.6986, 36.15311
589.1807, 65.09042
589.6628, 73.57071
590.1450, 69.40814
590.6271, 64.02115
591.1092, 60.18134
591.5913, 55.93997
592.0734, 46.69287
592.5555, 36.67416
593.0377, 35.01379
593.5198, 41.94318
594.0019, 48.72815
594.4840, 49.88083
594.9661, 46.02139
595.4482, 38.93887
595.9304, 22.20416
596.4125, 13.29208
596.8946, 14.31067
597.3767, 21.09769
597.8588, 35.66974
598.3409, 54.02307
598.8231, 65.99557
599.3052, 65.25302
599.7873, 58.87509
600.2694, 54.45029
600.7515, 51.76199
601.2336, 49.31891
601.7158, 46.52911
602.1979, 46.08539
602.6800, 52.42999
603.1621, 65.06644
603.6442, 66.57166
604.1263, 42.46863
604.6085, 26.80374
605.0906, 31.56735
605.5727, 43.83301
606.0548, 53.76001
606.5369, 58.99231
607.0190, 59.24521
607.5012, 50.29852
607.9833, 38.27649
608.4654, 38.50571
608.9475, 51.23636
609.4296, 67.36520
609.9117, 86.12241
610.3939, 103.2235
610.8760, 113.8408
611.3581, 117.6853
611.8402, 114.7088
612.3223, 99.89346
612.8044, 83.78854
613.2866, 65.80557
613.7687, 51.51276
614.2508, 50.85001
614.7329, 63.84152
615.2150, 78.40134
615.6971, 79.27084
616.1793, 69.42059
616.6614, 68.60205
617.1435, 79.70502
617.6256, 85.94202
618.1077, 77.27432
618.5898, 62.12549
619.0720, 55.05042
619.5541, 57.38879
620.0362, 58.34412
620.5183, 53.82565
621.0004, 49.62506
621.4825, 49.10049
621.9647, 51.78287
622.4468, 57.45242
622.9289, 65.84976
623.4110, 72.95786
623.8931, 73.72565
624.3752, 68.16208
624.8574, 56.01041
625.3395, 32.18201
625.8216, 16.20984
626.3037, 22.76425
626.7858, 40.29333
627.2679, 45.36026
627.7501, 32.86862
628.2322, 24.81708
628.7143, 36.74176
629.1964, 47.17096
629.6785, 29.98083
630.1606, 3.829651
630.6428, 20.47449
631.1249, 3.526733
631.6070, 26.77164
632.0891, 36.78989
632.5712, 25.38400
633.0533, 10.22687
633.5355, 13.59775
634.0176, 29.58929
634.4997, 20.33865
634.9818, 1.101746
635.4639, 8.126160
635.9460, 9.284607
636.4282, 18.69418
636.9103, 0.7539670
637.3924, 23.30209
637.8745, 34.23691
638.3566, 32.86032
638.8387, 28.20969
639.3209, 24.94299
639.8030, 22.60596
640.2851, 18.80493
640.7672, 12.54785
641.2493, 17.01953
641.7314, 42.73019
642.2136, 62.41211
642.6957, 53.07816
643.1778, 26.91187
643.6599, 8.889435
644.1420, 2.846558
644.6241, 0.2839360
645.1063, 4.522125
645.5884, 5.111908
646.0705, 11.01047
646.5526, 38.01010
647.0347, 54.45035
647.5168, 47.44669
647.9990, 28.79395
648.4811, 21.73810
648.9632, 27.50635
649.4453, 29.31583
649.9274, 22.59418
650.4095, 17.65805
650.8917, 24.16373
651.3738, 36.98672
651.8559, 43.07663
652.3380, 39.66428
652.8201, 33.84277
653.3022, 22.39813
653.7844, 13.38358
654.2665, 16.32352
654.7486, 28.70676
655.2307, 41.56827
655.7128, 50.35648
656.1949, 54.87033
656.6771, 52.96301
657.1592, 44.01584
657.6413, 37.97891
658.1234, 36.72650
658.6055, 37.32220
659.0876, 38.74768
659.5698, 40.47495
660.0519, 40.64417
660.5340, 36.85828
661.0161, 36.35333
661.4982, 48.04529
661.9803, 57.45474
662.4625, 50.07104
662.9446, 30.70090
663.4267, 13.11154
663.9088, 3.139954
664.3909, 0.3175660
664.8730, 2.653168
665.3552, 11.71609
665.8373, 24.85602
666.3194, 43.64941
666.8015, 58.78140
667.2836, 64.87997
667.7657, 63.04810
668.2479, 55.30588
668.7300, 35.01407
669.2121, 23.24149
669.6942, 32.81772
670.1763, 40.95850
670.6584, 25.99103
671.1406, 0.3716430
671.6227, 7.842621
672.1048, 13.32309
672.5869, 41.35715
673.0690, 52.83109
673.5511, 50.31903
674.0333, 38.93729
674.5154, 18.42297
674.9975, 5.682739
675.4796, 11.80719
675.9617, 28.33890
676.4438, 37.11752
676.9260, 35.49716
677.4081, 32.47540
677.8902, 20.56018
678.3723, 15.32471
678.8544, 33.80344
679.3365, 59.70227
679.8187, 66.35968
680.3008, 46.11453
680.7829, 23.48727
681.2650, 20.19995
681.7471, 25.79257
682.2292, 19.41620
682.7114, 2.755035
683.1935, 4.638550
683.6756, 6.825745
684.1577, 24.63211
684.6398, 27.83722
685.1219, 12.24368
685.6041, 6.440094
686.0862, 18.83575
686.5683, 29.75082
687.0504, 32.52606
687.5325, 31.53952
688.0146, 31.10629
688.4968, 31.20047
688.9789, 31.53165
689.4610, 28.97501
689.9431, 26.33163
690.4252, 27.62204
690.9073, 31.16855
691.3895, 31.80157
691.8716, 28.32947
692.3537, 23.28186
692.8358, 17.70688
693.3179, 10.90009
693.8000, 6.969879
694.2822, 5.228302
694.7643, 11.68701
695.2464, 34.73682
695.7285, 57.68802
696.2106, 60.93591
696.6927, 46.38513
697.1749, 35.95511
697.6570, 35.37732
698.1391, 36.92545
698.6212, 40.51880
699.1033, 42.47287
699.5854, 34.92471
700.0676, 19.53625
700.5497, 10.17905
701.0318, 19.51929
701.5139, 37.21567
701.9960, 39.65384
702.4781, 22.40323
702.9603, 28.77063
703.4424, 32.07523
703.9245, 33.06445
704.4066, 22.61093
704.8887, 26.91718
705.3708, 25.30444
705.8530, 23.44797
706.3351, 29.82901
706.8172, 21.02728
707.2993, 27.27563
707.7814, 27.51468
708.2635, 30.50241
708.7457, 27.53482
709.2278, 24.37781
709.7099, 24.01263
710.1920, 23.45544
710.6741, 22.90192
711.1563, 24.04141
711.6384, 26.46725
712.1205, 25.07199
712.6026, 16.43759
713.0847, 4.395813
713.5668, 3.486908
714.0490, 7.775208
714.5311, 5.334167
715.0132, 8.477051
715.4953, 22.56418
715.9774, 36.63889
716.4595, 46.27890
716.9417, 42.85675
717.4238, 23.26422
717.9059, 9.054169
718.3880, 13.86191
718.8701, 21.20764
719.3522, 17.45456
719.8344, 7.005341
720.3165, 1.692719
720.7986, 6.914154
721.2807, 5.056763
721.7628, 11.20590
722.2449, 36.49765
722.7271, 45.40201
723.2092, 36.22369
723.6913, 30.21698
724.1734, 35.64322
724.6555, 42.04764
725.1376, 36.20132
725.6198, 17.86554
726.1019, 8.980774
726.5840, 17.57101
727.0661, 24.03098
727.5482, 20.23654
728.0303, 16.64783
728.5125, 23.68991
728.9946, 39.04529
729.4767, 53.09723
729.9588, 65.23416
730.4409, 69.56070
730.9230, 54.32263
731.4052, 29.55197
731.8873, 15.42667
732.3694, 14.52979
732.8515, 19.56424
733.3336, 27.10245
733.8157, 33.57370
734.2979, 27.29370
734.7800, 1.820099
735.2621, 5.429291
735.7442, 20.22632
736.2263, 42.66513
736.7084, 36.17325
737.1906, 17.93088
737.6727, 17.19339
738.1548, 40.57379
738.6369, 56.97736
739.1190, 55.37418
739.6011, 50.32013
740.0833, 49.60089
740.5654, 50.32092
741.0475, 46.46341
741.5296, 38.61560
742.0117, 30.92169
742.4938, 25.92688
742.9760, 25.25592
743.4581, 35.75995
743.9402, 56.01526
744.4223, 60.06598
744.9044, 38.06647
745.3865, 14.21921
745.8687, 14.08582
746.3508, 35.54813
746.8329, 50.96521
747.3150, 57.19669
747.7971, 62.01880
748.2792, 72.08817
748.7614, 75.91861
749.2435, 57.58160
749.7256, 27.40994
750.2077, 15.81738
750.6898, 39.56995
751.1719, 62.44168
751.6541, 68.41666
752.1362, 63.31873
752.6183, 46.38968
753.1004, 24.17429
753.5825, 13.85410
754.0646, 23.52585
754.5468, 40.73737
755.0289, 50.82062
755.5110, 53.74454
755.9931, 44.51031
756.4752, 20.95740
756.9573, 12.02188
757.4395, 35.20123
757.9216, 66.34595
758.4037, 68.28461
758.8858, 35.19937
759.3679, 18.73273
759.8500, 38.70297
760.3322, 50.39838
760.8143, 33.98529
761.2964, 14.89203
761.7785, 17.90009
762.2606, 40.72681
762.7427, 59.92804
763.2249, 67.32608
763.7070, 67.40732
764.1891, 57.73547
764.6712, 45.45041
765.1533, 43.96790
765.6354, 51.45102
766.1176, 50.44952
766.5997, 29.34720
767.0818, 3.610626
767.5639, 7.360596
768.0460, 37.83829
768.5281, 48.80331
769.0103, 32.63019
769.4924, 24.02692
769.9745, 45.46432
770.4566, 77.64990
770.9387, 83.54312
771.4208, 53.90445
771.9030, 34.36041
772.3851, 30.64438
772.8672, 30.86578
773.3493, 34.12485
773.8314, 37.88022
774.3135, 37.27197
774.7957, 33.24036
775.2778, 36.68381
775.7599, 70.20187
776.2420, 93.72064
776.7241, 63.65164
777.2062, 12.69189
777.6884, 8.969299
778.1705, 2.044708
778.6526, 18.01459
779.1347, 22.31799
779.6168, 19.54163
780.0989, 15.23154
780.5811, 9.996429
781.0632, 10.96429
781.5453, 19.36136
782.0274, 30.58417
782.5095, 43.95053
782.9916, 55.52762
783.4738, 56.96909
783.9559, 44.71347
784.4380, 35.79724
784.9201, 32.34949
785.4022, 29.59381
785.8843, 25.36169
786.3665, 21.79102
786.8486, 22.93222
787.3307, 28.26007
787.8128, 28.69879
788.2949, 7.975159
788.7770, 3.323944
789.2592, 25.38281
789.7413, 65.75067
790.2234, 80.58017
790.7055, 69.93353
791.1876, 57.02429
791.6697, 55.31238
792.1519, 58.05350
792.6340, 55.53345
793.1161, 48.80170
793.5982, 43.39294
794.0803, 39.42148
794.5624, 35.94446
795.0446, 33.08798
795.5267, 27.86197
796.0088, 13.44016
796.4909, 12.83319
796.9730, 25.97733
797.4551, 21.83389
797.9373, 12.18509
798.4194, 7.768494
798.9015, 24.87683
799.3836, 20.64160
799.8657, 2.035980
800.3478, 11.39426
800.8300, 10.64496
801.3121, 28.25958
801.7942, 28.80176
802.2763, 21.85873
802.7584, 12.55692
803.2405, 3.534973
803.7227, 1.986176
804.2048, 2.785950
804.6869, 1.396790
805.1690, 16.06870
805.6511, 33.27762
806.1332, 38.49539
806.6154, 33.14029
807.0975, 26.50739
807.5796, 22.22122
808.0617, 19.10831
808.5438, 14.51541
809.0259, 9.493530
809.5081, 18.96255
809.9902, 46.68109
810.4723, 63.31424
810.9544, 60.00259
811.4365, 47.50241
811.9186, 31.64310
812.4008, 14.74500
812.8829, 10.94382
813.3650, 34.18015
813.8471, 48.61990
814.3292, 50.20233
814.8113, 46.55023
815.2935, 38.49396
815.7756, 28.94724
816.2577, 21.46768
816.7398, 16.34863
817.2219, 16.54028
817.7040, 29.57004
818.1862, 42.09076
818.6683, 40.98001
819.1504, 33.95676
819.6325, 36.79010
820.1146, 49.98633
820.5967, 56.40778
821.0789, 40.02435
821.5610, 15.94598
822.0431, 10.60138
822.5252, 18.33902
823.0073, 17.06094
823.4894, 4.336090
823.9716, 4.772064
824.4537, 1.119110
824.9358, 10.77426
825.4179, 24.19751
825.9000, 40.59970
826.3821, 45.54678
826.8643, 34.61386
827.3464, 24.42441
827.8285, 18.84268
828.3106, 19.55450
828.7927, 32.37454
829.2748, 58.15039
829.7570, 69.73492
830.2391, 49.94202
830.7212, 40.31479
831.2033, 59.61203
831.6854, 80.35834
832.1675, 81.02084
832.6497, 67.22171
833.1318, 55.92578
833.6139, 51.95294
834.0960, 49.77042
834.5781, 47.55679
835.0602, 44.97134
835.5424, 39.92456
836.0245, 35.26962
836.5066, 33.79907
836.9887, 36.13354
837.4708, 39.52075
837.9529, 42.80270
838.4351, 44.54651
838.9172, 40.32968
839.3993, 32.19608
839.8814, 27.85718
840.3635, 28.57550
840.8456, 32.59647
841.3278, 39.49677
841.8099, 45.80734
842.2920, 40.56143
842.7741, 21.39331
843.2562, 19.28287
843.7383, 42.17084
844.2205, 58.84116
844.7026, 52.42941
845.1847, 37.52948
845.6668, 34.10385
846.1489, 43.27545
846.6310, 47.76965
847.1132, 45.77029
847.5953, 42.71866
848.0774, 38.88449
848.5595, 34.63940
849.0416, 28.61530
849.5237, 22.50876
850.0059, 21.31458
850.4880, 28.50198
850.9701, 33.61136
851.4522, 26.26086
851.9343, 21.90906
852.4164, 37.02451
852.8986, 61.05563
853.3807, 76.87479
853.8628, 80.29800
854.3449, 75.15866
854.8270, 62.58780
855.3091, 46.81802
855.7913, 26.94678
856.2734, 9.293671
856.7555, 9.448456
857.2376, 27.78455
857.7197, 48.75394
858.2018, 63.33701
858.6840, 74.07892
859.1661, 81.76273
859.6482, 85.35501
860.1303, 81.72849
860.6124, 70.85852
861.0945, 58.19525
861.5767, 45.15771
862.0588, 32.50903
862.5409, 20.13840
863.0230, 8.716858
863.5051, 8.296509
863.9872, 26.13177
864.4694, 32.80716
864.9515, 17.25644
865.4336, 0.6684880
865.9157, 5.422607
866.3978, 1.858093
866.8799, 9.989319
867.3621, 34.23859
867.8442, 49.39597
868.3263, 51.98001
868.8084, 49.49103
869.2905, 39.02814
869.7726, 28.46039
870.2548, 28.50961
870.7369, 37.48053
871.2190, 40.67224
871.7011, 29.17404
872.1832, 17.43567
872.6653, 11.96024
873.1475, 9.768372
873.6296, 7.875336
874.1117, 6.935364
874.5938, 9.425903
875.0759, 16.17697
875.5580, 24.21838
876.0402, 31.04224
876.5223, 37.73511
877.0044, 49.09052
877.4865, 60.90924
877.9686, 61.84961
878.4507, 50.72696
878.9329, 35.10107
879.4150, 18.90698
879.8971, 6.933075
880.3792, 13.10181
880.8613, 32.75720
881.3434, 35.72897
881.8256, 20.08325
882.3077, 11.77747
882.7898, 21.89185
883.2719, 40.20422
883.7540, 55.46820
884.2361, 67.26996
884.7183, 71.32059
885.2004, 66.13370
885.6825, 59.35458
886.1646, 51.29889
886.6467, 44.12381
887.1288, 38.66281
887.6110, 35.57150
888.0931, 37.49106
888.5752, 49.23212
889.0573, 50.60175
889.5394, 27.67587
890.0215, 12.93356
890.5037, 17.87833
890.9858, 33.00314
891.4679, 56.72601
891.9500, 85.26883
892.4321, 94.58664
892.9142, 65.83334
893.3964, 40.58514
893.8785, 22.77441
894.3606, 15.81702
894.8427, 34.45541
895.3248, 60.60980
895.8069, 60.85541
896.2891, 28.24417
896.7712, 0.4663700
897.2533, 0.9295040
897.7354, 4.887878
898.2175, 3.814423
898.6996, 2.461487
899.1818, 15.13818
899.6639, 37.27103
900.1460, 45.13416
900.6281, 24.84329
901.1102, 1.131531
901.5923, 2.992676
902.0745, 4.611786
902.5566, 13.93924
903.0387, 24.00342
903.5208, 36.12347
904.0029, 49.69528
904.4850, 58.12491
904.9672, 55.38309
905.4493, 45.03885
905.9314, 30.33493
906.4135, 13.85907
906.8956, 9.884064
907.3777, 19.05927
907.8599, 27.08438
908.3420, 27.21582
908.8241, 23.61310
909.3062, 21.77496
909.7883, 21.44678
910.2704, 20.45801
910.7526, 18.77048
911.2347, 17.32422
911.7169, 16.99753
912.1990, 13.15860
912.6811, 0.5835570
913.1632, 14.96698
913.6453, 18.04184
914.1274, 4.561462
914.6096, 2.758545
915.0917, 2.063873
915.5738, 0.7952880
916.0559, 7.003418
916.5380, 10.64890
917.0201, 3.980591
917.5023, 11.40320
917.9844, 21.54666
918.4665, 32.22180
918.9486, 25.97964
919.4307, 31.00034
919.9128, 32.39157
920.3950, 30.42352
920.8771, 10.73398
921.3592, 17.16391
921.8413, 15.15332
922.3234, 14.16290
922.8055, 10.28275
923.2877, 5.721802
923.7698, 7.358185
924.2519, 16.14633
924.7340, 5.881866
925.2161, 14.15405
925.6982, 21.15210
926.1804, 7.342224
926.6625, 1.901001
927.1446, 31.32095
927.6267, 55.41699
928.1088, 41.65591
928.5909, 14.94580
929.0731, 5.956543
929.5552, 14.54102
930.0373, 22.36044
930.5194, 20.94806
931.0015, 20.51654
931.4836, 29.24503
931.9658, 41.63049
932.4479, 54.98279
932.9300, 66.51917
933.4121, 71.44608
933.8942, 69.16815
934.3763, 63.19662
934.8585, 54.37933
935.3406, 45.87985
935.8227, 42.16736
936.3048, 40.85931
936.7869, 38.21811
937.2690, 33.97647
937.7512, 27.51294
938.2333, 19.04568
938.7154, 13.70856
939.1975, 18.06656
939.6796, 27.34634
940.1617, 32.88004
940.6439, 35.28552
941.1260, 35.16571
941.6081, 33.30399
942.0902, 34.59927
942.5723, 41.83087
943.0544, 49.77753
943.5366, 52.46072
944.0187, 49.52066
944.5008, 34.27094
944.9829, 8.967865
945.4650, 2.282440
945.9471, 20.65771
946.4293, 36.52847
946.9114, 29.50775
947.3935, 12.55356
947.8756, 15.71085
948.3577, 38.31464
948.8398, 45.99377
949.3220, 37.18527
949.8041, 26.69354
950.2862, 18.12885
950.7683, 14.91422
951.2504, 21.97925
951.7325, 34.32239
952.2147, 32.33014
952.6968, 12.59720
953.1789, 2.309174
953.6610, 4.443726
954.1431, 9.316223
954.6252, 13.88858
955.1074, 17.98755
955.5895, 22.46954
956.0716, 26.39108
956.5537, 19.88086
957.0358, 7.068268
957.5179, 9.478546
958.0001, 32.49475
958.4822, 63.14557
958.9643, 48.41745
959.4464, 15.97913
959.9285, 7.838409
960.4106, 24.67053
960.8928, 31.64487
961.3749, 21.56036
961.8570, 16.39642
962.3391, 20.85239
962.8212, 28.19034
963.3033, 36.08734
963.7855, 43.45886
964.2676, 48.76740
964.7497, 51.47681
965.2318, 51.27698
965.7139, 46.39008
966.1960, 41.23187
966.6782, 34.39996
967.1603, 29.60120
967.6424, 26.62500
968.1245, 28.06409
968.6066, 43.14386
969.0887, 80.77551
969.5709, 99.92554
970.0530, 86.56439
970.5351, 70.17102
971.0172, 50.70062
971.4993, 37.57153
971.9814, 41.98877
972.4636, 56.98352
972.9457, 64.93585
973.4278, 59.34192
973.9099, 59.87823
974.3920, 74.00885
974.8741, 90.81396
975.3563, 107.7748
975.8384, 120.6353
976.3205, 123.4999
976.8026, 118.9377
977.2847, 113.2157
977.7668, 108.3564
978.2490, 103.8887
978.7311, 89.52710
979.2132, 85.62939
979.6953, 114.0574
980.1774, 149.7116
980.6595, 165.4402
981.1417, 160.8487
981.6238, 147.4827
982.1059, 118.2407
982.5880, 101.5161
983.0701, 118.1534
983.5522, 134.6017
984.0344, 125.9176
984.5165, 108.4233
984.9986, 105.9958
985.4807, 118.8286
985.9628, 127.7962
986.4449, 126.4721
986.9271, 121.6273
987.4092, 114.1077
987.8913, 105.6216
988.3734, 98.11084
988.8555, 90.05505
989.3376, 75.38141
989.8198, 55.47205
990.3019, 48.01630
990.7840, 73.98053
991.2661, 91.56732
991.7482, 73.13312
992.2303, 49.80634
992.7125, 41.69165
993.1946, 47.01331
993.6767, 64.32538
994.1588, 91.48169
994.6409, 111.0904
995.1230, 109.7552
995.6052, 108.4296
996.0873, 116.9817
996.5694, 129.1992
997.0515, 145.9824
997.5336, 160.2020
998.0157, 156.2697
998.4979, 133.0125
998.9800, 118.6068
999.4621, 131.0301
999.9442, 147.4417
1000.426, 156.4009
1000.908, 164.9487
1001.391, 180.4927
1001.873, 199.6705
1002.355, 212.0239
1002.837, 216.4630
1003.319, 234.8005
1003.801, 297.5775
1004.283, 349.5812
1004.765, 349.0873
1005.247, 339.1423
1005.730, 358.9980
1006.212, 398.3661
1006.694, 432.2121
1007.176, 455.3828
1007.658, 479.7876
1008.140, 521.4471
1008.622, 551.5798
1009.104, 544.9935
1009.587, 530.6820
1010.069, 540.4795
1010.551, 559.7375
1011.033, 555.3376
1011.515, 520.9207
1011.997, 482.2771
1012.479, 446.6466
1012.961, 413.9623
1013.443, 387.3428
1013.926, 360.8212
1014.408, 323.7711
1014.890, 284.6395
1015.372, 264.6000
1015.854, 268.0162
1016.336, 261.9257
1016.818, 226.7247
1017.300, 189.4219
1017.783, 154.7188
1018.265, 128.7402
1018.747, 121.2838
1019.229, 123.8887
1019.711, 125.3514
1020.193, 123.3265
1020.675, 105.3536
1021.157, 42.26160
1021.639, 3.502625
1022.122, 5.022888
1022.604, 26.16846
1023.086, 33.84961
1023.568, 30.40698
1024.050, 21.30969
1024.532, 7.665039
1025.014, 1.949036
1025.496, 3.225586
1025.979, 2.943237
1026.461, 3.219849
1026.943, 2.444946
1027.425, 3.191895
1027.907, 9.236023
1028.389, 5.422729
1028.871, 8.602234
1029.353, 10.26642
1029.835, 22.09845
1030.318, 42.43011
1030.800, 32.63824
1031.282, 18.03412
1031.764, 13.84778
1032.246, 12.66840
1032.728, 4.092102
1033.210, 13.25226
1033.692, 15.22046
1034.174, 11.53937
1034.657, 1.213318
1035.139, 5.693237
1035.621, 10.79706
1036.103, 3.164246
1036.585, 12.30139
1037.067, 19.79785
1037.549, 25.24731
1038.031, 29.44501
1038.514, 29.23999
1038.996, 32.80475
1039.478, 45.51184
1039.960, 55.83368
1040.442, 56.70557
1040.924, 53.86011
1041.406, 56.75311
1041.888, 63.90363
1042.370, 63.80420
1042.853, 46.73822
1043.335, 39.35065
1043.817, 48.62244
1044.299, 58.64258
1044.781, 65.60822
1045.263, 68.44531
1045.745, 63.85028
1046.227, 54.65009
1046.709, 54.17523
1047.192, 66.28046
1047.674, 75.65997
1048.156, 81.18109
1048.638, 86.35602
1049.120, 91.46649
1049.602, 98.95825
1050.084, 112.8070
1050.566, 128.3967
1051.049, 130.1927
1051.531, 114.7890
1052.013, 108.6083
1052.495, 112.2843
1052.977, 123.7999
1053.459, 145.1747
1053.941, 163.3093
1054.423, 168.8616
1054.906, 163.9028
1055.388, 149.5765
1055.870, 126.3995
1056.352, 119.6620
1056.834, 130.0052
1057.316, 137.2727
1057.798, 137.2854
1058.280, 135.0481
1058.762, 133.8502
1059.245, 130.3366
1059.727, 116.9818
1060.209, 97.20557
1060.691, 88.96716
1061.173, 90.56604
1061.655, 88.38483
1062.137, 80.96027
1062.619, 79.01215
1063.101, 87.92596
1063.584, 93.51215
1064.066, 74.47174
1064.548, 45.41425
1065.030, 42.86212
1065.512, 57.73865
1065.994, 62.77167
1066.476, 57.11279
1066.958, 52.01080
1067.441, 51.66919
1067.923, 53.16840
1068.405, 53.69434
1068.887, 55.36237
1069.369, 63.96613
1069.851, 73.99878
1070.333, 78.29169
1070.815, 75.32196
1071.297, 58.80310
1071.780, 30.59393
1072.262, 12.21332
1072.744, 18.99982
1073.226, 29.53680
1073.708, 21.57831
1074.190, 11.24573
1074.672, 17.27423
1075.154, 31.92554
1075.636, 43.44891
1076.119, 49.24329
1076.601, 49.52863
1077.083, 43.18182
1077.565, 35.78986
1078.047, 27.55786
1078.529, 22.13611
1079.011, 24.06921
1079.494, 28.03107
1079.976, 28.97827
1080.458, 27.48694
1080.940, 27.17529
1081.422, 28.73035
1081.904, 31.66443
1082.386, 37.95050
1082.868, 42.51733
1083.350, 38.62482
1083.833, 37.83435
1084.315, 59.29364
1084.797, 85.49689
1085.279, 77.91205
1085.761, 29.49768
1086.243, 1.276123
1086.725, 6.380249
1087.207, 8.902527
1087.689, 5.391846
1088.172, 0.2764890
1088.654, 11.83325
1089.136, 17.08716
1089.618, 3.914978
1090.100, 45.26740
1090.582, 65.17407
1091.064, 58.54761
1091.546, 44.23535
1092.029, 18.12671
1092.511, 2.050476
1092.993, 3.561768
1093.475, 10.37836
1093.957, 12.44696
1094.439, 12.28052
1094.921, 21.04889
1095.403, 38.06085
1095.885, 40.64673
1096.368, 28.85400
1096.850, 12.59662
1097.332, 5.510986
1097.814, 9.329346
1098.296, 12.80707
1098.778, 37.10254
1099.260, 21.60596
1099.742, 15.10162
1100.224, 20.53937
1100.707, 3.506775
1101.189, 12.39148
1101.671, 23.14050
1102.153, 26.69110
1102.635, 23.12146
1103.117, 16.35437
1103.599, 8.000488
1104.081, 0.5426030
1104.564, 3.617859
1105.046, 4.759949
1105.528, 5.573669
1106.010, 2.824219
1106.492, 14.84589
1106.974, 45.82227
1107.456, 66.26392
1107.938, 61.29315
1108.421, 53.35028
1108.903, 55.73334
1109.385, 57.94690
1109.867, 43.94061
1110.349, 32.23639
1110.831, 52.16577
1111.313, 93.84222
1111.795, 117.6708
1112.277, 114.3047
1112.760, 103.4993
1113.242, 78.02271
1113.724, 59.93774
1114.206, 55.34137
1114.688, 60.09076
1115.170, 77.37866
1115.652, 98.46362
1116.134, 108.2139
1116.616, 106.4100
1117.099, 105.0170
1117.581, 103.9684
1118.063, 103.4787
1118.545, 103.2891
1119.027, 105.5176
1119.509, 113.1443
1119.991, 116.3768
1120.473, 103.3646
1120.956, 80.98383
1121.438, 72.21625
1121.920, 76.42560
1122.402, 76.47723
1122.884, 72.05511
1123.366, 67.42615
1123.848, 63.79102
1124.330, 64.33557
1124.813, 71.64014
1125.295, 77.34351
1125.777, 64.76813
1126.259, 45.40106
1126.741, 45.74585
1127.223, 57.81262
1127.705, 68.28632
1128.187, 72.15247
1128.669, 56.23138
1129.151, 18.78650
1129.634, 7.475647
1130.116, 7.009216
1130.598, 29.27118
1131.080, 32.99103
1131.562, 32.80591
1132.044, 46.04297
1132.526, 62.90253
1133.008, 64.62207
1133.491, 52.85315
1133.973, 48.24316
1134.455, 59.59650
1134.937, 67.65576
1135.419, 68.50909
1135.901, 64.32800
1136.383, 47.92413
1136.865, 34.45166
1137.348, 42.46307
1137.830, 58.65247
1138.312, 55.59851
1138.794, 31.48358
1139.276, 19.10193
1139.758, 19.70465
1140.240, 30.27484
1140.722, 55.18439
1141.204, 74.01282
1141.687, 77.49347
1142.169, 73.90088
1142.651, 72.14142
1143.133, 69.24347
1143.615, 51.27582
1144.097, 21.74402
1144.579, 18.81305
1145.061, 39.86285
1145.543, 54.15253
1146.026, 55.68439
1146.508, 58.80450
1146.990, 72.57819
1147.472, 83.41577
1147.954, 67.40930
1148.436, 41.69556
1148.918, 29.49207
1149.400, 25.49475
1149.883, 22.94415
1150.365, 19.52112
1150.847, 15.18762
1151.329, 10.43231
1151.811, 8.432800
1152.293, 9.945374
1152.775, 15.98071
1153.257, 30.01764
1153.740, 45.15393
1154.222, 63.38153
1154.704, 75.67975
1155.186, 68.80298
1155.668, 48.21936
1156.150, 32.40320
1156.632, 21.44031
1157.114, 16.92651
1157.596, 24.79541
1158.078, 22.92651
1158.561, 0.7248540
1159.043, 9.837524
1159.525, 19.27197
1160.007, 59.13403
1160.489, 77.71558
1160.971, 77.50208
1161.453, 64.39716
1161.935, 39.40973
1162.418, 27.01532
1162.900, 27.67609
1163.382, 27.45197
1163.864, 23.42877
1164.346, 23.56519
1164.828, 32.78705
1165.310, 42.23730
1165.792, 37.82007
1166.275, 29.78949
1166.757, 33.76276
1167.239, 44.79968
1167.721, 60.33252
1168.203, 74.05170
1168.685, 68.46533
1169.167, 43.29211
1169.649, 31.14197
1170.131, 54.15601
1170.614, 76.52179
1171.096, 81.66943
1171.578, 84.16217
1172.060, 93.01294
1172.542, 102.0815
1173.024, 104.1108
1173.506, 101.4080
1173.988, 99.68707
1174.470, 97.59918
1174.953, 109.2672
1175.435, 144.1002
1175.917, 165.6152
1176.399, 168.0953
1176.881, 160.8043
1177.363, 145.5773
1177.845, 131.1194
1178.327, 126.5124
1178.810, 128.6437
1179.292, 132.2673
1179.774, 135.5126
1180.256, 126.3118
1180.738, 108.0495
1181.220, 97.18976
1181.702, 95.44775
1182.184, 94.11438
1182.667, 90.14453
1183.149, 87.58771
1183.631, 93.94897
1184.113, 97.85181
1184.595, 83.43927
1185.077, 67.68451
1185.559, 71.72791
1186.041, 84.34149
1186.523, 86.15759
1187.005, 76.90906
1187.488, 67.75574
1187.970, 59.13000
1188.452, 59.14740
1188.934, 83.27319
1189.416, 94.44250
1189.898, 80.44751
1190.380, 58.71613
1190.862, 34.76306
1191.345, 14.90222
1191.827, 8.271606
1192.309, 13.30249
1192.791, 23.00995
1193.273, 37.41736
1193.755, 43.05353
1194.237, 39.83099
1194.719, 37.81964
1195.202, 39.72363
1195.684, 45.35309
1196.166, 54.80518
1196.648, 64.13019
1197.130, 73.99146
1197.612, 76.13275
1198.094, 47.15558
1198.576, 12.71991
1199.058, 12.49030
1199.541, 34.19312
1200.023, 47.90601
1200.505, 48.97980
1200.987, 49.22504
1201.469, 53.62183
1201.951, 53.87463
1202.433, 45.07275
1202.915, 35.66290
1203.397, 34.38379
1203.880, 0.3906250
1204.362, 16.52759
1204.844, 25.11914
1205.326, 25.78168
1205.808, 2.724609
1206.290, 4.610962
1206.772, 3.611572
1207.254, 13.25671
1207.737, 3.274292
1208.219, 16.07361
1208.701, 15.39355
1209.183, 14.09338
1209.665, 33.73700
1210.147, 14.78741
1210.629, 34.09326
1211.111, 38.12610
1211.594, 49.15942
1212.076, 53.70660
1212.558, 54.33313
1213.040, 55.72723
1213.522, 62.44141
1214.004, 73.39923
1214.486, 77.76813
1214.968, 69.58942
1215.450, 63.96747
1215.932, 62.94971
1216.415, 67.50043
1216.897, 87.92023
1217.379, 99.16846
1217.861, 80.09607
1218.343, 52.06354
1218.825, 45.91528
1219.307, 57.64929
1219.789, 64.23260
1220.272, 65.63428
1220.754, 72.07721
1221.236, 83.19751
1221.718, 86.21918
1222.200, 79.13727
1222.682, 72.66486
1223.164, 72.56488
1223.646, 73.84943
1224.129, 71.33942
1224.611, 68.01111
1225.093, 65.27026
1225.575, 65.11688
1226.057, 72.21143
1226.539, 82.07556
1227.021, 89.94330
1227.503, 93.66089
1227.985, 85.78558
1228.468, 57.35394
1228.950, 46.95422
1229.432, 81.36139
1229.914, 90.69324
1230.396, 47.82275
1230.878, 17.66266
1231.360, 34.50336
1231.842, 64.50305
1232.324, 71.82410
1232.807, 64.91394
1233.289, 67.62781
1233.771, 76.12952
1234.253, 69.18616
1234.735, 50.33374
1235.217, 32.68884
1235.699, 18.84546
1236.181, 9.723877
1236.664, 5.283447
1237.146, 0.7431640
1237.628, 8.737671
1238.110, 15.42450
1238.592, 14.95270
1239.074, 9.464966
1239.556, 7.173828
1240.038, 20.79675
1240.521, 14.18713
1241.003, 1.556030
1241.485, 5.896118
1241.967, 36.77527
1242.449, 59.75818
1242.931, 72.89697
1243.413, 89.78247
1243.895, 112.9617
1244.377, 120.6323
1244.859, 106.1324
1245.342, 96.15356
1245.824, 108.9114
1246.306, 125.2169
1246.788, 119.7201
1247.270, 103.2578
1247.752, 85.13708
1248.234, 72.51868
1248.716, 83.07971
1249.199, 103.6571
1249.681, 110.6415
1250.163, 101.3219
1250.645, 81.52161
1251.127, 45.28589
1251.609, 28.61377
1252.091, 57.13867
1252.573, 74.89185
1253.056, 69.36487
1253.538, 58.69434
1254.020, 47.26697
1254.502, 44.42322
1254.984, 61.83411
1255.466, 80.92358
1255.948, 63.60645
1256.430, 21.71851
1256.912, 20.95081
1257.395, 50.51660
1257.877, 62.45544
1258.359, 55.36328
1258.841, 50.75171
1259.323, 54.06653
1259.805, 50.19653
1260.287, 23.29272
1260.769, 10.44348
1261.251, 53.57446
1261.734, 85.40906
1262.216, 58.52942
1262.698, 20.96985
1263.180, 4.997559
1263.662, 6.369385
1264.144, 24.02783
1264.626, 52.64539
1265.108, 60.85754
1265.591, 47.27698
1266.073, 46.79785
1266.555, 58.90198
1267.037, 64.12891
1267.519, 58.74792
1268.001, 48.07031
1268.483, 37.59192
1268.965, 26.26343
1269.448, 11.92847
1269.930, 1.871216
1270.412, 0.5809330
1270.894, 6.461182
1271.376, 11.17188
1271.858, 0.0000000E+00
##END=



