##NAMES=Metastibnite
##RRUFFID=R060755
##IDEAL CHEMISTRY=Sb^3+^_2_S^2-^_3_
##LOCALITY=San Jose mine, Oruro, Bolivia
##OWNER=RRUFF
##SOURCE=Michael Scott
##DESCRIPTION=Dark red semi-metallic botryoidal groups
##STATUS=The identification of this mineral is not yet confirmed.
##URL=rruff.info/R060755
183.239, 0.000
183.721, 2.250
184.203, 56.812
184.685, 161.031
185.167, 312.844
185.649, 521.438
186.131, 772.188
186.613, 998.000
187.096, 1207.531
187.578, 1383.062
188.060, 1495.344
188.542, 1548.969
189.024, 1578.875
189.506, 1570.156
189.988, 1565.656
190.470, 1690.562
190.952, 2069.438
191.435, 2472.406
191.917, 2706.906
192.399, 2792.094
192.881, 2913.875
193.363, 3210.250
193.845, 3609.438
194.327, 3894.156
194.809, 3956.188
195.292, 4021.469
195.774, 4276.844
196.256, 4705.781
196.738, 5135.594
197.220, 5491.812
197.702, 5784.531
198.184, 6053.750
198.666, 6291.000
199.148, 6519.812
199.631, 6753.188
200.113, 6991.094
200.595, 7228.375
201.077, 7469.312
201.559, 7701.219
202.041, 7898.094
202.523, 8034.531
203.005, 8175.188
203.488, 8423.469
203.970, 8741.500
204.452, 8896.031
204.934, 8712.969
205.416, 8363.906
205.898, 8169.969
206.380, 8163.781
206.862, 8217.438
207.344, 8245.562
207.827, 8261.844
208.309, 8329.281
208.791, 8450.406
209.273, 8659.406
209.755, 9000.125
210.237, 9491.250
210.719, 10015.844
211.201, 10543.188
211.684, 11055.656
212.166, 11502.656
212.648, 11841.656
213.130, 12138.594
213.612, 12465.781
214.094, 12804.188
214.576, 13255.375
215.058, 13924.531
215.540, 14749.094
216.023, 15561.188
216.505, 16328.000
216.987, 17072.500
217.469, 17882.844
217.951, 18775.344
218.433, 19507.500
218.915, 19870.875
219.397, 20025.000
219.880, 20301.812
220.362, 20790.688
220.844, 21360.125
221.326, 21859.781
221.808, 22298.594
222.290, 22769.562
222.772, 23373.688
223.254, 24008.188
223.736, 24466.094
224.219, 24674.344
224.701, 24875.156
225.183, 25361.281
225.665, 26084.531
226.147, 26718.375
226.629, 27051.906
227.111, 27316.406
227.593, 27815.000
228.076, 28587.688
228.558, 29462.656
229.040, 30317.750
229.522, 31150.375
230.004, 31967.594
230.486, 32749.312
230.968, 33527.438
231.450, 34327.750
231.932, 35151.562
232.415, 36006.250
232.897, 36896.688
233.379, 37827.594
233.861, 38793.281
234.343, 39851.656
234.825, 40902.719
235.307, 41850.688
235.789, 42707.250
236.271, 43572.625
236.754, 44502.812
237.236, 45480.062
237.718, 46412.469
238.200, 47261.438
238.682, 48111.562
239.164, 49026.688
239.646, 49984.625
240.128, 50919.469
240.611, 51805.781
241.093, 52619.031
241.575, 53364.250
242.057, 53990.344
242.539, 54641.438
243.021, 55399.750
243.503, 56222.812
243.985, 57024.656
244.467, 57783.500
244.950, 58501.312
245.432, 59168.250
245.914, 59742.062
246.396, 60383.312
246.878, 61162.656
247.360, 62026.625
247.842, 62890.531
248.324, 63721.688
248.807, 64596.344
249.289, 65639.281
249.771, 66966.250
250.253, 68150.000
250.735, 68975.031
251.217, 69743.219
251.699, 70797.625
252.181, 72183.438
252.663, 73606.281
253.146, 74698.219
253.628, 75312.125
254.110, 76196.969
254.592, 77554.281
255.074, 79007.344
255.556, 80320.312
256.038, 81475.188
256.520, 82569.188
257.003, 83691.438
257.485, 84854.500
257.967, 85817.094
258.449, 86393.844
258.931, 86992.750
259.413, 87840.750
259.895, 88863.031
260.377, 89838.938
260.859, 90617.125
261.342, 91224.844
261.824, 91874.719
262.306, 92631.312
262.788, 93367.969
263.270, 94077.344
263.752, 94754.188
264.234, 95378.562
264.716, 95938.281
265.198, 96463.156
265.681, 97036.812
266.163, 97850.750
266.645, 98459.062
267.127, 98718.156
267.609, 98825.281
268.091, 98960.000
268.573, 99183.500
269.056, 99457.875
269.538, 99704.656
270.020, 99853.719
270.502, 100124.344
270.984, 100616.250
271.466, 101141.781
271.948, 101550.125
272.430, 101836.719
272.912, 102123.094
273.395, 102564.344
273.877, 103218.219
274.359, 103769.938
274.841, 104036.656
275.323, 104357.938
275.805, 104894.875
276.287, 105609.188
276.769, 106352.969
277.251, 106986.219
277.734, 107522.906
278.216, 108203.812
278.698, 109194.188
279.180, 110109.500
279.662, 110752.375
280.144, 111240.750
280.626, 111790.250
281.108, 112556.219
281.591, 113400.750
282.073, 113938.344
282.555, 114013.219
283.037, 114130.969
283.519, 114535.031
284.001, 115036.188
284.483, 115446.375
284.965, 115703.875
285.447, 115885.188
285.930, 116121.281
286.412, 116431.500
286.894, 116603.844
287.376, 116538.812
287.858, 116333.500
288.340, 116077.281
288.822, 115781.500
289.304, 115411.688
289.786, 114909.062
290.269, 114301.625
290.751, 113713.688
291.233, 113122.062
291.715, 112645.031
292.197, 112477.938
292.679, 112573.312
293.161, 112556.406
293.643, 112147.656
294.125, 111573.188
294.608, 111201.594
295.090, 111072.812
295.572, 111094.844
296.054, 111214.250
296.536, 111429.188
297.018, 111744.562
297.500, 112247.906
297.983, 112776.000
298.465, 113156.000
298.947, 113403.969
299.429, 113693.438
299.911, 114131.938
300.393, 114665.312
300.875, 115114.812
301.357, 115356.781
301.839, 115663.219
302.322, 116227.688
302.804, 116911.031
303.286, 117478.219
303.768, 117854.719
304.250, 118026.562
304.732, 117940.812
305.214, 117405.469
305.696, 117004.812
306.178, 116970.719
306.661, 116981.781
307.143, 116739.875
307.625, 116195.594
308.107, 115492.812
308.589, 114789.531
309.071, 114110.469
309.553, 113310.062
310.035, 112366.031
310.517, 111351.812
311.000, 110292.062
311.482, 109193.812
311.964, 108035.156
312.446, 106789.719
312.928, 105480.406
313.410, 104320.281
313.892, 103533.844
314.374, 102643.594
314.857, 101494.688
315.339, 100234.344
315.821, 99051.656
316.303, 98030.906
316.785, 97102.562
317.267, 96104.594
317.749, 94954.750
318.231, 93954.906
318.714, 93313.812
319.196, 92711.219
319.678, 91877.844
320.160, 90792.312
320.642, 89724.469
321.124, 88965.938
321.606, 88519.406
322.088, 88027.656
322.570, 87401.531
323.052, 86794.781
323.535, 86315.500
324.017, 85921.844
324.499, 85488.188
324.981, 84916.906
325.463, 84263.875
325.945, 83657.250
326.427, 83107.656
326.909, 82555.594
327.392, 82009.406
327.874, 81423.094
328.356, 80711.281
328.838, 79826.375
329.320, 78870.062
329.802, 77934.094
330.284, 77005.781
330.766, 76021.344
331.249, 74966.594
331.731, 73843.719
332.213, 72650.969
332.695, 71363.500
333.177, 70111.094
333.659, 68989.406
334.141, 67906.906
334.623, 66719.062
335.105, 65404.656
335.588, 64045.438
336.070, 62720.875
336.552, 61442.719
337.034, 60184.875
337.516, 58968.969
337.998, 57760.188
338.480, 56519.469
338.962, 55270.281
339.444, 54076.469
339.927, 52976.500
340.409, 51968.562
340.891, 51034.906
341.373, 50212.312
341.855, 49421.219
342.337, 48671.625
342.819, 47935.000
343.301, 47164.844
343.784, 46351.188
344.266, 45530.250
344.748, 44781.062
345.230, 44154.844
345.712, 43443.062
346.194, 42566.438
346.676, 41655.188
347.158, 40741.812
347.641, 39843.938
348.123, 39008.438
348.605, 38314.531
349.087, 37728.188
349.569, 36996.031
350.051, 36066.188
350.533, 35072.500
351.015, 34005.688
351.497, 32933.125
351.979, 31964.000
352.462, 31172.656
352.944, 30429.344
353.426, 29584.156
353.908, 28637.344
354.390, 27598.188
354.872, 26418.594
355.354, 25189.719
355.836, 24032.094
356.319, 22957.344
356.801, 21871.781
357.283, 20708.594
357.765, 19511.188
358.247, 18374.312
358.729, 17314.438
359.211, 16286.938
359.693, 15236.031
360.176, 14167.469
360.658, 13231.719
361.140, 12461.906
361.622, 11799.344
362.104, 11226.906
362.586, 10736.188
363.068, 10310.938
363.550, 9944.281
364.032, 9634.000
364.515, 9366.375
364.997, 9118.688
365.479, 8946.656
365.961, 8864.000
366.443, 8852.219
366.925, 8914.969
367.407, 9042.031
367.889, 9183.312
368.371, 9272.281
368.854, 9288.875
369.336, 9334.219
369.818, 9351.562
370.300, 9450.062
370.782, 9728.094
371.264, 10117.906
371.746, 10479.781
372.228, 10739.250
372.711, 10902.625
373.193, 10961.812
373.675, 10861.188
374.157, 10804.375
374.639, 10992.062
375.121, 11182.250
375.603, 11136.125
376.085, 10795.219
376.568, 10365.125
377.050, 9969.812
377.532, 9619.188
378.014, 9372.875
378.496, 9287.938
378.978, 9215.406
379.460, 9020.688
379.942, 8719.656
380.424, 8336.469
380.906, 7781.406
381.389, 7215.750
381.871, 6810.500
382.353, 6550.719
382.835, 6292.125
383.317, 5940.875
383.799, 5543.062
384.281, 5275.500
384.763, 5181.281
385.246, 5143.406
385.728, 5251.219
386.210, 5360.000
386.692, 5234.500
387.174, 4845.812
387.656, 4467.781
388.138, 4461.125
388.620, 4936.156
389.103, 5288.438
389.585, 5365.031
390.067, 5479.781
390.549, 5784.906
391.031, 6216.812
391.513, 6625.719
391.995, 6922.750
392.477, 7150.906
392.959, 7444.875
393.442, 7851.375
393.924, 8192.906
394.406, 8400.031
394.888, 8537.719
395.370, 8650.812
395.852, 8745.938
396.334, 8799.250
396.816, 8785.781
397.298, 8713.562
397.781, 8594.219
398.263, 8398.094
398.745, 8240.906
399.227, 8316.375
399.709, 8522.125
400.191, 8499.375
400.673, 7962.625
401.155, 7376.312
401.638, 7112.375
402.120, 7083.969
402.602, 6974.875
403.084, 6631.094
403.566, 6193.719
404.048, 5964.656
404.530, 6142.750
405.012, 6152.500
405.495, 5848.844
405.977, 5461.188
406.459, 5158.969
406.941, 4962.531
407.423, 4799.188
407.905, 4590.125
408.387, 4350.000
408.869, 4335.969
409.351, 4855.031
409.833, 5232.094
410.316, 5191.125
410.798, 4996.844
411.280, 4964.188
411.762, 5199.844
412.244, 5557.375
412.726, 5846.656
413.208, 6057.562
413.690, 6294.094
414.173, 6549.875
414.655, 6847.250
415.137, 7224.938
415.619, 7655.969
416.101, 8029.125
416.583, 8277.969
417.065, 8454.781
417.547, 8638.625
418.030, 8824.406
418.512, 8924.000
418.994, 8863.875
419.476, 8711.938
419.958, 8659.125
420.440, 8804.469
420.922, 8840.344
421.404, 8596.812
421.886, 8265.344
422.369, 8049.781
422.851, 7986.875
423.333, 8002.344
423.815, 8031.500
424.297, 8077.250
424.779, 8104.875
425.261, 8178.719
425.743, 8163.938
426.225, 7962.188
426.708, 7672.188
427.190, 7419.250
427.672, 7253.188
428.154, 7150.219
428.636, 7097.594
429.118, 7113.969
429.600, 7047.875
430.082, 6810.438
430.565, 6553.000
431.047, 6363.000
431.529, 6236.500
432.011, 6145.125
432.493, 6052.031
432.975, 5998.375
433.457, 6101.500
433.939, 6358.375
434.422, 6498.438
434.904, 6346.750
435.386, 6034.438
435.868, 5860.344
436.350, 5823.094
436.832, 5899.156
437.314, 6188.250
437.796, 6531.781
438.278, 6739.875
438.760, 6796.938
439.243, 6835.750
439.725, 6977.812
440.207, 7221.031
440.689, 7435.719
441.171, 7618.125
441.653, 7770.094
442.135, 7864.906
442.617, 7937.281
443.100, 8030.969
443.582, 8158.094
444.064, 8284.594
444.546, 8367.125
445.028, 8401.250
445.510, 8407.688
445.992, 8355.094
446.474, 8310.219
446.957, 8360.438
447.439, 8450.781
447.921, 8433.594
448.403, 8214.656
448.885, 7907.906
449.367, 7612.188
449.849, 7330.906
450.331, 7082.969
450.813, 6880.062
451.296, 6713.500
451.778, 6580.375
452.260, 6510.438
452.742, 6391.906
453.224, 6166.781
453.706, 5935.219
454.188, 5765.312
454.670, 5660.906
455.152, 5607.750
455.635, 5601.625
456.117, 5626.594
456.599, 5609.500
457.081, 5477.531
457.563, 5421.312
458.045, 5485.250
458.527, 5599.156
459.009, 5677.375
459.492, 5722.812
459.974, 5853.656
460.456, 6227.469
460.938, 6775.000
461.420, 7214.469
461.902, 7523.125
462.384, 7779.969
462.866, 8059.938
463.349, 8301.625
463.831, 8385.250
464.313, 8243.312
464.795, 8069.688
465.277, 7889.656
465.759, 7769.094
466.241, 7891.031
466.723, 8289.875
467.205, 8668.031
467.688, 8712.531
468.170, 8397.438
468.652, 8153.062
469.134, 8043.500
469.616, 7922.375
470.098, 7704.438
470.580, 7461.531
471.062, 7303.344
471.544, 7264.438
472.027, 7271.156
472.509, 7216.031
472.991, 7088.281
473.473, 6977.469
473.955, 6932.438
474.437, 6840.344
474.919, 6549.562
475.401, 6170.375
475.884, 5982.500
476.366, 6231.438
476.848, 6511.781
477.330, 6343.031
477.812, 5827.000
478.294, 5423.094
478.776, 5275.188
479.258, 5299.781
479.741, 5413.344
480.223, 5657.281
480.705, 5822.906
481.187, 5877.906
481.669, 5887.125
482.151, 5817.656
482.633, 5739.469
483.115, 5807.594
483.597, 6107.719
484.079, 6538.750
484.562, 6894.500
485.044, 7185.969
485.526, 7369.438
486.008, 7222.406
486.490, 7148.469
486.972, 7402.000
487.454, 7918.469
487.936, 8449.469
488.419, 8907.125
488.901, 9263.750
489.383, 9446.781
489.865, 9458.625
490.347, 9441.188
490.829, 9437.406
491.311, 9437.844
491.793, 9431.875
492.276, 9423.000
492.758, 9386.156
493.240, 9298.406
493.722, 9197.094
494.204, 9127.000
494.686, 9073.125
495.168, 8980.938
495.650, 8817.656
496.132, 8600.125
496.615, 8362.312
497.097, 8065.406
497.579, 7841.062
498.061, 7739.531
498.543, 7679.781
499.025, 7603.719
499.507, 7521.000
499.989, 7492.469
500.471, 7613.219
500.954, 7776.031
501.436, 7737.312
501.918, 7489.812
502.400, 7315.219
502.882, 7338.969
503.364, 7476.938
503.846, 7593.500
504.328, 7690.000
504.810, 7775.719
505.293, 7870.562
505.775, 7945.250
506.257, 7950.156
506.739, 7909.688
507.221, 7901.562
507.703, 7970.625
508.185, 8111.625
508.668, 8328.562
509.150, 8735.188
509.632, 8973.281
510.114, 8852.969
510.596, 8697.000
511.078, 8693.156
511.560, 8831.000
512.042, 8999.625
512.524, 9155.625
513.006, 9285.875
513.489, 9350.938
513.971, 9350.312
514.453, 9391.719
514.935, 9547.156
515.417, 9715.938
515.899, 9698.406
516.381, 9438.438
516.864, 9325.406
517.346, 9582.125
517.828, 9850.906
518.310, 9851.094
518.792, 9648.031
519.274, 9453.406
519.756, 9376.812
520.238, 9398.125
520.720, 9488.312
521.203, 9687.281
521.685, 9836.531
522.167, 9903.281
522.649, 9929.438
523.131, 9903.031
523.613, 9848.594
524.095, 9826.625
524.577, 9835.250
525.059, 9922.031
525.542, 10249.969
526.024, 10750.438
526.506, 11028.906
526.988, 10950.656
527.470, 10648.938
527.952, 10247.719
528.434, 9704.719
528.916, 9339.438
529.398, 9236.812
529.881, 9229.188
530.363, 9295.812
530.845, 9392.938
531.327, 9445.344
531.809, 9426.812
532.291, 9412.719
532.773, 9552.938
533.255, 9880.625
533.737, 10042.000
534.220, 9917.531
534.702, 9773.938
535.184, 9716.312
535.666, 9742.875
536.148, 9868.531
536.630, 10144.438
537.112, 10413.938
537.594, 10582.656
538.077, 10656.281
538.559, 10604.188
539.041, 10420.750
539.523, 10272.188
540.005, 10337.438
540.487, 10606.812
540.969, 10713.875
541.451, 10532.312
541.933, 10342.438
542.416, 10183.125
542.898, 10044.062
543.380, 9912.875
543.862, 9790.094
544.344, 9692.250
544.826, 9665.594
545.308, 9683.219
545.791, 9599.688
546.273, 9389.750
546.755, 9226.375
547.237, 9217.969
547.719, 9291.625
548.201, 9319.469
548.683, 9309.750
549.165, 9228.062
549.647, 8948.438
550.130, 8674.531
550.612, 8596.844
551.094, 8702.625
551.576, 8899.938
552.058, 9146.844
552.540, 9394.594
553.022, 9488.438
553.504, 9302.250
553.987, 9284.125
554.469, 9725.250
554.951, 10131.938
555.433, 10177.562
555.915, 9966.125
556.397, 9856.469
556.879, 10067.281
557.361, 10358.375
557.843, 10456.594
558.326, 10409.406
558.808, 10400.281
559.290, 10481.312
559.772, 10605.938
560.254, 10733.219
560.736, 10870.062
561.218, 10925.281
561.700, 10847.125
562.182, 10755.000
562.665, 10669.688
563.147, 10593.094
563.629, 10533.438
564.111, 10488.062
564.593, 10422.938
565.075, 10262.500
565.557, 10033.719
566.039, 9953.594
566.521, 10074.062
567.004, 10156.281
567.486, 10090.469
567.968, 9900.094
568.450, 9637.219
568.932, 9271.844
569.414, 8933.281
569.896, 8578.312
570.378, 8328.125
570.860, 8406.750
571.343, 8721.219
571.825, 8887.688
572.307, 8662.969
572.789, 8243.875
573.271, 8178.875
573.753, 8641.531
574.235, 8910.906
574.718, 8733.875
575.200, 8530.344
575.682, 8552.281
576.164, 8739.281
576.646, 8900.656
577.128, 8943.375
577.610, 8979.094
578.092, 9110.844
578.574, 9306.719
579.057, 9494.281
579.539, 9655.656
580.021, 9784.219
580.503, 9867.000
580.985, 9903.250
581.467, 9956.844
581.949, 10024.406
582.431, 10111.156
582.914, 10299.375
583.396, 10452.156
583.878, 10410.906
584.360, 10172.906
584.842, 9905.812
585.324, 9687.125
585.806, 9543.156
586.288, 9583.750
586.770, 9807.375
587.253, 9970.000
587.735, 9957.500
588.217, 9863.031
588.699, 9849.031
589.181, 9969.875
589.663, 9968.000
590.145, 9654.156
590.627, 9406.062
591.109, 9516.969
591.592, 9802.438
592.074, 9939.094
592.556, 9805.750
593.038, 9525.438
593.520, 9181.875
594.002, 8791.531
594.484, 8659.094
594.966, 8879.406
595.448, 9128.719
595.931, 9208.156
596.413, 9192.188
596.895, 9265.406
597.377, 9479.969
597.859, 9656.969
598.341, 9709.781
598.823, 9725.938
599.305, 9810.688
599.787, 9941.844
600.270, 10008.188
600.752, 9939.500
601.234, 9792.656
601.716, 9702.688
602.198, 9688.719
602.680, 9651.594
603.162, 9550.031
603.644, 9467.031
604.127, 9460.062
604.609, 9514.469
605.091, 9595.344
605.573, 9755.969
606.055, 9850.125
606.537, 9719.281
607.019, 9494.625
607.501, 9401.438
607.984, 9460.469
608.466, 9490.719
608.948, 9317.188
609.430, 9004.344
609.912, 8932.938
610.394, 9216.125
610.876, 9494.562
611.358, 9769.594
611.841, 9962.969
612.323, 9968.875
612.805, 9825.875
613.287, 9726.312
613.769, 9838.938
614.251, 9943.906
614.733, 9759.469
615.215, 9415.062
615.697, 9276.719
616.180, 9446.062
616.662, 9660.156
617.144, 9632.000
617.626, 9365.750
618.108, 9187.844
618.590, 9110.562
619.072, 9116.438
619.554, 9264.375
620.036, 9445.438
620.519, 9554.344
621.001, 9587.000
621.483, 9633.094
621.965, 9828.562
622.447, 10007.406
622.929, 9838.188
623.411, 9420.875
623.893, 9280.781
624.375, 9624.094
624.858, 10105.406
625.340, 10262.781
625.822, 10045.375
626.304, 9917.938
626.786, 10016.125
627.268, 10049.188
627.750, 9882.969
628.232, 9664.875
628.714, 9551.000
629.197, 9570.688
629.679, 9657.938
630.161, 9814.375
630.643, 9990.344
631.125, 10109.281
631.607, 10170.906
632.089, 10183.719
632.571, 10156.375
633.054, 10056.812
633.536, 9804.188
634.018, 9308.812
634.500, 9066.750
634.982, 9298.469
635.464, 9511.125
635.946, 9509.406
636.428, 9429.125
636.911, 9450.156
637.393, 9610.406
637.875, 9793.188
638.357, 9924.156
638.839, 10008.312
639.321, 10030.094
639.803, 9996.531
640.285, 10032.688
640.768, 10212.719
641.250, 10418.719
641.732, 10433.469
642.214, 10152.812
642.696, 10055.219
643.178, 10419.750
643.660, 10640.031
644.142, 10386.500
644.624, 9932.531
645.107, 9649.500
645.589, 9630.844
646.071, 9668.125
646.553, 9631.156
647.035, 9534.656
647.517, 9399.531
647.999, 9231.375
648.481, 9016.031
648.963, 8727.469
649.446, 8466.781
649.928, 8408.656
650.410, 8593.250
650.892, 8843.500
651.374, 9346.250
651.856, 9700.156
652.338, 9628.688
652.820, 9397.188
653.302, 9360.656
653.785, 9600.969
654.267, 9863.656
654.749, 9963.719
655.231, 9964.594
655.713, 9913.500
656.195, 9836.438
656.677, 9935.062
657.159, 10325.312
657.641, 10768.250
658.124, 10853.906
658.606, 10466.062
659.088, 10247.219
659.570, 10365.812
660.052, 10461.938
660.534, 10446.375
661.016, 10352.812
661.498, 10232.969
661.981, 10097.969
662.463, 9886.188
662.945, 9459.562
663.427, 9003.812
663.909, 8772.094
664.391, 8740.656
664.873, 8792.188
665.355, 8887.219
665.838, 8961.688
666.320, 8901.188
666.802, 8677.500
667.284, 8610.094
667.766, 8791.906
668.248, 8993.312
668.730, 9153.469
669.212, 9294.281
669.695, 9442.531
670.177, 9600.531
670.659, 9730.406
671.141, 9822.438
671.623, 9872.125
672.105, 9838.219
672.587, 9761.500
673.069, 9748.062
673.551, 9828.438
674.034, 9925.375
674.516, 9939.188
674.998, 9876.906
675.480, 9900.219
675.962, 10074.281
676.444, 10172.156
676.926, 10070.500
677.408, 9906.500
677.890, 9819.406
678.373, 9807.719
678.855, 9791.594
679.337, 9776.500
679.819, 9727.688
680.301, 9599.188
680.783, 9435.469
681.265, 9296.062
681.747, 9194.938
682.229, 9114.094
682.712, 9036.562
683.194, 8964.594
683.676, 8907.750
684.158, 8863.375
684.640, 8837.750
685.122, 8831.188
685.604, 8844.469
686.086, 8887.188
686.568, 8957.094
687.051, 9014.094
687.533, 9133.562
688.015, 9146.500
688.497, 8856.969
688.979, 8546.812
689.461, 8517.312
689.943, 8751.219
690.425, 9016.500
690.908, 9178.812
691.390, 9284.094
691.872, 9416.812
692.354, 9565.781
692.836, 9621.688
693.318, 9545.438
693.800, 9523.656
694.282, 9738.719
694.765, 10111.812
695.247, 10266.969
695.729, 9868.594
696.211, 9752.094
696.693, 10241.688
697.175, 10719.938
697.657, 10805.344
698.139, 10596.875
698.622, 10347.250
699.104, 10129.688
699.586, 9957.656
700.068, 9891.562
700.550, 9861.438
701.032, 9721.812
701.514, 9477.156
701.996, 9251.875
702.478, 9117.438
702.961, 9033.000
703.443, 8906.938
703.925, 8713.812
704.407, 8604.625
704.889, 8737.812
705.371, 8728.812
705.853, 8191.250
706.335, 7522.562
706.817, 7278.625
707.300, 7571.281
707.782, 7866.469
708.264, 8013.438
708.746, 8066.438
709.228, 8034.594
709.710, 7948.594
710.192, 7841.875
710.674, 7731.031
711.156, 7662.781
711.639, 7683.531
712.121, 7789.375
712.603, 7988.125
713.085, 8296.094
713.567, 8544.938
714.049, 8664.250
714.531, 8725.594
715.013, 8816.531
715.495, 8940.125
715.978, 9010.656
716.460, 9015.281
716.942, 8983.500
717.424, 8854.969
717.906, 8740.531
718.388, 8785.000
718.870, 8958.188
719.352, 9065.719
719.835, 8942.906
720.317, 8794.375
720.799, 8965.719
721.281, 9308.688
721.763, 9340.125
722.245, 8985.094
722.727, 8611.500
723.209, 8494.344
723.692, 8560.406
724.174, 8580.406
724.656, 8602.156
725.138, 8434.125
725.620, 7778.875
726.102, 7273.438
726.584, 7422.750
727.066, 7897.594
727.549, 8060.250
728.031, 7732.781
728.513, 7404.281
728.995, 7260.969
729.477, 7207.188
729.959, 7222.531
730.441, 7251.000
730.923, 7149.812
731.405, 6870.719
731.888, 6603.219
732.370, 6636.219
732.852, 6894.188
733.334, 6905.875
733.816, 6630.188
734.298, 6550.000
734.780, 6930.969
735.262, 7382.781
735.744, 7332.125
736.227, 6680.625
736.709, 6441.938
737.191, 7068.469
737.673, 7499.594
738.155, 7371.375
738.637, 7073.156
739.119, 6926.719
739.601, 6951.844
740.083, 7022.188
740.566, 7123.781
741.048, 7195.406
741.530, 7150.656
742.012, 7051.844
742.494, 7016.062
742.976, 7056.688
743.458, 7128.250
743.940, 7210.031
744.422, 7260.969
744.905, 7133.219
745.387, 6780.500
745.869, 6631.344
746.351, 6759.375
746.833, 7005.375
747.315, 7368.625
747.797, 7748.875
748.279, 7917.750
748.762, 7825.438
749.244, 7694.281
749.726, 7433.312
750.208, 7260.844
750.690, 7408.750
751.172, 7662.375
751.654, 7703.250
752.136, 7463.219
752.619, 7135.906
753.101, 6769.219
753.583, 6464.531
754.065, 6473.500
754.547, 6697.312
755.029, 6722.250
755.511, 6437.938
755.993, 6127.812
756.476, 6082.375
756.958, 6239.531
757.440, 6195.594
757.922, 5868.594
758.404, 5614.375
758.886, 5551.812
759.368, 5503.781
759.850, 5257.719
760.332, 4929.844
760.815, 4851.000
761.297, 5181.125
761.779, 5496.594
762.261, 5708.719
762.743, 5855.344
763.225, 5914.656
763.707, 5937.000
764.189, 6032.594
764.671, 6239.531
765.154, 6427.500
765.636, 6419.656
766.118, 6319.531
766.600, 6364.531
767.082, 6536.719
767.564, 6679.656
768.046, 6736.906
768.528, 6750.500
769.010, 6771.594
769.493, 6799.312
769.975, 6806.219
770.457, 6801.844
770.939, 6760.531
771.421, 6676.906
771.903, 6560.688
772.385, 6396.281
772.867, 6204.719
773.349, 6065.281
773.832, 6062.531
774.314, 6006.844
774.796, 5865.594
775.278, 5640.344
775.760, 5251.844
776.242, 4790.438
776.724, 4452.781
777.206, 4323.062
777.689, 4296.062
778.171, 4317.094
778.653, 4349.938
779.135, 4266.594
779.617, 4099.531
780.099, 4113.281
780.581, 4420.312
781.063, 4773.594
781.545, 4829.031
782.028, 4603.531
782.510, 4580.406
782.992, 4840.875
783.474, 5055.344
783.956, 5100.750
784.438, 5116.938
784.920, 5218.344
785.403, 5397.281
785.885, 5622.312
786.367, 6060.344
786.849, 6299.500
787.331, 6009.969
787.813, 5711.625
788.295, 5875.469
788.777, 6319.656
789.259, 6565.375
789.742, 6425.594
790.224, 6201.938
790.706, 6146.281
791.188, 6154.969
791.670, 6070.031
792.152, 5909.000
792.634, 5772.875
793.116, 5699.594
793.598, 5622.781
794.081, 5475.594
794.563, 5260.281
795.045, 4915.031
795.527, 4392.875
796.009, 4131.906
796.491, 4346.188
796.973, 4610.719
797.455, 4528.594
797.938, 4168.062
798.420, 3958.875
798.902, 4066.719
799.384, 4077.625
799.866, 3884.438
800.348, 3683.625
800.830, 3531.156
801.312, 3459.656
801.794, 3552.688
802.277, 3852.188
802.759, 4092.219
803.241, 4100.156
803.723, 4023.812
804.205, 3964.250
804.687, 3929.406
805.169, 3937.375
805.651, 3982.625
806.133, 3981.750
806.616, 3791.031
807.098, 3593.594
807.580, 3952.031
808.062, 4758.688
808.544, 5074.656
809.026, 4704.531
809.508, 4254.438
809.990, 4153.312
810.472, 4282.406
810.955, 4289.875
811.437, 4081.000
811.919, 4063.156
812.401, 4399.469
812.883, 4675.062
813.365, 4670.438
813.847, 4519.031
814.330, 4387.844
814.812, 4278.344
815.294, 4192.031
815.776, 4103.125
816.258, 4071.219
816.740, 4181.688
817.222, 4319.656
817.704, 4347.906
818.186, 4282.875
818.669, 4267.344
819.151, 4413.000
819.633, 4535.969
820.115, 4475.531
820.597, 4281.875
821.079, 3966.844
821.561, 3587.625
822.043, 3336.656
822.526, 3306.406
823.008, 3365.812
823.490, 3326.250
823.972, 3207.000
824.454, 3153.938
824.936, 3165.469
825.418, 3263.156
825.900, 3478.281
826.382, 3690.594
826.865, 3767.594
827.347, 3724.594
827.829, 3724.094
828.311, 3776.469
828.793, 3846.125
829.275, 3948.594
829.757, 4044.969
830.239, 4103.312
830.721, 4143.250
831.204, 4214.812
831.686, 4347.844
832.168, 4417.062
832.650, 4321.562
833.132, 4229.750
833.614, 4240.250
834.096, 4312.156
834.578, 4392.719
835.060, 4468.188
835.543, 4538.281
836.025, 4583.812
836.507, 4646.969
836.989, 4874.188
837.471, 5115.406
837.953, 4998.844
838.435, 4556.125
838.917, 4213.906
839.400, 4224.688
839.882, 4387.969
840.364, 4368.844
840.846, 4200.562
841.328, 4157.719
841.810, 4259.938
842.292, 4310.750
842.774, 4228.031
843.256, 4111.844
843.739, 4088.000
844.221, 4150.156
844.703, 4157.812
845.185, 4127.719
845.667, 3983.062
846.149, 3459.844
846.631, 3109.938
847.114, 3505.438
847.596, 4327.188
848.078, 4804.469
848.560, 4799.781
849.042, 4723.188
849.524, 4490.562
850.006, 4343.375
850.488, 4506.875
850.970, 4760.219
851.453, 4786.781
851.935, 4564.375
852.417, 4387.812
852.899, 4501.594
853.381, 4609.000
853.863, 4493.656
854.345, 4239.281
854.827, 3855.625
855.309, 3441.719
855.792, 3310.781
856.274, 3645.031
856.756, 4054.812
857.238, 3971.312
857.720, 3611.250
858.202, 3618.750
858.684, 3952.625
859.166, 4139.406
859.648, 4018.625
860.131, 3808.062
860.613, 3724.156
861.095, 3749.062
861.577, 3828.906
862.059, 3982.844
862.541, 4020.781
863.023, 3882.188
863.505, 3728.344
863.987, 3682.531
864.470, 3669.531
864.952, 3500.250
865.434, 3090.688
865.916, 2830.938
866.398, 2802.219
866.880, 2821.344
867.362, 2905.438
867.844, 2968.438
868.327, 2918.906
868.809, 2769.562
869.291, 2618.938
869.773, 2538.844
870.255, 2386.438
870.737, 1954.062
871.219, 1595.906
871.701, 1641.375
872.183, 1946.844
872.666, 2221.500
873.148, 2384.812
873.630, 2494.844
874.112, 2559.719
874.594, 2606.844
875.076, 2632.312
875.558, 2665.719
876.041, 2764.281
876.523, 2927.094
877.005, 3108.969
877.487, 3291.750
877.969, 3430.125
878.451, 3398.188
878.933, 3279.375
879.415, 3352.594
879.897, 3602.062
880.380, 3758.594
880.862, 3710.531
881.344, 3616.406
881.826, 3685.031
882.308, 3878.469
882.790, 3987.594
883.272, 4019.281
883.754, 3890.406
884.237, 3538.625
884.719, 3272.312
885.201, 3349.750
885.683, 3615.094
886.165, 3629.406
886.647, 3286.688
887.129, 3092.125
887.611, 3094.844
888.093, 3159.625
888.576, 3330.188
889.058, 3453.688
889.540, 3278.750
890.022, 2818.406
890.504, 2624.469
890.986, 2908.500
891.468, 3136.562
891.950, 3212.625
892.432, 3248.812
892.915, 3332.906
893.397, 3415.250
893.879, 3403.688
894.361, 3279.875
894.843, 3103.406
895.325, 2807.531
895.807, 2564.500
896.289, 2479.156
896.771, 2491.781
897.254, 2567.969
897.736, 2674.812
898.218, 2735.531
898.700, 2705.812
899.182, 2658.781
899.664, 2635.188
900.146, 2635.812
900.628, 2644.844
901.110, 2680.844
901.593, 2822.031
902.075, 3070.406
902.557, 3260.938
903.039, 3234.312
903.521, 3098.594
904.003, 2979.906
904.485, 2905.750
904.968, 2987.281
905.450, 3214.156
905.932, 3440.750
906.414, 3593.344
906.896, 3648.656
907.378, 3505.406
907.860, 3220.312
908.342, 3185.125
908.824, 3394.688
909.307, 3582.906
909.789, 3684.375
910.271, 3712.688
910.753, 3673.906
911.235, 3576.031
911.717, 3408.969
912.199, 3126.250
912.681, 3123.125
913.164, 3527.844
913.646, 3833.375
914.128, 3825.406
914.610, 3637.594
915.092, 3394.781
915.574, 3104.188
916.056, 2995.750
916.538, 3233.594
917.020, 3318.188
917.503, 3146.844
917.985, 2877.969
918.467, 2474.156
918.949, 2082.594
919.431, 2027.375
919.913, 2401.938
920.395, 2658.969
920.877, 2804.625
921.359, 2795.281
921.842, 2484.469
922.324, 2127.844
922.806, 1889.438
923.288, 1785.406
923.770, 1835.844
924.252, 2114.719
924.734, 2362.344
925.216, 2504.688
925.698, 2597.938
926.181, 2627.469
926.663, 2653.438
927.145, 2785.781
927.627, 3006.688
928.109, 3115.125
928.591, 2875.594
929.073, 2747.781
929.555, 3153.219
930.037, 3660.906
930.520, 3852.031
931.002, 3790.031
931.484, 3641.688
931.966, 3468.281
932.448, 3401.156
932.930, 3618.250
933.412, 3901.531
933.894, 4086.531
934.377, 4160.219
934.859, 4057.375
935.341, 3819.781
935.823, 3597.406
936.305, 3465.125
936.787, 3357.219
937.269, 3244.906
937.751, 3092.469
938.234, 2756.062
938.716, 2333.656
939.198, 2126.812
939.680, 2177.375
940.162, 2279.812
940.644, 2301.688
941.126, 2262.906
941.608, 2124.344
942.091, 1956.062
942.573, 2079.688
943.055, 2455.625
943.537, 2683.531
944.019, 2633.625
944.501, 2487.938
944.983, 2411.688
945.465, 2377.219
945.947, 2306.188
946.430, 2200.500
946.912, 2058.969
947.394, 1875.125
947.876, 1936.594
948.358, 2408.156
948.840, 2921.625
949.322, 2957.969
949.804, 2613.156
950.286, 2640.188
950.769, 3094.281
951.251, 3307.750
951.733, 3130.906
952.215, 2922.531
952.697, 2882.625
953.179, 2954.656
953.661, 3051.844
954.143, 3176.500
954.625, 3256.781
955.108, 3299.750
955.590, 3264.906
956.072, 3116.875
956.554, 2949.344
957.036, 2822.594
957.518, 2736.594
958.000, 2695.219
958.482, 2712.906
958.964, 2730.375
959.447, 2756.531
959.929, 2767.875
960.411, 2710.125
960.893, 2711.250
961.375, 2967.031
961.857, 3378.156
962.339, 3466.844
962.821, 2983.656
963.304, 2711.250
963.786, 2764.281
964.268, 2859.812
964.750, 2948.250
965.232, 2986.188
965.714, 2867.031
966.196, 2612.938
966.678, 2548.031
967.161, 2884.875
967.643, 3076.094
968.125, 3036.844
968.607, 2927.906
969.089, 2756.250
969.571, 2591.719
970.053, 2541.469
970.535, 2609.125
971.018, 2643.750
971.500, 2556.812
971.982, 2553.031
972.464, 2766.875
972.946, 2967.062
973.428, 2993.312
973.910, 2930.000
974.392, 2910.438
974.874, 2945.719
975.357, 3018.625
975.839, 3260.500
976.321, 3353.812
976.803, 3057.281
977.285, 2726.969
977.767, 2623.719
978.249, 2673.812
978.731, 2714.156
979.213, 2725.125
979.696, 2688.250
980.178, 2470.906
980.660, 2371.438
981.142, 2690.500
981.624, 3015.375
982.106, 2947.094
982.588, 2602.281
983.070, 2321.531
983.552, 2173.906
984.035, 2096.594
984.517, 2150.469
984.999, 2176.562
985.481, 2057.688
985.963, 1908.000
986.445, 1889.125
986.927, 1940.500
987.409, 1817.469
987.891, 1370.625
988.374, 1094.812
988.856, 1370.250
989.338, 1640.625
989.820, 1513.938
990.302, 1264.312
990.784, 1253.094
991.266, 1429.719
991.748, 1457.625
992.231, 1188.156
992.713, 917.219
993.195, 683.406
993.677, 584.438
994.159, 807.719
994.641, 1124.469
995.123, 1205.719
995.605, 1087.625
996.088, 1111.938
996.570, 1446.750
997.052, 1799.500
997.534, 2085.375
998.016, 2289.750
998.498, 2333.500
998.980, 2325.875
999.462, 2411.406
999.945, 2593.375
1000.427, 2782.000
1000.909, 2962.812
1001.391, 3093.188
1001.873, 3141.906
1002.355, 3139.781
1002.837, 3086.094
1003.319, 3009.906
1003.801, 2939.094
1004.284, 2883.000
1004.766, 2864.531
1005.248, 2963.000
1005.730, 2965.750
1006.212, 2669.688
1006.694, 2351.406
1007.176, 2196.531
1007.658, 2172.500
1008.140, 2278.219
1008.623, 2469.062
1009.105, 2495.281
1009.587, 2133.125
1010.069, 1828.594
1010.551, 1853.375
1011.033, 1940.312
1011.515, 1846.094
1011.997, 1702.000
1012.479, 1747.438
1012.962, 1988.500
1013.444, 2188.844
1013.926, 2201.219
1014.408, 2252.812
1014.890, 2533.031
1015.372, 2788.000
1015.854, 2835.906
1016.336, 2731.750
1016.819, 2521.812
1017.301, 2240.219
1017.783, 2053.969
1018.265, 2074.938
1018.747, 2108.938
1019.229, 2071.094
1019.711, 2035.000
1020.193, 2048.250
1020.675, 2098.281
1021.158, 2193.812
1021.640, 2319.531
1022.122, 2352.406
1022.604, 2168.938
1023.086, 2027.375
1023.568, 2056.344
1024.050, 2104.844
1024.532, 2105.688
1025.015, 2054.156
1025.497, 1898.562
1025.979, 1663.719
1026.461, 1585.469
1026.943, 1835.094
1027.425, 2067.625
1027.907, 2160.625
1028.389, 2256.594
1028.871, 2524.438
1029.354, 2783.906
1029.836, 2760.906
1030.318, 2465.750
1030.800, 2226.969
1031.282, 1973.656
1031.764, 1972.094
1032.246, 2613.469
1032.728, 3107.281
1033.210, 2904.344
1033.693, 2457.094
1034.175, 2325.812
1034.657, 2498.062
1035.139, 2590.438
1035.621, 2567.312
1036.103, 2475.250
1036.585, 2221.562
1037.067, 2021.969
1037.550, 2015.875
1038.032, 2075.719
1038.514, 2044.594
1038.996, 1942.031
1039.478, 1931.438
1039.960, 2104.906
1040.442, 2203.125
1040.924, 2197.781
1041.406, 2148.844
1041.889, 2015.062
1042.371, 1901.625
1042.853, 1931.312
1043.335, 2070.219
1043.817, 2161.156
1044.299, 2242.094
1044.781, 2157.562
1045.263, 1754.188
1045.745, 1509.531
1046.228, 1684.406
1046.710, 1886.531
1047.192, 1703.094
1047.674, 1293.656
1048.156, 1263.062
1048.638, 1793.250
1049.120, 1945.719
1049.602, 1568.094
1050.085, 1311.438
1050.567, 1375.562
1051.049, 1582.156
1051.531, 1841.969
1052.013, 2062.281
1052.495, 1946.219
1052.977, 1438.812
1053.459, 1239.594
1053.942, 1388.281
1054.424, 1567.750
1054.906, 1705.250
1055.388, 1823.688
1055.870, 1931.594
1056.352, 2048.688
1056.834, 2250.312
1057.316, 2515.656
1057.798, 2538.312
1058.281, 2322.281
1058.763, 2215.125
1059.245, 2286.062
1059.727, 2305.531
1060.209, 2137.438
1060.691, 1880.750
1061.173, 1657.594
1061.655, 1481.562
1062.137, 1442.781
1062.620, 1505.031
1063.102, 1455.594
1063.584, 1274.562
1064.066, 1041.406
1064.548, 793.938
1065.030, 660.531
1065.512, 867.344
1065.994, 1207.156
1066.477, 1218.906
1066.959, 1038.594
1067.441, 1003.594
1067.923, 1114.844
1068.405, 1199.031
1068.887, 1194.656
1069.369, 1183.312
1069.851, 1220.188
1070.333, 1297.062
1070.816, 1462.000
1071.298, 1620.750
1071.780, 1575.062
1072.262, 1416.406
1072.744, 1391.344
1073.226, 1551.188
1073.708, 1768.188
1074.190, 2055.594
1074.672, 2196.125
1075.155, 1803.094
1075.637, 1399.781
1076.119, 1654.250
1076.601, 2151.688
1077.083, 2150.719
1077.565, 1642.688
1078.047, 1242.250
1078.530, 1177.781
1079.012, 1222.625
1079.494, 1327.656
1079.976, 1459.938
1080.458, 1654.750
1080.940, 1823.344
1081.422, 1888.312
1081.904, 1842.844
1082.386, 1671.438
1082.869, 1294.750
1083.351, 1057.875
1083.833, 1120.344
1084.315, 1192.031
1084.797, 1209.000
1085.279, 1186.719
1085.761, 1078.188
1086.243, 961.750
1086.725, 1041.438
1087.208, 1381.250
1087.690, 1522.156
1088.172, 1259.250
1088.654, 1235.219
1089.136, 1733.219
1089.618, 2124.031
1090.100, 1998.656
1090.582, 1650.500
1091.065, 1506.219
1091.547, 1555.000
1092.029, 1663.406
1092.511, 1831.344
1092.993, 2056.688
1093.475, 2360.656
1093.957, 2572.781
1094.439, 2613.812
1094.922, 2577.500
1095.404, 2558.562
1095.886, 2549.250
1096.368, 2527.094
1096.850, 2492.906
1097.332, 2463.656
1097.814, 2434.719
1098.296, 2305.500
1098.778, 2059.594
1099.260, 1905.719
1099.743, 2015.375
1100.225, 2188.719
1100.707, 2096.969
1101.189, 1860.250
1101.671, 1728.562
1102.153, 1680.875
1102.635, 1658.594
1103.117, 1638.156
1103.600, 1595.094
1104.082, 1523.500
1104.564, 1366.594
1105.046, 972.719
1105.528, 579.219
1106.010, 421.406
1106.492, 413.062
1106.974, 444.062
1107.457, 521.125
1107.939, 721.375
1108.421, 1056.000
1108.903, 1353.250
1109.385, 1552.219
1109.867, 1667.312
1110.349, 1639.719
1110.831, 1588.125
1111.313, 1564.062
1111.796, 1580.094
1112.278, 1639.750
1112.760, 1743.500
1113.242, 1915.781
1113.724, 2240.562
1114.206, 2477.875
1114.688, 2706.625
1115.170, 2705.250
1115.652, 2181.000
1116.135, 1678.250
1116.617, 1721.281
1117.099, 2097.062
1117.581, 2177.844
1118.063, 1908.188
1118.545, 1730.406
1119.027, 1633.406
1119.509, 1732.219
1119.992, 2116.531
1120.474, 2382.188
1120.956, 2284.438
1121.438, 1994.375
1121.920, 1722.875
1122.402, 1508.000
1122.884, 1597.438
1123.366, 1940.312
1123.849, 2157.406
1124.331, 2207.750
1124.813, 2116.312
1125.295, 1903.938
1125.777, 1742.406
1126.259, 1791.938
1126.741, 1908.594
1127.223, 1835.188
1127.705, 1712.938
1128.188, 1858.625
1128.670, 2132.031
1129.152, 2164.469
1129.634, 1948.625
1130.116, 1805.688
1130.598, 1910.125
1131.080, 1914.469
1131.562, 1436.812
1132.044, 964.969
1132.527, 860.969
1133.009, 920.469
1133.491, 989.344
1133.973, 1024.938
1134.455, 955.312
1134.937, 763.156
1135.419, 682.281
1135.901, 882.312
1136.384, 1009.781
1136.866, 895.938
1137.348, 821.812
1137.830, 939.344
1138.312, 1130.531
1138.794, 1298.688
1139.276, 1421.875
1139.758, 1371.406
1140.240, 1055.625
1140.723, 928.531
1141.205, 1030.656
1141.687, 1176.594
1142.169, 1345.469
1142.651, 1377.125
1143.133, 1129.062
1143.615, 817.969
1144.097, 845.375
1144.579, 1122.281
1145.062, 1242.781
1145.544, 1233.188
1146.026, 1202.438
1146.508, 1173.250
1146.990, 1168.188
1147.472, 1194.188
1147.954, 1250.219
1148.436, 1378.750
1148.919, 1443.906
1149.401, 1217.188
1149.883, 893.031
1150.365, 696.500
1150.847, 602.000
1151.329, 520.062
1151.811, 456.312
1152.293, 530.344
1152.776, 855.625
1153.258, 1022.438
1153.740, 703.969
1154.222, 408.500
1154.704, 342.125
1155.186, 405.750
1155.668, 591.688
1156.150, 815.281
1156.632, 889.875
1157.115, 803.469
1157.597, 854.594
1158.079, 1160.031
1158.561, 1274.000
1159.043, 1049.688
1159.525, 948.000
1160.007, 1182.500
1160.489, 1455.000
1160.971, 1482.781
1161.454, 1354.562
1161.936, 1300.469
1162.418, 1309.594
1162.900, 1249.531
1163.382, 1134.750
1163.864, 1092.094
1164.346, 1133.500
1164.828, 1126.031
1165.311, 1008.469
1165.793, 923.000
1166.275, 1075.875
1166.757, 1261.844
1167.239, 1209.688
1167.721, 1036.750
1168.203, 843.531
1168.685, 682.594
1169.167, 655.531
1169.650, 747.812
1170.132, 776.125
1170.614, 615.969
1171.096, 543.500
1171.578, 770.594
1172.060, 955.344
1172.542, 954.312
1173.024, 846.594
1173.506, 628.000
1173.989, 387.906
1174.471, 320.094
1174.953, 439.094
1175.435, 431.500
1175.917, 260.969
1176.399, 83.906
1176.881, 112.219
1177.363, 155.594
1177.846, 50.000
1178.328, 235.750
1178.810, 139.250
1179.292, 98.438
1179.774, 159.344
1180.256, 105.625
1180.738, 217.531
1181.220, 418.562
1181.703, 351.219
1182.185, 45.562
1182.667, 58.594
1183.149, 211.719
1183.631, 458.031
1184.113, 361.469
1184.595, 138.875
1185.077, 201.500
1185.559, 436.219
1186.042, 242.406
1186.524, 121.625
1187.006, 277.625
1187.488, 212.469
1187.970, 108.906
1188.452, 8.844
1188.934, 146.500
1189.416, 295.719
1189.898, 479.031
1190.381, 774.562
1190.863, 959.875
1191.345, 889.375
1191.827, 656.812
1192.309, 357.062
1192.791, 41.438
1193.273, 25.250
1193.755, 290.938
1194.238, 433.094
1194.720, 443.688
1195.202, 535.656
1195.684, 754.625
1196.166, 928.500
1196.648, 947.344
1197.130, 908.219
1197.612, 882.406
1198.094, 886.938
1198.577, 968.719
1199.059, 1068.531
1199.541, 1084.188
1200.023, 1059.656
1200.505, 1129.969
1200.987, 1301.594
1201.469, 1379.344
1201.951, 1298.656
1202.433, 1132.469
1202.916, 776.812
1203.398, 495.031
1203.880, 376.000
1204.362, 367.188
1204.844, 495.719
1205.326, 641.750
1205.808, 543.625
1206.290, 224.000
1206.773, 48.062
1207.255, 20.094
1207.737, 6.250
1208.219, 5.656
1208.701, 14.406
1209.183, 20.781
1209.665, 71.812
1210.147, 226.000
1210.630, 327.375
1211.112, 110.562
1211.594, 204.125
1212.076, 311.812
1212.558, 330.031
1213.040, 447.469
1213.522, 638.312
1214.004, 792.938
1214.486, 885.344
1214.969, 937.969
1215.451, 883.844
1215.933, 906.594
1216.415, 1112.656
1216.897, 1290.625
1217.379, 1377.500
1217.861, 1400.250
1218.343, 1375.719
1218.825, 1310.156
1219.308, 1211.219
1219.790, 1082.031
1220.272, 896.906
1220.754, 666.625
1221.236, 652.375
1221.718, 860.531
1222.200, 1089.062
1222.682, 1255.781
1223.165, 1238.531
1223.647, 888.312
1224.129, 595.250
1224.611, 968.562
1225.093, 1416.031
1225.575, 1200.000
1226.057, 767.500
1226.539, 740.312
1227.021, 961.281
1227.504, 914.562
1227.986, 533.000
1228.468, 304.812
1228.950, 478.500
1229.432, 542.375
1229.914, 406.906
1230.396, 295.531
1230.878, 297.719
1231.360, 308.750
1231.843, 264.219
1232.325, 152.062
1232.807, 112.969
1233.289, 423.312
1233.771, 185.719
1234.253, 434.969
1234.735, 760.438
1235.217, 774.625
1235.700, 659.469
1236.182, 495.219
1236.664, 397.094
1237.146, 424.844
1237.628, 534.750
1238.110, 817.250
1238.592, 1015.906
1239.074, 855.750
1239.557, 654.094
1240.039, 741.438
1240.521, 940.938
1241.003, 902.188
1241.485, 661.156
1241.967, 548.031
1242.449, 623.406
1242.931, 632.281
1243.413, 558.906
1243.896, 523.406
1244.378, 557.562
1244.860, 558.750
1245.342, 472.906
1245.824, 327.812
1246.306, 130.188
1246.788, 61.812
1247.270, 170.281
1247.752, 194.656
1248.235, 59.000
1248.717, 118.812
1249.199, 103.969
1249.681, 74.125
1250.163, 179.719
1250.645, 135.938
1251.127, 185.250
1251.609, 552.094
1252.092, 760.000
1252.574, 632.188
1253.056, 485.312
1253.538, 414.625
1254.020, 421.750
1254.502, 556.375
1254.984, 726.812
1255.466, 709.094
1255.948, 534.219
1256.431, 385.438
1256.913, 271.625
1257.395, 275.781
1257.877, 357.344
1258.359, 335.438
1258.841, 161.750
1259.323, 106.781
1259.805, 499.281
1260.287, 744.781
1260.770, 516.000
1261.252, 304.969
1261.734, 393.031
1262.216, 582.219
1262.698, 757.469
1263.180, 867.594
1263.662, 764.656
1264.144, 485.500
1264.627, 463.531
1265.109, 768.469
1265.591, 906.469
1266.073, 873.188
1266.555, 855.406
1267.037, 876.125
1267.519, 912.562
1268.001, 940.750
1268.484, 819.969
1268.966, 300.000
1269.448, 136.000
1269.930, 237.719
1270.412, 733.719
1270.894, 610.938
1271.376, 218.062
1271.858, 36.125
1272.340, 13.406
1272.823, 0.000
##END=



