##NAMES=Millerite
##RRUFFID=R070323
##IDEAL CHEMISTRY=NiS
##LOCALITY=Keokuk area, Lee County, Iowa, USA
##OWNER=RRUFF
##SOURCE=James Shigley
##DESCRIPTION=Bronze colored metallic fibers associated with chalcopyrite and quartz
##STATUS=The identification of this mineral is confirmed by single-crystal X-ray diffraction and chemical analysis.
##URL=rruff.info/R070323
##MEASURED CHEMISTRY=(Ni_0.97_Fe_0.02_Co_0.01_)_Î£=1_S_1.00_
167.7847, 0.0000000E+00
168.2668, 0.9339600
168.7490, 0.1577150
169.2311, 7.107666
169.7132, 16.74438
170.1953, 26.78992
170.6774, 36.52747
171.1595, 45.09094
171.6417, 50.80444
172.1238, 55.12292
172.6059, 63.53918
173.0880, 79.54480
173.5701, 92.72168
174.0522, 99.37488
174.5344, 100.0546
175.0165, 100.6594
175.4986, 102.2303
175.9807, 101.9865
176.4628, 100.3237
176.9449, 98.74036
177.4271, 92.50061
177.9092, 77.97900
178.3913, 58.95984
178.8734, 40.11340
179.3555, 22.47205
179.8376, 7.181030
180.3197, 1.391357
180.8019, 0.3999020
181.2840, 2.686768
181.7661, 1.239502
182.2482, 1.357178
182.7303, 1.818970
183.2124, 1.632568
183.6946, 7.921509
184.1767, 13.59045
184.6588, 16.11023
185.1409, 22.76294
185.6230, 39.52246
186.1051, 59.28162
186.5873, 74.28601
187.0694, 80.96948
187.5515, 80.70898
188.0336, 76.15076
188.5157, 62.05066
188.9978, 53.04224
189.4800, 56.36292
189.9621, 69.67981
190.4442, 73.61975
190.9263, 66.54724
191.4084, 54.71619
191.8905, 50.64038
192.3727, 58.95959
192.8548, 64.13171
193.3369, 62.65540
193.8190, 58.72925
194.3011, 57.05457
194.7832, 59.55713
195.2654, 63.13403
195.7475, 60.38647
196.2296, 45.70471
196.7117, 35.20691
197.1938, 34.05334
197.6759, 35.56323
198.1581, 32.67957
198.6402, 23.20056
199.1223, 12.59741
199.6044, 12.17834
200.0865, 30.20325
200.5686, 41.93335
201.0508, 43.37451
201.5329, 40.13269
202.0150, 34.95874
202.4971, 29.04065
202.9792, 24.23926
203.4613, 24.05884
203.9435, 31.49268
204.4256, 36.86365
204.9077, 39.21008
205.3898, 40.08533
205.8719, 41.25439
206.3540, 42.74231
206.8362, 42.35791
207.3183, 35.65930
207.8004, 17.17798
208.2825, 6.786865
208.7646, 10.35767
209.2467, 16.49243
209.7289, 20.07202
210.2110, 19.76965
210.6931, 15.78430
211.1752, 6.494751
211.6573, 12.34863
212.1395, 20.23486
212.6216, 8.254883
213.1037, 6.247192
213.5858, 17.14453
214.0679, 23.01904
214.5500, 23.91235
215.0322, 18.29236
215.5143, 4.425293
215.9964, 3.128540
216.4785, 2.223877
216.9606, 0.7360840
217.4427, 3.283936
217.9249, 7.077148
218.4070, 10.60535
218.8891, 16.60645
219.3712, 25.21301
219.8533, 33.82104
220.3354, 46.65771
220.8176, 55.22119
221.2997, 51.25537
221.7818, 41.19482
222.2639, 38.38928
222.7460, 53.62280
223.2281, 84.60327
223.7103, 105.1888
224.1924, 104.3374
224.6745, 104.4279
225.1566, 112.0084
225.6387, 123.2650
226.1208, 131.3533
226.6030, 132.1117
227.0851, 127.6951
227.5672, 126.9465
228.0493, 131.5536
228.5314, 138.0209
229.0135, 146.3644
229.4957, 155.8430
229.9778, 166.2261
230.4599, 177.5028
230.9420, 188.4204
231.4241, 195.6345
231.9062, 196.1791
232.3884, 197.9436
232.8705, 202.9684
233.3526, 208.8857
233.8347, 213.2417
234.3168, 215.2904
234.7989, 216.9882
235.2811, 221.8644
235.7632, 231.4034
236.2453, 240.7355
236.7274, 248.9716
237.2095, 257.2762
237.6916, 265.7842
238.1738, 274.6301
238.6559, 285.4523
239.1380, 298.4905
239.6201, 311.4072
240.1022, 335.3918
240.5843, 384.1542
241.0665, 433.5282
241.5486, 471.0167
242.0307, 496.9240
242.5128, 519.9868
242.9949, 551.0983
243.4770, 592.0970
243.9592, 619.4674
244.4413, 633.6344
244.9234, 631.8649
245.4055, 607.6661
245.8876, 565.9270
246.3697, 518.4015
246.8519, 472.2080
247.3340, 427.0481
247.8161, 382.6575
248.2982, 336.8962
248.7803, 295.0156
249.2624, 258.5497
249.7446, 226.5546
250.2267, 197.4076
250.7088, 169.4613
251.1909, 144.3622
251.6730, 127.7594
252.1551, 124.1652
252.6373, 119.9512
253.1194, 111.3387
253.6015, 99.71936
254.0836, 85.78564
254.5657, 69.25342
255.0478, 52.56543
255.5300, 39.71484
256.0121, 31.48853
256.4942, 24.28455
256.9763, 14.39185
257.4584, 6.786743
257.9406, 7.178711
258.4227, 17.05713
258.9048, 27.62878
259.3869, 29.10767
259.8690, 21.08899
260.3511, 13.15771
260.8333, 4.533325
261.3154, 1.404419
261.7975, 0.1134030
262.2796, 7.994751
262.7617, 14.33240
263.2438, 9.473999
263.7260, 3.830933
264.2081, 8.493408
264.6902, 2.079224
265.1723, 14.13525
265.6544, 18.27051
266.1365, 15.79688
266.6187, 10.53479
267.1008, 3.9184999E-02
267.5829, 11.41589
268.0650, 12.71716
268.5471, 1.247314
269.0292, 12.28369
269.5114, 19.42493
269.9935, 23.08655
270.4756, 28.72070
270.9577, 37.11670
271.4398, 47.22107
271.9219, 61.05078
272.4041, 78.88843
272.8862, 90.54602
273.3683, 86.85034
273.8504, 75.15796
274.3325, 71.16370
274.8146, 78.91272
275.2968, 88.55701
275.7789, 93.70349
276.2610, 95.21936
276.7431, 96.98169
277.2252, 101.4066
277.7073, 105.1208
278.1895, 99.80579
278.6716, 81.59692
279.1537, 72.97778
279.6358, 91.53784
280.1179, 122.8726
280.6000, 140.8226
281.0822, 138.5634
281.5643, 129.6154
282.0464, 129.9838
282.5285, 140.5469
283.0106, 149.1201
283.4927, 153.7003
283.9749, 156.1345
284.4570, 158.9926
284.9391, 162.1708
285.4212, 161.7399
285.9033, 153.0867
286.3854, 136.5386
286.8676, 126.9636
287.3497, 126.8396
287.8318, 130.5200
288.3139, 135.7262
288.7960, 142.5568
289.2781, 152.9280
289.7603, 169.0133
290.2424, 187.6298
290.7245, 194.6992
291.2066, 176.7240
291.6887, 164.7009
292.1708, 167.3848
292.6530, 177.0641
293.1351, 184.7415
293.6172, 187.2015
294.0993, 185.8506
294.5814, 182.7336
295.0635, 173.9299
295.5457, 171.2394
296.0278, 179.4987
296.5099, 189.9036
296.9920, 197.3376
297.4741, 200.6732
297.9562, 200.3206
298.4384, 196.3032
298.9205, 187.9904
299.4026, 180.2653
299.8847, 171.1786
300.3668, 164.5868
300.8489, 163.4624
301.3311, 165.8790
301.8131, 168.0715
302.2953, 167.8116
302.7774, 165.0731
303.2595, 159.5585
303.7416, 149.6355
304.2237, 139.1227
304.7058, 128.0919
305.1880, 117.2682
305.6701, 107.1897
306.1522, 98.02844
306.6343, 90.19043
307.1164, 85.22351
307.5985, 84.73181
308.0807, 81.18921
308.5628, 67.13000
309.0449, 53.93579
309.5270, 49.98096
310.0091, 55.40906
310.4912, 62.18848
310.9734, 65.01611
311.4555, 63.78198
311.9376, 55.45886
312.4197, 31.84814
312.9018, 13.01343
313.3839, 15.06885
313.8661, 31.33350
314.3482, 44.51416
314.8303, 46.34375
315.3124, 40.55872
315.7945, 32.71655
316.2766, 22.43750
316.7588, 12.28748
317.2409, 2.216553
317.7230, 6.154053
318.2051, 9.921509
318.6872, 7.307373
319.1693, 2.582275
319.6515, 2.602783
320.1336, 7.745972
320.6157, 10.35828
321.0978, 8.641357
321.5799, 5.338257
322.0620, 5.521118
322.5442, 10.55029
323.0263, 14.41736
323.5084, 15.27271
323.9905, 14.22266
324.4726, 11.97778
324.9547, 8.659058
325.4369, 5.768921
325.9190, 6.603394
326.4011, 12.41602
326.8832, 13.95471
327.3653, 5.830200
327.8474, 1.553589
328.3296, 1.905029
328.8117, 3.499268
329.2938, 10.72937
329.7759, 18.06934
330.2580, 24.49036
330.7401, 25.06311
331.2223, 13.09888
331.7044, 4.389038
332.1865, 0.4119870
332.6686, 2.134888
333.1507, 3.5278000E-02
333.6328, 5.997070
334.1150, 13.53772
334.5971, 19.68323
335.0792, 24.89514
335.5613, 27.17017
336.0434, 22.14282
336.5255, 18.36218
337.0077, 21.77124
337.4898, 30.76599
337.9719, 38.83948
338.4540, 39.62756
338.9361, 34.68164
339.4182, 38.86401
339.9004, 61.15344
340.3825, 79.29224
340.8646, 85.92175
341.3467, 85.54883
341.8288, 82.88354
342.3109, 79.10388
342.7931, 76.95538
343.2752, 81.12683
343.7573, 92.14178
344.2394, 102.1320
344.7215, 108.8893
345.2036, 113.6176
345.6858, 117.9619
346.1679, 122.0299
346.6500, 125.2390
347.1321, 127.2634
347.6142, 128.1531
348.0963, 127.7720
348.5785, 125.7230
349.0606, 123.5953
349.5427, 123.0718
350.0248, 123.5276
350.5069, 123.1039
350.9890, 120.2621
351.4712, 117.4637
351.9533, 120.2141
352.4354, 127.1774
352.9175, 128.9659
353.3996, 119.9883
353.8817, 104.4609
354.3639, 93.23547
354.8460, 86.85101
355.3281, 82.43976
355.8102, 80.53833
356.2923, 79.77399
356.7744, 78.72864
357.2566, 77.05426
357.7387, 74.86664
358.2208, 72.12921
358.7029, 68.50861
359.1850, 66.29901
359.6671, 66.94043
360.1493, 67.97388
360.6314, 67.13354
361.1135, 64.62146
361.5956, 62.90015
362.0777, 64.53833
362.5598, 68.93030
363.0420, 74.03510
363.5241, 81.22046
364.0062, 86.82959
364.4883, 91.86035
364.9704, 94.49365
365.4525, 91.46167
365.9347, 82.79327
366.4168, 74.23358
366.8989, 72.95850
367.3810, 79.45496
367.8631, 85.14404
368.3452, 91.52295
368.8274, 94.63641
369.3095, 90.69055
369.7916, 82.17706
370.2737, 75.35394
370.7558, 74.84241
371.2379, 76.27545
371.7201, 70.15778
372.2022, 55.17188
372.6843, 45.69128
373.1664, 51.23926
373.6485, 63.91266
374.1306, 71.52649
374.6128, 72.91895
375.0949, 72.23920
375.5770, 71.00409
376.0591, 68.83203
376.5412, 66.20709
377.0233, 63.34595
377.5055, 58.93744
377.9876, 51.07623
378.4697, 39.31458
378.9518, 29.51520
379.4339, 20.02313
379.9160, 14.09546
380.3982, 15.52509
380.8803, 22.37115
381.3624, 29.83557
381.8445, 35.60638
382.3266, 39.26855
382.8087, 39.47272
383.2909, 30.36133
383.7730, 25.13525
384.2551, 27.08478
384.7372, 31.07056
385.2193, 32.39862
385.7014, 30.63959
386.1836, 29.49432
386.6657, 34.74799
387.1478, 47.29279
387.6299, 47.56293
388.1120, 20.93884
388.5941, 1.156128
389.0763, 9.216003
389.5584, 6.374512
390.0405, 3.154602
390.5226, 19.16400
391.0047, 36.47229
391.4868, 47.37195
391.9690, 51.65265
392.4511, 50.63855
392.9332, 39.92145
393.4153, 28.19733
393.8974, 23.64453
394.3795, 26.31848
394.8617, 31.43060
395.3438, 41.35583
395.8259, 50.62988
396.3080, 47.06616
396.7901, 28.81958
397.2722, 12.47821
397.7544, 11.18622
398.2365, 21.73260
398.7186, 25.41504
399.2007, 18.27924
399.6828, 8.903748
400.1649, 2.947510
400.6471, 14.04614
401.1292, 18.89954
401.6113, 15.69135
402.0934, 6.769165
402.5755, 4.992310
403.0576, 21.47339
403.5398, 34.91895
404.0219, 50.06061
404.5040, 58.31818
404.9861, 49.47266
405.4682, 29.88074
405.9503, 15.86688
406.4325, 18.88965
406.9146, 32.52411
407.3967, 32.26538
407.8788, 6.678711
408.3609, 9.117310
408.8430, 1.738464
409.3252, 12.78784
409.8073, 22.85767
410.2894, 26.49939
410.7715, 27.60651
411.2536, 28.81287
411.7357, 30.15381
412.2179, 32.13629
412.7000, 35.54968
413.1821, 37.75995
413.6642, 34.90222
414.1463, 29.65686
414.6284, 27.82629
415.1106, 34.59576
415.5927, 40.01434
416.0748, 35.58984
416.5569, 23.73297
417.0390, 9.911377
417.5211, 5.620544
418.0033, 16.15552
418.4854, 9.234009
418.9675, 23.89465
419.4496, 44.29291
419.9317, 42.55823
420.4138, 34.20795
420.8960, 26.47272
421.3781, 21.16058
421.8602, 20.69073
422.3423, 27.35815
422.8244, 38.46429
423.3065, 42.09656
423.7887, 32.09906
424.2708, 23.99933
424.7529, 20.23004
425.2350, 18.26038
425.7171, 14.91730
426.1992, 10.33234
426.6814, 8.791321
427.1635, 17.38000
427.6456, 34.74634
428.1277, 43.41711
428.6098, 40.50415
429.0919, 34.29803
429.5741, 26.30267
430.0562, 18.54773
430.5383, 14.89099
431.0204, 18.24573
431.5025, 21.50781
431.9846, 15.93024
432.4668, 4.878601
432.9489, 1.179016
433.4310, 9.130859
433.9131, 21.82416
434.3952, 31.91516
434.8773, 39.18573
435.3595, 44.80060
435.8416, 48.77881
436.3237, 51.10345
436.8058, 52.26392
437.2879, 51.78534
437.7701, 48.18066
438.2522, 40.53833
438.7343, 30.26410
439.2164, 20.56018
439.6985, 8.224609
440.1806, 2.644653
440.6628, 6.878906
441.1449, 14.55347
441.6270, 23.91217
442.1091, 33.27808
442.5912, 39.24689
443.0733, 38.36285
443.5555, 32.38916
444.0376, 28.47546
444.5197, 27.88916
445.0018, 25.73340
445.4839, 12.65112
445.9660, 1.096497
446.4482, 7.737488
446.9303, 37.46796
447.4124, 61.16724
447.8945, 53.53253
448.3766, 28.26373
448.8587, 15.51862
449.3409, 19.81073
449.8230, 28.44653
450.3051, 32.32886
450.7872, 31.77521
451.2693, 31.22003
451.7514, 31.12274
452.2336, 30.49774
452.7157, 26.61450
453.1978, 22.87769
453.6799, 26.17035
454.1620, 37.82703
454.6441, 49.46252
455.1263, 48.73950
455.6084, 31.77393
456.0905, 22.34973
456.5726, 27.54865
457.0547, 33.54425
457.5368, 37.01642
458.0190, 37.94739
458.5011, 37.49316
458.9832, 36.93988
459.4653, 34.68726
459.9474, 23.90601
460.4295, 4.575256
460.9117, 0.3091430
461.3938, 24.91083
461.8759, 52.71954
462.3580, 59.19922
462.8401, 48.02832
463.3222, 37.60931
463.8044, 34.53015
464.2865, 32.99036
464.7686, 25.76978
465.2507, 15.05292
465.7328, 10.71075
466.2149, 17.25348
466.6971, 29.46930
467.1792, 34.62024
467.6613, 25.41699
468.1434, 22.20068
468.6255, 30.20056
469.1076, 40.48047
469.5898, 51.19122
470.0719, 59.50677
470.5540, 58.51422
471.0361, 42.41437
471.5182, 18.32275
472.0003, 7.489807
472.4825, 14.44415
472.9646, 22.53851
473.4467, 32.09314
473.9288, 38.85602
474.4109, 37.77740
474.8930, 29.66461
475.3752, 22.63226
475.8573, 24.14581
476.3394, 29.65698
476.8215, 28.31445
477.3036, 18.95117
477.7857, 12.87836
478.2679, 17.32867
478.7500, 27.33679
479.2321, 30.50171
479.7142, 24.34607
480.1963, 18.79645
480.6784, 15.87451
481.1606, 14.26447
481.6427, 12.17114
482.1248, 9.929626
482.6069, 10.10577
483.0890, 15.03894
483.5711, 23.52863
484.0533, 28.76123
484.5354, 27.55597
485.0175, 28.39868
485.4996, 36.45862
485.9817, 43.99518
486.4638, 43.06671
486.9460, 33.82397
487.4281, 25.09448
487.9102, 25.17981
488.3923, 31.00452
488.8744, 32.72906
489.3565, 29.51233
489.8387, 26.72528
490.3208, 27.74902
490.8029, 30.38562
491.2850, 30.34857
491.7671, 26.66418
492.2492, 22.65247
492.7314, 17.44556
493.2135, 13.63422
493.6956, 15.28064
494.1777, 22.09894
494.6598, 29.50964
495.1419, 34.09845
495.6241, 36.22998
496.1062, 38.40948
496.5883, 41.72491
497.0704, 43.44934
497.5525, 42.92584
498.0346, 40.96405
498.5168, 37.14478
498.9989, 32.15106
499.4810, 29.44464
499.9631, 34.43732
500.4452, 43.93597
500.9273, 44.97961
501.4095, 35.86987
501.8916, 25.21979
502.3737, 14.71332
502.8558, 6.078857
503.3379, 2.104919
503.8200, 3.644958
504.3022, 6.004700
504.7843, 7.096069
505.2664, 7.931641
505.7485, 10.17847
506.2306, 13.76917
506.7127, 17.39716
507.1949, 20.41284
507.6770, 22.49353
508.1591, 22.55365
508.6412, 17.42230
509.1233, 13.21765
509.6054, 11.05829
510.0876, 9.263000
510.5697, 6.366394
511.0518, 2.516846
511.5339, 1.012390
512.0161, 4.089355
512.4982, 5.708923
512.9803, 1.602295
513.4624, 9.674744
513.9445, 17.55988
514.4266, 16.41345
514.9088, 11.71283
515.3909, 11.56909
515.8730, 16.59271
516.3551, 18.32196
516.8372, 10.68744
517.3193, 1.241882
517.8015, 4.342590
518.2836, 5.518555
518.7657, 1.291260
519.2478, 9.705139
519.7299, 23.17114
520.2120, 28.49365
520.6942, 18.82318
521.1763, 14.07892
521.6584, 17.36871
522.1405, 22.06268
522.6226, 27.38861
523.1047, 31.12933
523.5869, 27.82166
524.0690, 12.01733
524.5511, 6.484375
525.0332, 9.249512
525.5153, 4.162109
525.9974, 12.21173
526.4796, 8.018372
526.9617, 0.5853270
527.4438, 1.002991
527.9259, 2.586182
528.4080, 6.878601
528.8901, 10.16327
529.3723, 15.08606
529.8544, 28.15167
530.3365, 43.07147
530.8186, 45.91034
531.3007, 32.21454
531.7828, 12.51031
532.2650, 0.8713380
532.7471, 2.027344
533.2292, 1.228577
533.7113, 5.711365
534.1934, 13.76886
534.6755, 23.06348
535.1577, 31.90515
535.6398, 38.49933
536.1219, 42.45160
536.6040, 43.17273
537.0861, 38.46082
537.5682, 30.02631
538.0504, 23.21625
538.5325, 18.66553
539.0146, 15.68024
539.4967, 13.18262
539.9788, 11.98474
540.4609, 15.96863
540.9431, 34.52740
541.4252, 44.93329
541.9073, 37.05457
542.3894, 22.59064
542.8715, 9.425781
543.3536, 0.4328610
543.8358, 0.5827640
544.3179, 16.33392
544.8000, 41.16339
545.2821, 45.83667
545.7642, 21.83069
546.2463, 5.303833
546.7285, 12.71191
547.2106, 25.66498
547.6927, 29.38495
548.1748, 24.17157
548.6569, 21.03381
549.1390, 28.75574
549.6211, 38.11298
550.1032, 36.71332
550.5853, 27.20770
551.0674, 22.84314
551.5496, 29.66217
552.0317, 39.82666
552.5138, 40.06958
552.9959, 25.60822
553.4780, 17.42175
553.9601, 18.13593
554.4423, 21.30487
554.9244, 27.58698
555.4065, 33.61212
555.8886, 33.67706
556.3707, 25.53491
556.8528, 15.48035
557.3350, 10.63434
557.8171, 10.63519
558.2992, 13.03601
558.7813, 18.41211
559.2634, 23.81812
559.7455, 28.83112
560.2277, 32.02679
560.7098, 29.32397
561.1919, 15.56158
561.6740, 4.894104
562.1561, 0.4075930
562.6382, 2.010986
563.1204, 15.51172
563.6025, 37.16095
564.0846, 48.49677
564.5667, 33.73804
565.0488, 2.435181
565.5309, 4.845215
566.0131, 25.68744
566.4952, 43.66113
566.9773, 27.67096
567.4594, 7.497253
567.9415, 2.345154
568.4236, 10.17719
568.9058, 17.26685
569.3879, 16.76660
569.8700, 13.79663
570.3521, 14.11316
570.8342, 16.94250
571.3163, 17.53479
571.7985, 14.15619
572.2806, 11.29559
572.7627, 15.12756
573.2448, 26.97339
573.7269, 33.02704
574.2090, 26.81458
574.6912, 22.91284
575.1733, 26.56299
575.6554, 33.35144
576.1375, 38.69995
576.6196, 41.88593
577.1017, 44.65674
577.5839, 50.39532
578.0660, 57.09796
578.5481, 57.16486
579.0302, 49.85437
579.5123, 41.45306
579.9944, 34.19061
580.4766, 28.05890
580.9587, 23.74396
581.4408, 22.27100
581.9229, 18.15259
582.4050, 3.670837
582.8871, 7.829285
583.3693, 3.066406
583.8514, 11.36877
584.3335, 21.25061
584.8156, 19.99670
585.2977, 13.53918
585.7798, 10.48126
586.2620, 10.76740
586.7441, 15.86847
587.2262, 31.49768
587.7083, 42.66522
588.1904, 35.14825
588.6725, 19.09991
589.1547, 11.40094
589.6368, 16.75867
590.1189, 23.87476
590.6010, 28.16211
591.0831, 30.69543
591.5652, 31.26184
592.0474, 30.67145
592.5295, 33.75922
593.0116, 44.78033
593.4937, 58.64276
593.9758, 57.77960
594.4579, 30.98444
594.9401, 16.15186
595.4222, 29.43506
595.9043, 43.62616
596.3864, 43.64758
596.8685, 33.79211
597.3506, 26.64148
597.8328, 28.25696
598.3149, 31.24615
598.7970, 28.91815
599.2791, 22.74652
599.7612, 16.38538
600.2433, 10.51208
600.7255, 3.954224
601.2076, 5.631470
601.6897, 16.72577
602.1718, 16.59906
602.6539, 9.611633
603.1360, 26.38184
603.6182, 22.70569
604.1003, 15.52856
604.5824, 17.68036
605.0645, 28.46118
605.5466, 38.93384
606.0287, 45.09174
606.5109, 46.64532
606.9930, 40.25946
607.4751, 27.38824
607.9572, 20.46552
608.4393, 23.54987
608.9214, 29.38965
609.4036, 30.91138
609.8857, 28.08411
610.3678, 25.79791
610.8499, 21.28461
611.3320, 20.12915
611.8141, 30.41809
612.2963, 40.79382
612.7784, 36.08044
613.2605, 17.48535
613.7426, 2.621094
614.2247, 7.265991
614.7068, 23.00580
615.1890, 28.07251
615.6711, 21.89557
616.1532, 17.86847
616.6353, 19.92560
617.1174, 25.42773
617.5995, 33.83191
618.0817, 45.22101
618.5638, 47.53418
619.0459, 27.09790
619.5280, 12.77783
620.0101, 22.25543
620.4922, 40.91022
620.9744, 51.52350
621.4565, 50.10773
621.9386, 40.05115
622.4207, 19.70490
622.9028, 4.868713
623.3849, 5.585449
623.8671, 23.97888
624.3492, 44.61456
624.8313, 41.04688
625.3134, 27.72949
625.7955, 21.34290
626.2776, 21.47156
626.7598, 20.36896
627.2419, 13.83502
627.7240, 9.325623
628.2061, 11.29340
628.6882, 17.41614
629.1703, 26.42285
629.6525, 36.81549
630.1346, 42.57007
630.6167, 35.12762
631.0988, 18.15314
631.5809, 14.51343
632.0630, 29.16644
632.5452, 37.08502
633.0273, 24.15979
633.5094, 7.668518
633.9915, 9.892578
634.4736, 29.56451
634.9557, 41.29041
635.4379, 34.85565
635.9200, 24.65753
636.4021, 14.65161
636.8842, 7.691895
637.3663, 9.450073
637.8484, 5.841675
638.3306, 23.74066
638.8127, 33.74030
639.2948, 36.26483
639.7769, 8.925232
640.2590, 20.15070
640.7411, 15.35638
641.2233, 10.22717
641.7054, 26.88293
642.1875, 3.891479
642.6696, 20.20630
643.1517, 20.83136
643.6339, 28.63745
644.1160, 20.89392
644.5981, 17.95349
645.0802, 30.56805
645.5623, 34.56989
646.0444, 25.03717
646.5266, 33.30109
647.0087, 9.769836
647.4908, 14.14209
647.9729, 30.98499
648.4550, 22.89526
648.9371, 31.44824
649.4193, 33.41296
649.9014, 5.436523
650.3835, 29.53125
650.8656, 31.10724
651.3477, 9.561096
651.8298, 31.87213
652.3120, 13.51392
652.7941, 9.672424
653.2762, 16.75562
653.7583, 12.45050
654.2404, 26.10071
654.7225, 22.45380
655.2047, 17.26129
655.6868, 18.81354
656.1689, 1.254272
656.6510, 19.15118
657.1331, 12.82867
657.6152, 18.54559
658.0974, 26.99115
658.5795, 14.54291
659.0616, 23.78369
659.5437, 1.975159
660.0258, 0.9724730
660.5079, 1.953247
660.9901, 21.28064
661.4722, 3.182922
661.9543, 8.891357
662.4364, 0.3620610
662.9185, 0.3493650
663.4006, 17.78687
663.8828, 44.18329
664.3649, 56.03998
664.8470, 53.01648
665.3291, 45.99634
665.8112, 35.30273
666.2933, 23.78979
666.7755, 12.12372
667.2576, 1.418762
667.7397, 4.243408
668.2218, 4.540222
668.7039, 0.4246830
669.1860, 13.06128
669.6682, 26.66211
670.1503, 33.56500
670.6324, 34.32324
671.1145, 31.57751
671.5966, 26.04633
672.0787, 21.95624
672.5609, 26.82825
673.0430, 39.24780
673.5251, 50.38562
674.0072, 60.47809
674.4893, 62.42969
674.9714, 49.33691
675.4536, 27.31555
675.9357, 12.29681
676.4178, 6.545044
676.8999, 2.884827
677.3820, 2.288452
677.8641, 2.583008
678.3463, 2.328857
678.8284, 2.288879
679.3105, 3.715515
679.7926, 7.005249
680.2747, 11.99988
680.7568, 20.39960
681.2390, 29.78577
681.7211, 34.00000
682.2032, 32.43616
682.6853, 25.48273
683.1674, 11.24042
683.6495, 1.298096
684.1317, 3.819824
684.6138, 32.52649
685.0959, 47.32050
685.5780, 38.92566
686.0601, 27.68262
686.5422, 14.37793
687.0244, 3.036621
687.5065, 2.513550
687.9886, 1.837280
688.4707, 3.243835
688.9528, 16.54584
689.4349, 30.02380
689.9171, 32.84229
690.3992, 28.19293
690.8813, 25.33600
691.3634, 26.82239
691.8455, 30.62933
692.3276, 35.37756
692.8098, 40.49805
693.2919, 40.39349
693.7740, 32.40033
694.2561, 25.22504
694.7382, 19.91522
695.2203, 16.23431
695.7025, 13.90277
696.1846, 12.95715
696.6667, 13.74200
697.1488, 18.66864
697.6309, 21.84515
698.1130, 18.92249
698.5952, 13.15894
699.0773, 6.764893
699.5594, 1.287598
700.0415, 0.9992070
700.5236, 9.099365
701.0057, 20.85974
701.4879, 26.34576
701.9700, 25.28778
702.4521, 23.92993
702.9342, 22.90448
703.4163, 21.42578
703.8984, 19.65411
704.3806, 17.05640
704.8627, 10.00360
705.3448, 8.451172
705.8269, 12.03223
706.3090, 21.74213
706.7911, 52.72833
707.2733, 54.19617
707.7554, 37.16608
708.2375, 19.69586
708.7196, 7.861755
709.2017, 2.880554
709.6838, 8.635254
710.1660, 21.42761
710.6481, 34.60321
711.1302, 47.52112
711.6123, 49.62585
712.0944, 35.27209
712.5765, 16.81494
713.0587, 9.962708
713.5408, 15.41034
714.0229, 17.58136
714.5050, 11.57458
714.9871, 9.023926
715.4692, 14.87250
715.9514, 22.33179
716.4335, 25.68500
716.9156, 25.35571
717.3977, 25.48425
717.8798, 29.09857
718.3619, 32.23260
718.8441, 29.85626
719.3262, 25.53119
719.8083, 27.83282
720.2904, 36.35138
720.7725, 41.63330
721.2546, 37.90265
721.7368, 29.10815
722.2189, 24.41150
722.7010, 24.01379
723.1831, 26.96112
723.6652, 35.83289
724.1473, 42.94678
724.6295, 45.00519
725.1116, 41.87817
725.5937, 31.43274
726.0758, 8.544556
726.5579, 2.324463
727.0400, 15.64978
727.5222, 33.77356
728.0043, 32.90289
728.4864, 21.35028
728.9685, 13.16577
729.4506, 12.34509
729.9327, 14.79974
730.4149, 17.66724
730.8970, 20.87146
731.3791, 25.51941
731.8612, 31.06207
732.3433, 30.98438
732.8254, 22.48633
733.3076, 13.77618
733.7897, 13.31323
734.2718, 20.56433
734.7539, 28.89899
735.2360, 43.98431
735.7181, 50.54327
736.2003, 41.62042
736.6824, 28.93188
737.1645, 15.39532
737.6466, 4.102295
738.1287, 3.302856
738.6108, 20.45874
739.0930, 35.38403
739.5751, 34.69360
740.0572, 27.07886
740.5393, 20.48566
741.0214, 16.39618
741.5035, 15.95135
741.9857, 19.79932
742.4678, 25.61102
742.9499, 32.06384
743.4320, 38.57166
743.9141, 34.30353
744.3962, 15.72675
744.8784, 6.196716
745.3605, 18.91711
745.8426, 38.44006
746.3247, 42.56458
746.8068, 29.35822
747.2889, 24.56482
747.7711, 37.00714
748.2532, 43.89368
748.7353, 37.93195
749.2174, 27.21643
749.6995, 17.79547
750.1816, 10.76520
750.6638, 5.125183
751.1459, 0.4755860
751.6280, 1.239441
752.1101, 12.07715
752.5922, 31.68640
753.0743, 43.26666
753.5565, 45.34082
754.0386, 40.84412
754.5207, 30.66364
755.0028, 20.85986
755.4849, 26.48914
755.9670, 50.58832
756.4492, 60.09613
756.9313, 49.70251
757.4134, 37.70453
757.8955, 32.81750
758.3776, 32.47284
758.8597, 34.54614
759.3419, 39.95435
759.8240, 38.61096
760.3061, 22.79749
760.7882, 8.355286
761.2703, 0.3984990
761.7524, 2.662354
762.2346, 3.043213
762.7167, 0.6807250
763.1988, 6.851929
763.6809, 26.07507
764.1630, 43.84375
764.6451, 38.14514
765.1273, 18.63947
765.6094, 9.817383
766.0915, 14.43921
766.5736, 21.72614
767.0557, 25.10590
767.5378, 26.75757
768.0200, 32.99463
768.5021, 46.22144
768.9842, 47.77020
769.4663, 29.61743
769.9484, 16.67773
770.4305, 25.51691
770.9127, 41.52930
771.3948, 40.96075
771.8769, 21.86194
772.3590, 12.96906
772.8411, 27.65692
773.3232, 41.00513
773.8054, 41.71625
774.2875, 37.39227
774.7696, 38.07117
775.2517, 42.90533
775.7338, 41.62689
776.2159, 26.36993
776.6981, 8.539490
777.1802, 2.633484
777.6623, 5.901550
778.1444, 5.723022
778.6265, 30.69818
779.1086, 53.29333
779.5908, 64.86444
780.0729, 67.29730
780.5550, 61.65137
781.0371, 46.34259
781.5192, 40.27765
782.0013, 48.21045
782.4835, 52.29236
782.9656, 41.72290
783.4477, 27.89587
783.9298, 27.36145
784.4119, 40.45911
784.8940, 46.97064
785.3762, 41.03656
785.8583, 34.73529
786.3404, 28.89789
786.8225, 25.91370
787.3046, 29.74414
787.7867, 38.28827
788.2689, 44.53156
788.7510, 45.19812
789.2331, 44.22522
789.7152, 47.46332
790.1973, 49.93445
790.6794, 38.27686
791.1616, 17.03186
791.6437, 9.880737
792.1258, 27.01276
792.6079, 50.04144
793.0900, 53.15576
793.5721, 38.68774
794.0543, 29.56128
794.5364, 26.08020
795.0185, 26.30542
795.5006, 30.98639
795.9827, 36.59302
796.4648, 40.61572
796.9470, 42.76917
797.4291, 39.89124
797.9112, 20.60077
798.3933, 12.79041
798.8754, 31.26068
799.3575, 48.04840
799.8397, 43.80115
800.3218, 27.26343
800.8039, 15.32886
801.2860, 11.65704
801.7681, 14.11536
802.2502, 31.61853
802.7324, 45.97839
803.2145, 35.44574
803.6966, 10.96210
804.1787, 7.524536
804.6608, 14.23999
805.1429, 11.29779
805.6251, 3.496216
806.1072, 22.19897
806.5893, 19.92609
807.0714, 7.1289003E-02
807.5535, 3.673706
808.0356, 15.24615
808.5178, 34.24115
808.9999, 37.95300
809.4820, 32.35193
809.9641, 33.16370
810.4462, 43.88519
810.9283, 47.20612
811.4105, 37.02917
811.8926, 29.50201
812.3747, 37.68988
812.8568, 47.07733
813.3389, 35.97229
813.8210, 4.494080
814.3032, 11.16339
814.7853, 8.389038
815.2674, 26.61200
815.7495, 29.34497
816.2316, 26.70068
816.7137, 26.91223
817.1959, 30.48419
817.6780, 36.14966
818.1601, 44.62061
818.6422, 49.08087
819.1243, 38.51697
819.6064, 22.97760
820.0886, 19.67615
820.5707, 26.63110
821.0528, 33.52399
821.5349, 36.18500
822.0170, 33.55310
822.4991, 22.36615
822.9813, 7.184204
823.4634, 11.24200
823.9455, 35.95575
824.4276, 49.55377
824.9097, 43.00146
825.3918, 34.61365
825.8740, 39.24121
826.3561, 51.78973
826.8382, 54.65161
827.3203, 41.89392
827.8024, 33.16101
828.2845, 31.46521
828.7667, 30.14532
829.2488, 25.11157
829.7309, 20.14697
830.2130, 22.12384
830.6951, 31.24280
831.1772, 32.92194
831.6594, 15.20734
832.1415, 0.2576900
832.6236, 2.607178
833.1057, 0.6947020
833.5878, 1.876343
834.0699, 1.342224
834.5521, 3.809875
835.0342, 11.38501
835.5163, 20.75800
835.9984, 33.14380
836.4805, 43.57520
836.9626, 41.61707
837.4448, 30.56537
837.9269, 24.49915
838.4090, 27.91394
838.8911, 32.13000
839.3732, 27.01044
839.8553, 16.27875
840.3375, 14.32611
840.8196, 21.32458
841.3017, 28.73706
841.7838, 35.60596
842.2659, 40.32684
842.7480, 42.29114
843.2302, 40.73157
843.7123, 32.74445
844.1944, 13.97040
844.6765, 3.301147
845.1586, 1.891846
845.6407, 6.869751
846.1229, 25.84943
846.6050, 44.88654
847.0871, 46.16815
847.5692, 31.66492
848.0513, 27.91821
848.5334, 56.50195
849.0156, 71.89740
849.4977, 46.79852
849.9798, 17.33698
850.4619, 13.72089
850.9440, 27.63599
851.4261, 36.72675
851.9083, 34.02295
852.3904, 28.79987
852.8725, 24.62616
853.3546, 23.09595
853.8367, 29.29327
854.3188, 38.27405
854.8010, 39.81006
855.2831, 32.83179
855.7652, 25.31885
856.2473, 22.74176
856.7294, 24.06177
857.2115, 27.89093
857.6937, 34.04504
858.1758, 44.07574
858.6579, 57.66730
859.1400, 63.13678
859.6221, 54.33075
860.1042, 40.15302
860.5864, 32.93732
861.0685, 32.53522
861.5506, 35.32300
862.0327, 44.16174
862.5148, 40.31415
862.9969, 12.04480
863.4791, 12.65619
863.9612, 10.91016
864.4433, 10.00055
864.9254, 23.83362
865.4075, 29.38306
865.8896, 30.79266
866.3718, 23.52136
866.8539, 16.84442
867.3360, 12.15894
867.8181, 10.88428
868.3002, 16.72626
868.7823, 29.00616
869.2645, 37.19061
869.7466, 38.51727
870.2287, 35.36115
870.7108, 24.48792
871.1929, 12.91797
871.6750, 5.587036
872.1572, 2.220825
872.6393, 5.905701
873.1214, 16.60913
873.6035, 24.41443
874.0856, 16.81500
874.5677, 7.032349
875.0499, 14.07959
875.5320, 29.31128
876.0141, 33.14148
876.4962, 23.10669
876.9783, 10.62585
877.4604, 2.902222
877.9426, 1.104370
878.4247, 4.681580
878.9068, 5.910522
879.3889, 6.456238
879.8710, 31.46429
880.3531, 49.07880
880.8353, 50.38531
881.3174, 42.92163
881.7995, 33.31860
882.2816, 23.22290
882.7637, 25.71918
883.2458, 43.65674
883.7280, 52.34088
884.2101, 46.31842
884.6922, 34.52167
885.1743, 19.42615
885.6564, 6.213318
886.1385, 7.905334
886.6207, 30.38940
887.1028, 40.76416
887.5849, 30.56403
888.0670, 21.90363
888.5491, 23.32874
889.0313, 26.09265
889.5134, 19.60468
889.9955, 7.126343
890.4776, 4.902100
890.9597, 24.45160
891.4418, 36.16467
891.9240, 27.53760
892.4061, 19.38300
892.8882, 26.16815
893.3703, 38.14453
893.8524, 41.69189
894.3345, 35.22406
894.8167, 25.87604
895.2988, 10.20178
895.7809, 4.4434000E-02
896.2630, 7.538818
896.7451, 19.24438
897.2272, 19.33746
897.7094, 11.48047
898.1915, 9.577148
898.6736, 18.64612
899.1557, 27.27332
899.6378, 25.63293
900.1199, 19.50806
900.6021, 10.40527
901.0842, 2.699707
901.5663, 8.812988
902.0484, 27.45435
902.5305, 40.17242
903.0126, 34.78894
903.4948, 22.22754
903.9769, 17.51776
904.4590, 18.67419
904.9411, 20.37610
905.4232, 22.17609
905.9053, 23.36700
906.3875, 23.71106
906.8696, 22.45740
907.3517, 18.40723
907.8338, 13.00018
908.3159, 11.50861
908.7980, 13.97504
909.2802, 14.57544
909.7623, 12.64996
910.2444, 8.601868
910.7265, 1.284912
911.2086, 3.670410
911.6907, 3.455017
912.1729, 22.77228
912.6550, 30.98340
913.1371, 24.13715
913.6192, 20.92133
914.1013, 27.81641
914.5834, 32.12689
915.0656, 21.01465
915.5477, 4.454468
916.0298, 7.384155
916.5119, 39.02045
916.9940, 55.40527
917.4761, 44.27277
917.9583, 35.23016
918.4404, 40.91217
918.9225, 46.22394
919.4046, 35.34528
919.8867, 13.79266
920.3688, 2.742737
920.8510, 8.803406
921.3331, 13.24701
921.8152, 16.04108
922.2973, 16.40942
922.7794, 9.223267
923.2615, 1.010742
923.7437, 0.3014530
924.2258, 7.572083
924.7079, 13.64532
925.1900, 16.48987
925.6721, 17.16516
926.1542, 14.57550
926.6364, 11.16028
927.1185, 7.193542
927.6006, 4.502869
928.0827, 6.413940
928.5648, 13.32660
929.0469, 20.93671
929.5291, 28.32336
930.0112, 33.82074
930.4933, 36.51843
930.9754, 36.40204
931.4575, 32.57025
931.9396, 26.04810
932.4218, 17.53229
932.9039, 7.496826
933.3860, 3.340881
933.8681, 17.74371
934.3502, 36.51685
934.8323, 41.69757
935.3145, 37.01361
935.7966, 28.21960
936.2787, 17.35693
936.7608, 6.777283
937.2429, 2.168152
937.7250, 5.920349
938.2072, 5.401917
938.6893, 23.38708
939.1714, 26.30981
939.6535, 17.96918
940.1356, 16.18817
940.6177, 24.10785
941.0999, 29.17346
941.5820, 22.06958
942.0641, 9.553772
942.5462, 3.505859
943.0283, 2.899719
943.5104, 1.837097
943.9926, 0.3856200
944.4747, 3.746948
944.9568, 13.65833
945.4389, 23.43011
945.9210, 26.92816
946.4031, 26.06042
946.8853, 26.50391
947.3674, 28.23279
947.8495, 26.32709
948.3316, 20.17822
948.8137, 13.41418
949.2958, 6.985229
949.7780, 2.659302
950.2601, 2.401550
950.7422, 6.014648
951.2243, 13.58600
951.7064, 26.48132
952.1885, 34.11230
952.6707, 34.61115
953.1528, 32.93451
953.6349, 31.29913
954.1170, 28.65509
954.5991, 22.88544
955.0812, 14.32904
955.5634, 10.41748
956.0455, 14.05811
956.5276, 12.67499
957.0097, 0.4521480
957.4918, 7.889648
957.9739, 2.561646
958.4561, 9.294983
958.9382, 16.22864
959.4203, 17.94061
959.9024, 19.63336
960.3845, 22.13385
960.8666, 23.20355
961.3488, 20.25720
961.8309, 17.19812
962.3130, 15.08960
962.7951, 14.93372
963.2772, 19.88898
963.7593, 32.17731
964.2415, 37.63446
964.7236, 30.96143
965.2057, 25.15857
965.6878, 24.74805
966.1699, 23.54352
966.6520, 13.68964
967.1342, 0.9830320
967.6163, 0.7619630
968.0984, 19.20770
968.5805, 26.40552
969.0626, 6.485840
969.5447, 5.514526
970.0269, 5.600159
970.5090, 21.51233
970.9911, 29.43921
971.4732, 30.83405
971.9553, 30.70007
972.4374, 29.56787
972.9196, 26.65326
973.4017, 16.58893
973.8838, 11.40607
974.3659, 22.54834
974.8480, 34.32324
975.3301, 27.88599
975.8123, 10.47803
976.2944, 7.961792
976.7765, 31.17157
977.2586, 46.55365
977.7407, 41.99384
978.2228, 33.74152
978.7050, 25.60712
979.1871, 19.68231
979.6692, 21.11798
980.1513, 26.35767
980.6334, 21.79504
981.1155, 1.241638
981.5977, 16.14899
982.0798, 10.03394
982.5619, 0.2466430
983.0440, 6.632996
983.5261, 12.29083
984.0082, 22.43878
984.4904, 35.64832
984.9725, 45.30902
985.4546, 49.73010
985.9367, 50.28265
986.4188, 43.18909
986.9009, 37.19446
987.3831, 42.62720
987.8652, 48.42883
988.3473, 35.82935
988.8294, 10.14282
989.3115, 0.3206790
989.7936, 22.38672
990.2758, 39.14795
990.7579, 30.32098
991.2400, 16.77484
991.7221, 7.976990
992.2042, 4.835754
992.6863, 10.72205
993.1685, 22.75134
993.6506, 28.95129
994.1327, 23.02271
994.6148, 17.64856
995.0969, 18.39703
995.5790, 21.34375
996.0612, 27.82617
996.5433, 33.04504
997.0254, 29.33380
997.5075, 18.61243
997.9896, 11.77246
998.4717, 12.39819
998.9539, 17.67487
999.4360, 35.12805
999.9181, 47.37750
1000.400, 33.77417
1000.882, 13.16040
1001.364, 12.17151
1001.847, 28.86511
1002.329, 40.73798
1002.811, 38.79816
1003.293, 35.24579
1003.775, 37.26666
1004.257, 38.07458
1004.739, 30.90015
1005.221, 21.13031
1005.703, 13.87988
1006.186, 10.79517
1006.668, 15.44092
1007.150, 33.35071
1007.632, 44.27600
1008.114, 33.17078
1008.596, 18.49146
1009.078, 9.801208
1009.560, 6.075623
1010.043, 5.727295
1010.525, 8.339233
1011.007, 14.30786
1011.489, 25.52393
1011.971, 33.96954
1012.453, 36.87677
1012.935, 34.04553
1013.417, 18.39624
1013.899, 4.008118
1014.382, 12.17255
1014.864, 36.06738
1015.346, 47.65417
1015.828, 38.20709
1016.310, 24.65594
1016.792, 8.721680
1017.274, 3.962463
1017.756, 13.45679
1018.239, 15.76019
1018.721, 1.540161
1019.203, 22.91064
1019.685, 38.66803
1020.167, 39.82959
1020.649, 40.17596
1021.131, 47.97955
1021.613, 51.26898
1022.095, 37.23077
1022.578, 22.37573
1023.060, 26.97351
1023.542, 42.50012
1024.024, 42.09369
1024.506, 16.44135
1024.988, 4.155212
1025.470, 27.92114
1025.952, 50.36176
1026.435, 60.36041
1026.917, 60.55182
1027.399, 51.42230
1027.881, 38.52283
1028.363, 29.22058
1028.845, 24.31134
1029.327, 25.02460
1029.809, 39.61169
1030.292, 48.70776
1030.774, 41.91528
1031.256, 33.25153
1031.738, 31.92322
1032.220, 35.52570
1032.702, 39.77435
1033.184, 44.51605
1033.666, 47.47937
1034.148, 51.99500
1034.630, 49.48761
1035.113, 24.06055
1035.595, 7.029419
1036.077, 29.95068
1036.559, 64.46667
1037.041, 62.99664
1037.523, 23.46320
1038.005, 3.314026
1038.487, 17.76306
1038.970, 27.59009
1039.452, 26.30121
1039.934, 25.23035
1040.416, 32.22711
1040.898, 38.42017
1041.380, 30.33032
1041.862, 10.29498
1042.344, 5.096497
1042.826, 25.00903
1043.309, 37.10022
1043.791, 37.45831
1044.273, 34.92920
1044.755, 30.49976
1045.237, 27.83948
1045.719, 32.10980
1046.201, 40.96368
1046.683, 43.22766
1047.166, 36.65894
1047.648, 30.60968
1048.130, 23.91394
1048.612, 22.17084
1049.094, 29.98126
1049.576, 35.22717
1050.058, 25.71069
1050.540, 8.675964
1051.022, 4.857239
1051.505, 16.16663
1051.987, 21.61115
1052.469, 20.57086
1052.951, 16.16138
1053.433, 7.810547
1053.915, 3.414917
1054.397, 8.466064
1054.879, 20.17847
1055.361, 35.54175
1055.844, 53.34082
1056.326, 59.42798
1056.808, 53.89117
1057.290, 48.85138
1057.772, 46.40546
1058.254, 40.20355
1058.736, 26.30640
1059.218, 14.55896
1059.701, 19.99609
1060.183, 36.42206
1060.665, 42.45197
1061.147, 40.00757
1061.629, 40.99316
1062.111, 45.55487
1062.593, 41.02759
1063.075, 23.05060
1063.557, 7.792603
1064.040, 12.74811
1064.522, 26.35931
1065.004, 25.38184
1065.486, 17.18872
1065.968, 23.15662
1066.450, 39.04523
1066.932, 44.25739
1067.414, 34.31580
1067.896, 21.06738
1068.379, 11.94183
1068.861, 5.330933
1069.343, 4.431946
1069.825, 9.902405
1070.307, 7.781372
1070.789, 34.47327
1071.271, 39.48492
1071.753, 22.51965
1072.236, 6.139465
1072.718, 0.1819460
1073.200, 0.1412350
1073.682, 8.192261
1074.164, 16.72437
1074.646, 17.77112
1075.128, 15.41705
1075.610, 13.78729
1076.093, 14.22656
1076.575, 18.68994
1077.057, 26.84174
1077.539, 33.73981
1078.021, 38.42737
1078.503, 39.91071
1078.985, 33.37274
1079.467, 27.76459
1079.949, 31.34595
1080.432, 39.97473
1080.914, 48.13080
1081.396, 54.71442
1081.878, 54.22577
1082.360, 43.69177
1082.842, 29.03125
1083.324, 2.620117
1083.806, 21.66119
1084.288, 3.822876
1084.771, 25.21991
1085.253, 36.92285
1085.735, 34.99756
1086.217, 39.22681
1086.699, 58.45612
1087.181, 58.98218
1087.663, 26.84631
1088.145, 4.586182
1088.628, 6.759766
1089.110, 17.39240
1089.592, 26.14734
1090.074, 31.83960
1090.556, 28.19678
1091.038, 14.53479
1091.520, 12.37311
1092.002, 9.849731
1092.484, 27.13165
1092.967, 36.91724
1093.449, 39.59821
1093.931, 14.11047
1094.413, 25.13049
1094.895, 21.41034
1095.377, 17.08838
1095.859, 33.15796
1096.341, 11.62885
1096.823, 27.40070
1097.306, 28.28943
1097.788, 35.99512
1098.270, 28.94415
1098.752, 26.45062
1099.234, 38.71814
1099.716, 42.81628
1100.198, 34.05310
1100.680, 42.19012
1101.163, 20.15302
1101.645, 24.59338
1102.127, 40.45782
1102.609, 32.44879
1103.091, 40.85400
1103.573, 43.00665
1104.055, 16.74518
1104.537, 39.89777
1105.020, 41.68048
1105.502, 21.52014
1105.984, 42.97882
1106.466, 25.84277
1106.948, 22.48889
1107.430, 29.50818
1107.912, 25.70660
1108.394, 38.94379
1108.876, 33.57483
1109.359, 36.53943
1109.841, 30.25244
1110.323, 24.37817
1110.805, 29.34595
1111.287, 35.20087
1111.769, 26.94971
1112.251, 8.605774
1112.733, 1.287231
1113.215, 10.83765
1113.698, 21.79498
1114.180, 41.27075
1114.662, 49.45599
1115.144, 32.18158
1115.626, 16.64001
1116.108, 23.89319
1116.590, 41.93243
1117.072, 48.54480
1117.555, 43.67773
1118.037, 36.34698
1118.519, 25.11499
1119.001, 20.37903
1119.483, 24.40076
1119.965, 28.22070
1120.447, 28.21985
1120.929, 25.49701
1121.411, 20.77460
1121.894, 15.18494
1122.376, 10.54083
1122.858, 7.632813
1123.340, 12.47174
1123.822, 23.44019
1124.304, 31.81830
1124.786, 35.21631
1125.268, 32.32031
1125.750, 21.98004
1126.233, 12.09747
1126.715, 12.34357
1127.197, 17.41864
1127.679, 23.77948
1128.161, 29.14777
1128.643, 24.23651
1129.125, 13.72852
1129.607, 11.28400
1130.090, 19.88654
1130.572, 30.12598
1131.054, 39.89368
1131.536, 45.90985
1132.018, 47.05817
1132.500, 43.07935
1132.982, 27.00848
1133.464, 10.71570
1133.947, 10.79071
1134.429, 23.61761
1134.911, 30.58936
1135.393, 27.71942
1135.875, 25.06665
1136.357, 22.22003
1136.839, 21.57275
1137.321, 26.55157
1137.803, 29.14288
1138.286, 22.53516
1138.768, 13.73755
1139.250, 13.82166
1139.732, 21.49536
1140.214, 23.51984
1140.696, 18.39978
1141.178, 20.43726
1141.660, 30.49939
1142.142, 38.22510
1142.625, 38.61841
1143.107, 35.22272
1143.589, 30.42456
1144.071, 26.44214
1144.553, 31.75116
1145.035, 39.51227
1145.517, 20.93732
1145.999, 12.09235
1146.482, 18.95892
1146.964, 0.6129150
1147.446, 13.43677
1147.928, 12.36005
1148.410, 10.79803
1148.892, 21.47931
1149.374, 32.85364
1149.856, 37.24713
1150.339, 34.85992
1150.821, 17.59338
1151.303, 1.313965
1151.785, 8.6121000E-02
1152.267, 19.10980
1152.749, 32.58453
1153.231, 32.80402
1153.713, 35.72754
1154.195, 49.12146
1154.677, 60.52118
1155.160, 70.24988
1155.642, 70.24664
1156.124, 46.98016
1156.606, 18.11951
1157.088, 10.89899
1157.570, 23.14545
1158.052, 29.32520
1158.534, 28.68524
1159.017, 23.93500
1159.499, 13.24707
1159.981, 11.65564
1160.463, 25.06250
1160.945, 35.56274
1161.427, 29.06036
1161.909, 18.22614
1162.391, 29.19507
1162.874, 51.59650
1163.356, 46.81049
1163.838, 23.89783
1164.320, 10.68597
1164.802, 9.183350
1165.284, 12.49567
1165.766, 17.70013
1166.248, 22.20209
1166.730, 25.82220
1167.213, 24.18042
1167.695, 5.809265
1168.177, 11.26831
1168.659, 7.805115
1169.141, 4.433472
1169.623, 10.97192
1170.105, 12.01294
1170.587, 12.87189
1171.069, 14.27216
1171.552, 18.87140
1172.034, 31.93457
1172.516, 40.75476
1172.998, 43.15448
1173.480, 41.18158
1173.962, 32.18860
1174.444, 24.53003
1174.926, 28.26910
1175.409, 38.59277
1175.891, 36.84241
1176.373, 21.33423
1176.855, 20.72827
1177.337, 35.53632
1177.819, 38.43195
1178.301, 24.64935
1178.783, 13.90881
1179.266, 15.81879
1179.748, 20.90961
1180.230, 19.14923
1180.712, 14.58405
1181.194, 12.23163
1181.676, 12.68512
1182.158, 19.56787
1182.640, 29.03265
1183.122, 33.34497
1183.604, 31.93225
1184.087, 27.77081
1184.569, 21.06580
1185.051, 18.61743
1185.533, 27.84015
1186.015, 36.08380
1186.497, 35.68549
1186.979, 34.99677
1187.461, 44.95349
1187.944, 54.74847
1188.426, 44.95563
1188.908, 19.11761
1189.390, 7.156799
1189.872, 16.03699
1190.354, 25.37463
1190.836, 37.26178
1191.318, 38.82172
1191.801, 25.15265
1192.283, 13.41876
1192.765, 12.78772
1193.247, 17.18604
1193.729, 19.46454
1194.211, 20.45148
1194.693, 22.90381
1195.175, 25.47009
1195.657, 21.98511
1196.140, 15.84344
1196.622, 18.91174
1197.104, 31.18945
1197.586, 41.49664
1198.068, 45.10437
1198.550, 44.04712
1199.032, 33.41168
1199.514, 26.56787
1199.996, 34.31091
1200.479, 44.32050
1200.961, 49.08014
1201.443, 46.80273
1201.925, 31.50586
1202.407, 7.270020
1202.889, 4.544250
1203.371, 36.98260
1203.853, 45.50787
1204.336, 20.30219
1204.818, 3.417969
1205.300, 4.468933
1205.782, 9.160889
1206.264, 10.25433
1206.746, 9.023743
1207.228, 6.584534
1207.710, 3.832031
1208.193, 1.708862
1208.675, 1.585632
1209.157, 8.664551
1209.639, 21.07172
1210.121, 37.59619
1210.603, 53.48462
1211.085, 49.52966
1211.567, 17.46423
1212.049, 6.559326
1212.531, 6.937378
1213.014, 24.42078
1213.496, 28.78815
1213.978, 30.22888
1214.460, 39.73303
1214.942, 47.56787
1215.424, 35.60114
1215.906, 11.62531
1216.388, 6.597168
1216.871, 25.36224
1217.353, 31.58954
1217.835, 21.39319
1218.317, 16.54724
1218.799, 20.53888
1219.281, 29.24115
1219.763, 41.23517
1220.245, 48.89996
1220.728, 45.34515
1221.210, 36.66382
1221.692, 34.62091
1222.174, 32.42322
1222.656, 25.60498
1223.138, 16.85443
1223.620, 21.45746
1224.102, 34.47559
1224.584, 37.62115
1225.067, 26.62939
1225.549, 14.90955
1226.031, 6.867554
1226.513, 1.609131
1226.995, 0.4556880
1227.477, 0.3621830
1227.959, 2.313110
1228.441, 5.744934
1228.923, 7.380920
1229.406, 5.760986
1229.888, 7.851807
1230.370, 15.57117
1230.852, 12.64148
1231.334, 0.0000000E+00
##END=



