##NAMES=Monazite-(Ce)
##RRUFFID=R120081
##IDEAL CHEMISTRY=CePO_4_
##LOCALITY=Hinman mine, Jefferson County, Colorado, USA
##OWNER=RRUFF
##SOURCE=Rudy Bolona
##DESCRIPTION=Reddish-brown massive
##STATUS=The identification of this mineral has been confirmed only by single crystal X-ray diffraction.
##URL=rruff.info/R120081
205.2360, 0.0000000E+00
205.7181, 0.2002260
206.2002, 0.1247560
206.6823, 0.7888790
207.1644, 1.842598
207.6465, 2.957726
208.1287, 4.021629
208.6108, 4.843140
209.0929, 5.382614
209.5750, 5.711311
210.0571, 5.673607
210.5392, 5.020714
211.0214, 5.192558
211.5035, 6.606934
211.9856, 8.819305
212.4677, 10.32436
212.9498, 10.94179
213.4319, 11.26433
213.9140, 11.50490
214.3962, 11.42911
214.8783, 12.19535
215.3604, 14.27039
215.8425, 17.20792
216.3246, 19.02846
216.8067, 19.30240
217.2889, 19.32319
217.7710, 19.89192
218.2531, 21.18169
218.7352, 22.49622
219.2173, 23.74319
219.6994, 24.98355
220.1816, 26.48869
220.6637, 28.49281
221.1458, 30.39220
221.6279, 31.79605
222.1100, 32.64317
222.5921, 33.21257
223.0743, 33.65810
223.5564, 33.85765
224.0385, 33.15114
224.5206, 31.19815
225.0027, 28.91936
225.4848, 26.87040
225.9670, 25.18808
226.4491, 23.43175
226.9312, 21.43616
227.4133, 19.32967
227.8954, 17.65767
228.3775, 16.62088
228.8597, 15.77130
229.3418, 14.85202
229.8239, 13.80439
230.3060, 12.86001
230.7881, 12.02870
231.2702, 11.29932
231.7524, 10.52440
232.2345, 9.568283
232.7166, 8.763809
233.1987, 8.345673
233.6808, 8.506706
234.1629, 8.611931
234.6451, 8.557930
235.1272, 8.409775
235.6093, 8.498489
236.0914, 9.098663
236.5735, 9.560616
237.0556, 9.399986
237.5378, 7.924881
238.0199, 7.416222
238.5020, 8.554031
238.9841, 10.76692
239.4662, 11.60113
239.9483, 10.18904
240.4305, 8.595909
240.9126, 7.950912
241.3947, 8.801323
241.8768, 9.398705
242.3589, 9.629059
242.8410, 9.561684
243.3232, 9.479813
243.8053, 9.667511
244.2874, 9.442085
244.7695, 8.341728
245.2516, 5.672333
245.7337, 3.674850
246.2159, 2.602646
246.6980, 2.216995
247.1801, 1.745079
247.6622, 0.9614330
248.1443, 0.4171140
248.6264, 0.4551930
249.1086, 1.479141
249.5907, 2.104347
250.0728, 2.213676
250.5549, 1.938179
251.0370, 1.594307
251.5191, 1.069420
252.0013, 0.6574940
252.4834, 0.5435940
252.9655, 0.9826350
253.4476, 1.020363
253.9297, 0.3882750
254.4118, 0.5227130
254.8940, 0.8407360
255.3761, 0.3948750
255.8582, 0.3452450
256.3403, 1.313622
256.8224, 2.793129
257.3046, 3.499161
257.7867, 3.111504
258.2688, 2.147675
258.7509, 1.618294
259.2330, 1.688705
259.7151, 1.863274
260.1973, 1.953918
260.6794, 1.925209
261.1615, 1.947952
261.6436, 1.953247
262.1257, 2.069756
262.6078, 2.614006
263.0900, 3.783997
263.5721, 4.704849
264.0542, 4.941544
264.5363, 4.334099
265.0184, 4.148056
265.5005, 4.446945
265.9827, 5.083824
266.4648, 5.898827
266.9469, 6.953178
267.4290, 7.998741
267.9111, 9.003036
268.3932, 9.969841
268.8754, 10.68655
269.3575, 11.02757
269.8396, 11.30915
270.3217, 11.99237
270.8038, 13.19025
271.2859, 14.31306
271.7681, 15.11058
272.2502, 15.62940
272.7323, 16.26884
273.2144, 17.02550
273.6965, 17.92243
274.1786, 18.95636
274.6608, 20.16764
275.1429, 21.34494
275.6250, 22.42889
276.1071, 23.45396
276.5892, 24.62334
277.0714, 25.97163
277.5535, 27.22906
278.0356, 27.98782
278.5177, 28.22125
278.9998, 28.76347
279.4819, 29.77705
279.9641, 31.18813
280.4462, 32.80463
280.9283, 34.70668
281.4104, 36.41957
281.8925, 37.41441
282.3746, 37.68262
282.8568, 38.29890
283.3389, 39.56541
283.8210, 41.18980
284.3031, 42.32254
284.7852, 42.93352
285.2673, 43.41966
285.7495, 43.95148
286.2316, 44.55794
286.7137, 45.64893
287.1958, 47.49477
287.6779, 49.52290
288.1600, 50.46935
288.6422, 50.29904
289.1243, 49.90697
289.6064, 49.76234
290.0885, 49.86433
290.5706, 50.31312
291.0527, 51.25218
291.5349, 52.18844
292.0170, 52.30283
292.4991, 51.63322
292.9812, 50.68121
293.4633, 49.67068
293.9454, 48.58694
294.4276, 47.37366
294.9097, 46.02190
295.3918, 44.64240
295.8739, 43.37039
296.3560, 42.19298
296.8381, 40.97391
297.3203, 39.50188
297.8024, 37.99323
298.2845, 37.05196
298.7666, 36.78130
299.2487, 36.37640
299.7308, 34.78893
300.2130, 32.40334
300.6951, 30.28989
301.1772, 29.06075
301.6593, 28.25883
302.1414, 27.18179
302.6235, 25.84676
303.1057, 24.56870
303.5878, 23.81222
304.0699, 23.28759
304.5520, 22.46358
305.0341, 20.96737
305.5162, 19.28748
305.9984, 17.86727
306.4805, 16.70573
306.9626, 15.69556
307.4447, 14.91762
307.9268, 14.21093
308.4089, 13.35038
308.8911, 12.12707
309.3732, 10.96748
309.8553, 10.33633
310.3374, 10.09181
310.8195, 9.738411
311.3016, 8.797035
311.7838, 7.731689
312.2659, 6.963661
312.7480, 6.668373
313.2301, 6.472977
313.7122, 6.116402
314.1943, 5.682838
314.6765, 5.365685
315.1586, 5.668381
315.6407, 5.825043
316.1228, 5.127403
316.6049, 3.181580
317.0870, 1.721085
317.5692, 1.982224
318.0513, 3.097137
318.5334, 3.853821
319.0155, 3.667908
319.4976, 3.208427
319.9797, 2.674217
320.4619, 2.063957
320.9440, 1.594704
321.4261, 1.380638
321.9082, 1.319046
322.3903, 1.314522
322.8724, 1.310661
323.3546, 1.395790
323.8367, 1.732101
324.3188, 2.297318
324.8009, 2.517464
325.2830, 2.021652
325.7651, 1.325226
326.2473, 0.7628330
326.7294, 0.4496540
327.2115, 0.1779250
327.6936, 0.1635510
328.1757, 0.5083160
328.6578, 0.5478590
329.1400, 0.1845250
329.6221, 0.8377080
330.1042, 1.029778
330.5863, 0.2699740
331.0684, 0.1290280
331.5505, 8.6448997E-02
332.0327, 0.6159670
332.5148, 0.7640840
332.9969, 0.1276020
333.4790, 0.3505710
333.9611, 0.2507170
334.4432, 0.7136920
334.9254, 1.052681
335.4075, 0.4681700
335.8896, 0.4970250
336.3717, 1.113510
336.8538, 1.316200
337.3359, 1.306091
337.8180, 1.063713
338.3001, 0.5953900
338.7823, 0.3018190
339.2644, 0.2303540
339.7465, 0.2394410
340.2286, 0.1828460
340.7107, 3.8063001E-02
341.1928, 5.5840001E-02
341.6750, 8.8844001E-02
342.1571, 4.9323998E-02
342.6392, 0.1163860
343.1213, 0.4157640
343.6034, 0.8057710
344.0855, 1.418442
344.5677, 2.222755
345.0498, 2.490280
345.5319, 1.992165
346.0140, 1.148323
346.4961, 0.7411420
346.9782, 0.7592240
347.4604, 0.9210820
347.9425, 1.173859
348.4246, 1.458824
348.9067, 1.517540
349.3888, 1.307922
349.8709, 1.014740
350.3531, 0.9143750
350.8352, 0.9367290
351.3173, 0.8218770
351.7994, 0.2888570
352.2815, 0.3953170
352.7636, 0.7424010
353.2458, 0.7517550
353.7279, 0.7238310
354.2100, 1.066826
354.6921, 1.522209
355.1742, 1.598854
355.6563, 0.7257080
356.1385, 0.1387710
356.6206, 5.4115001E-02
357.1027, 1.131943
357.5848, 2.225227
358.0669, 2.987114
358.5490, 3.440636
359.0312, 3.569275
359.5133, 3.269920
359.9954, 2.883858
360.4775, 2.521469
360.9596, 2.216026
361.4417, 2.041908
361.9239, 1.910538
362.4060, 2.006493
362.8881, 2.505630
363.3702, 3.505836
363.8523, 4.474960
364.3344, 5.414925
364.8166, 6.172798
365.2987, 6.577080
365.7808, 5.994621
366.2629, 5.637337
366.7450, 6.175308
367.2271, 7.599800
367.7093, 8.133171
368.1914, 6.292191
368.6735, 4.298119
369.1556, 3.595673
369.6377, 5.354271
370.1198, 7.044525
370.6020, 8.990829
371.0841, 10.86160
371.5662, 11.33507
372.0483, 8.969238
372.5304, 6.954849
373.0125, 6.774612
373.4947, 9.356148
373.9768, 11.09661
374.4589, 11.75622
374.9410, 11.78664
375.4231, 11.81209
375.9052, 11.70632
376.3874, 11.96812
376.8695, 12.87182
377.3516, 14.40860
377.8337, 15.62850
378.3158, 16.55000
378.7979, 17.16679
379.2801, 17.36459
379.7622, 17.12347
380.2443, 16.92816
380.7264, 16.78905
381.2085, 16.82304
381.6906, 17.42595
382.1728, 18.60125
382.6549, 19.91818
383.1370, 21.01102
383.6191, 21.98317
384.1012, 23.33115
384.5833, 25.25835
385.0655, 27.07780
385.5476, 27.58575
386.0297, 27.11060
386.5118, 26.84254
386.9939, 27.43159
387.4760, 28.55991
387.9582, 29.90197
388.4403, 31.45820
388.9224, 33.01514
389.4045, 34.46781
389.8866, 35.84248
390.3687, 37.15980
390.8509, 38.26019
391.3330, 39.42577
391.8151, 41.14978
392.2972, 43.27591
392.7793, 45.02402
393.2614, 45.67850
393.7436, 45.97307
394.2257, 46.47687
394.7078, 47.33006
395.1899, 48.38106
395.6720, 49.55675
396.1541, 50.92526
396.6363, 52.56291
397.1184, 54.87144
397.6005, 57.06447
398.0826, 58.86407
398.5647, 60.22620
399.0468, 61.49699
399.5290, 62.82545
400.0111, 63.99721
400.4932, 64.83582
400.9753, 65.08870
401.4574, 65.31757
401.9395, 65.48283
402.4217, 65.61964
402.9038, 66.03991
403.3859, 67.16123
403.8680, 68.09577
404.3501, 68.35286
404.8322, 67.75010
405.3144, 66.90726
405.7965, 65.66428
406.2786, 64.36666
406.7607, 63.77377
407.2428, 64.11608
407.7249, 63.99020
408.2071, 62.71986
408.6892, 60.52077
409.1713, 58.99748
409.6534, 58.30400
410.1355, 57.53035
410.6176, 55.55162
411.0998, 52.59322
411.5819, 50.10752
412.0640, 48.48871
412.5461, 47.27765
413.0282, 45.75542
413.5103, 43.94892
413.9925, 42.00263
414.4746, 39.94684
414.9567, 37.89103
415.4388, 35.95335
415.9209, 34.11315
416.4030, 32.49696
416.8852, 31.55003
417.3673, 30.82309
417.8494, 29.58486
418.3315, 26.90704
418.8136, 24.15366
419.2957, 22.16618
419.7779, 20.89054
420.2600, 19.81014
420.7421, 18.72899
421.2242, 17.74249
421.7063, 16.95444
422.1884, 16.43478
422.6706, 15.98714
423.1527, 15.77774
423.6348, 15.58138
424.1169, 14.97728
424.5990, 13.19148
425.0811, 11.66223
425.5633, 10.93254
426.0454, 11.14358
426.5275, 11.14823
427.0096, 10.87241
427.4917, 10.44453
427.9738, 9.953331
428.4560, 9.341003
428.9381, 8.793106
429.4202, 8.383049
429.9023, 8.046349
430.3844, 7.481018
430.8665, 6.566544
431.3487, 5.776505
431.8308, 5.391327
432.3129, 5.432716
432.7950, 5.525101
433.2771, 5.741653
433.7592, 5.802277
434.2414, 5.075294
434.7235, 3.660553
435.2056, 2.789383
435.6877, 3.028206
436.1698, 3.929176
436.6519, 4.650955
437.1341, 5.192413
437.6162, 5.551674
438.0983, 5.719543
438.5804, 5.712975
439.0625, 5.512535
439.5446, 5.052399
440.0268, 4.613449
440.5089, 4.278046
440.9910, 4.153183
441.4731, 4.457458
441.9552, 6.056480
442.4373, 7.510422
442.9195, 7.676941
443.4016, 6.560204
443.8837, 5.616615
444.3658, 5.656960
444.8479, 5.991432
445.3300, 6.073059
445.8122, 5.445946
446.2943, 5.013550
446.7764, 5.101601
447.2585, 5.497139
447.7406, 5.655312
448.2227, 5.227097
448.7049, 4.866501
449.1870, 4.725128
449.6691, 4.794106
450.1512, 5.192162
450.6333, 6.209007
451.1154, 7.237564
451.5976, 7.640350
452.0797, 7.198174
452.5618, 6.841949
453.0439, 6.663582
453.5260, 6.691574
454.0081, 7.093384
454.4903, 7.934845
454.9724, 8.734108
455.4545, 9.305679
455.9366, 9.631470
456.4187, 9.456810
456.9008, 8.672417
457.3830, 7.948555
457.8651, 8.301674
458.3472, 9.410645
458.8293, 10.20842
459.3114, 10.16914
459.7935, 9.839149
460.2757, 9.868446
460.7578, 10.21523
461.2399, 10.66673
461.7220, 11.37453
462.2041, 11.97604
462.6862, 12.03040
463.1684, 11.36757
463.6505, 10.72903
464.1326, 10.40776
464.6147, 10.39091
465.0968, 10.66048
465.5789, 11.94728
466.0611, 12.60418
466.5432, 11.77058
467.0253, 9.658035
467.5074, 8.351112
467.9895, 8.667793
468.4716, 9.398979
468.9538, 9.979790
469.4359, 10.32035
469.9180, 10.67458
470.4001, 11.31819
470.8822, 11.79013
471.3643, 11.20306
471.8465, 8.981583
472.3286, 7.401878
472.8107, 7.250992
473.2928, 8.269257
473.7749, 8.844803
474.2570, 8.924103
474.7392, 8.752144
475.2213, 8.290901
475.7034, 7.626984
476.1855, 7.576004
476.6676, 8.377106
477.1497, 9.286461
477.6319, 9.143806
478.1140, 8.237053
478.5961, 7.503288
479.0782, 7.483536
479.5603, 7.802834
480.0424, 8.070694
480.5246, 8.269020
481.0067, 8.369011
481.4888, 8.259697
481.9709, 8.108009
482.4530, 8.106674
482.9352, 8.402733
483.4173, 8.580101
483.8994, 8.280937
484.3815, 7.822067
484.8636, 7.679787
485.3457, 8.182816
485.8279, 8.747574
486.3100, 9.254890
486.7921, 9.702980
487.2742, 10.08302
487.7563, 10.45954
488.2384, 10.65627
488.7206, 10.57105
489.2027, 10.11565
489.6848, 9.977371
490.1669, 10.23760
490.6490, 10.60471
491.1311, 10.62363
491.6133, 10.20237
492.0954, 9.820877
492.5775, 9.641418
493.0596, 9.649323
493.5417, 9.796799
494.0238, 10.08832
494.5060, 10.38866
494.9881, 10.61226
495.4702, 10.74741
495.9523, 10.81148
496.4344, 10.82061
496.9165, 10.69195
497.3987, 10.18129
497.8808, 9.481133
498.3629, 8.971451
498.8450, 8.806046
499.3271, 8.866905
499.8092, 9.265259
500.2914, 9.907135
500.7735, 10.25705
501.2556, 10.12640
501.7377, 9.638779
502.2198, 8.735107
502.7019, 6.986267
503.1841, 5.918884
503.6662, 6.270210
504.1483, 7.174103
504.6304, 7.626770
505.1125, 7.390282
505.5946, 7.082909
506.0768, 6.753555
506.5589, 6.407463
507.0410, 6.142326
507.5231, 6.005615
508.0052, 5.815147
508.4873, 5.237312
508.9695, 4.269836
509.4516, 4.536736
509.9337, 6.330513
510.4158, 8.170341
510.8979, 8.171333
511.3800, 6.676498
511.8622, 5.176155
512.3443, 3.932678
512.8264, 3.061928
513.3085, 2.871071
513.7906, 3.215645
514.2728, 3.576805
514.7549, 3.661491
515.2370, 3.638397
515.7191, 3.691811
516.2012, 3.846718
516.6833, 3.844246
517.1655, 3.582886
517.6476, 3.104446
518.1297, 2.436722
518.6118, 1.102249
519.0939, 0.1826480
519.5760, 0.1672440
520.0582, 0.6680600
520.5403, 0.7409130
521.0224, 7.0304997E-02
521.5045, 0.6042480
521.9866, 1.211014
522.4688, 1.749496
522.9509, 1.491997
523.4330, 8.6929001E-02
523.9151, 1.298637
524.3972, 1.647049
524.8793, 0.9298710
525.3615, 0.3731990
525.8436, 4.8317000E-02
526.3257, 2.5940000E-03
526.8078, 0.5216750
527.2899, 1.462593
527.7720, 2.135117
528.2542, 2.198151
528.7363, 1.893379
529.2184, 1.448257
529.7005, 0.8910060
530.1826, 0.3532940
530.6647, 0.1510240
531.1469, 0.5570300
531.6290, 0.8214570
532.1111, 0.9375690
532.5932, 0.8973770
533.0753, 0.6367720
533.5574, 0.2431260
534.0396, 0.1885760
534.5217, 0.9914550
535.0038, 1.425804
535.4859, 1.221855
535.9680, 0.5705260
536.4501, 4.6776000E-02
536.9323, 0.3868560
537.4144, 0.6272050
537.8965, 0.5961070
538.3786, 0.2882000
538.8607, 3.8474999E-02
539.3428, 0.4249880
539.8250, 0.6928630
540.3071, 0.6251980
540.7892, 0.2535860
541.2713, 0.1576160
541.7534, 0.5993800
542.2355, 0.9810560
542.7177, 1.153465
543.1998, 1.156502
543.6819, 1.111290
544.1640, 1.099594
544.6461, 1.048119
545.1282, 0.6847230
545.6104, 0.1183700
546.0925, 6.1650001E-03
546.5746, 1.266258
547.0567, 2.688889
547.5388, 3.481331
548.0209, 3.434753
548.5031, 3.065773
548.9852, 2.191628
549.4673, 1.182007
549.9494, 0.4202420
550.4315, 7.5249001E-02
550.9136, 0.3314130
551.3958, 0.2507710
551.8779, 4.4234999E-02
552.3600, 0.1890030
552.8421, 0.1616590
553.3242, 6.2454000E-02
553.8063, 0.1165770
554.2885, 0.3487320
554.7706, 0.3474430
555.2527, 8.2840003E-02
555.7348, 9.8297000E-02
556.2169, 0.2083820
556.6990, 0.8294450
557.1812, 1.362198
557.6633, 1.775055
558.1454, 1.968231
558.6275, 1.660652
559.1096, 1.093613
559.5917, 0.6861190
560.0739, 0.6693570
560.5560, 0.7988740
561.0381, 1.136459
561.5202, 1.572357
562.0023, 1.652237
562.4844, 0.6442110
562.9666, 0.2167510
563.4487, 0.2946620
563.9308, 0.5949400
564.4129, 1.365868
564.8950, 2.149734
565.3771, 2.669075
565.8593, 2.581062
566.3414, 1.651932
566.8235, 1.103264
567.3056, 1.050934
567.7877, 1.425598
568.2698, 2.439568
568.7520, 4.025841
569.2341, 4.847809
569.7162, 3.919975
570.1983, 2.248093
570.6804, 1.653152
571.1625, 2.040504
571.6447, 2.712708
572.1268, 3.562241
572.6089, 4.278107
573.0910, 4.447868
573.5731, 3.956253
574.0552, 3.509995
574.5374, 3.432472
575.0195, 3.549591
575.5016, 3.697105
575.9837, 3.657539
576.4658, 3.878052
576.9479, 4.564682
577.4301, 5.492691
577.9122, 6.217422
578.3943, 6.644051
578.8764, 7.032745
579.3585, 7.499573
579.8406, 7.982758
580.3228, 7.967491
580.8049, 7.447990
581.2870, 6.912056
581.7691, 6.414459
582.2512, 6.019569
582.7333, 6.199104
583.2155, 7.026947
583.6975, 7.919708
584.1796, 8.294807
584.6617, 8.430832
585.1439, 8.781570
585.6260, 9.710365
586.1081, 10.45030
586.5902, 10.13010
587.0723, 9.331367
587.5544, 9.175446
588.0366, 10.35560
588.5187, 11.81266
589.0008, 13.47098
589.4829, 15.27809
589.9650, 16.41647
590.4471, 16.50646
590.9293, 16.44874
591.4114, 16.62158
591.8935, 17.02591
592.3756, 17.72732
592.8577, 18.84912
593.3398, 19.88780
593.8220, 20.20028
594.3041, 19.87170
594.7862, 19.69938
595.2683, 19.86330
595.7504, 20.20642
596.2325, 20.66156
596.7147, 21.14780
597.1968, 21.43819
597.6789, 21.06805
598.1610, 20.75107
598.6431, 21.06674
599.1252, 21.89229
599.6074, 22.71053
600.0895, 23.53657
600.5716, 24.17118
601.0537, 24.48012
601.5358, 24.37348
602.0179, 24.28870
602.5001, 24.03469
602.9822, 24.02520
603.4643, 24.67037
603.9464, 26.21705
604.4285, 27.24133
604.9106, 27.63018
605.3928, 27.56659
605.8749, 27.23618
606.3570, 26.67860
606.8391, 26.20740
607.3212, 26.00115
607.8033, 25.81105
608.2855, 25.00190
608.7676, 23.78378
609.2497, 23.00504
609.7318, 23.58363
610.2139, 24.45368
610.6960, 24.81927
611.1782, 24.65192
611.6603, 24.34007
612.1424, 24.05199
612.6245, 23.62558
613.1066, 22.86565
613.5887, 21.22495
614.0709, 20.55694
614.5530, 21.63647
615.0351, 22.97869
615.5172, 22.85622
615.9993, 20.81260
616.4814, 19.39472
616.9636, 19.05149
617.4457, 19.37379
617.9278, 19.72125
618.4099, 20.07586
618.8920, 20.27182
619.3741, 20.24365
619.8563, 20.01715
620.3384, 19.57507
620.8205, 18.94058
621.3026, 18.26355
621.7847, 17.33220
622.2668, 16.60912
622.7490, 16.63546
623.2311, 17.54190
623.7132, 18.13079
624.1953, 17.82325
624.6774, 17.26857
625.1595, 16.92410
625.6417, 16.95714
626.1238, 16.89069
626.6059, 16.68624
627.0880, 16.43011
627.5701, 16.25342
628.0522, 16.17198
628.5344, 16.00174
629.0165, 15.64809
629.4986, 15.26814
629.9807, 15.18687
630.4628, 15.36695
630.9449, 15.60605
631.4271, 15.78004
631.9092, 15.97644
632.3913, 16.37904
632.8734, 16.93596
633.3555, 17.31570
633.8376, 17.07082
634.3198, 16.81987
634.8019, 17.00674
635.2840, 17.79877
635.7661, 18.36375
636.2482, 18.47088
636.7303, 18.45248
637.2125, 18.50620
637.6946, 18.58901
638.1767, 18.88077
638.6588, 19.39576
639.1409, 20.10676
639.6230, 21.22668
640.1052, 22.69241
640.5873, 23.30623
641.0694, 22.41615
641.5515, 21.13008
642.0336, 21.13921
642.5157, 22.14697
642.9979, 23.29514
643.4800, 24.42181
643.9621, 25.31299
644.4442, 25.61243
644.9263, 25.44608
645.4084, 25.53670
645.8906, 26.49274
646.3727, 27.42862
646.8548, 27.88617
647.3369, 27.79375
647.8190, 27.73085
648.3011, 27.50691
648.7833, 27.60094
649.2654, 28.63340
649.7475, 30.76431
650.2296, 31.85796
650.7117, 31.66298
651.1938, 30.96599
651.6760, 30.61738
652.1581, 30.55466
652.6402, 30.59995
653.1223, 30.71262
653.6044, 30.90416
654.0865, 31.41952
654.5687, 31.99546
655.0508, 32.13270
655.5329, 31.00603
656.0150, 30.06512
656.4971, 30.03206
656.9792, 30.71242
657.4614, 31.04571
657.9435, 30.89024
658.4256, 30.51025
658.9077, 29.83092
659.3898, 28.88887
659.8719, 28.72337
660.3541, 29.48701
660.8362, 30.30999
661.3183, 30.62273
661.8004, 30.49667
662.2825, 30.18473
662.7646, 29.69295
663.2468, 29.08954
663.7289, 28.22157
664.2110, 27.36002
664.6931, 26.94317
665.1752, 27.32434
665.6573, 27.46672
666.1395, 26.65504
666.6216, 25.45276
667.1037, 24.55221
667.5858, 24.32105
668.0679, 24.05621
668.5500, 23.66339
669.0322, 23.23289
669.5143, 23.03817
669.9964, 23.18037
670.4785, 23.03453
670.9606, 22.31106
671.4427, 21.22243
671.9249, 20.26418
672.4070, 19.45084
672.8891, 18.97079
673.3712, 19.41351
673.8533, 19.96622
674.3354, 19.40760
674.8176, 17.86703
675.2997, 16.75333
675.7818, 17.35171
676.2639, 18.17527
676.7460, 18.20148
677.2281, 17.00726
677.7103, 16.33219
678.1924, 16.75887
678.6745, 17.19201
679.1566, 16.65444
679.6387, 14.77438
680.1208, 13.78824
680.6030, 14.01502
681.0851, 14.61902
681.5672, 14.51629
682.0493, 13.84676
682.5314, 13.23663
683.0135, 12.92317
683.4957, 12.66090
683.9778, 12.12376
684.4599, 11.48269
684.9420, 11.04517
685.4241, 11.10014
685.9063, 11.15248
686.3884, 10.89536
686.8705, 10.46559
687.3526, 10.35551
687.8347, 10.90184
688.3168, 11.29211
688.7990, 11.30627
689.2811, 11.02813
689.7632, 10.71872
690.2453, 10.32407
690.7274, 10.00402
691.2095, 9.988144
691.6917, 10.14901
692.1738, 10.07733
692.6559, 9.774948
693.1380, 9.354752
693.6201, 8.836334
694.1022, 8.299477
694.5844, 7.789253
695.0665, 7.280327
695.5486, 6.936073
696.0307, 6.920998
696.5128, 6.998085
696.9949, 6.990692
697.4771, 6.940704
697.9592, 6.724197
698.4413, 6.180016
698.9234, 5.689445
699.4055, 5.895264
699.8876, 6.820274
700.3698, 7.236504
700.8519, 6.889526
701.3340, 6.076271
701.8161, 4.931305
702.2982, 3.650124
702.7803, 2.708351
703.2625, 2.177612
703.7446, 2.175957
704.2267, 3.315292
704.7088, 5.019730
705.1909, 6.009155
705.6730, 5.523041
706.1552, 4.729103
706.6373, 3.652863
707.1194, 2.442871
707.6015, 1.948975
708.0836, 2.402313
708.5657, 2.918755
709.0479, 3.115509
709.5300, 3.086586
710.0121, 3.290726
710.4942, 3.717125
710.9763, 4.056007
711.4584, 4.185822
711.9406, 4.059212
712.4227, 3.488907
712.9048, 2.487778
713.3869, 1.634254
713.8690, 1.176369
714.3511, 0.9886470
714.8333, 1.036423
715.3154, 1.448494
715.7975, 1.677933
716.2796, 1.703629
716.7617, 1.575447
717.2438, 1.296623
717.7260, 0.8536680
718.2081, 0.4153060
718.6902, 3.4920000E-02
719.1723, 0.3519590
719.6544, 0.3389660
720.1365, 5.5243999E-02
720.6187, 0.4270940
721.1008, 1.236137
721.5829, 1.802643
722.0650, 1.483162
722.5471, 0.7367630
723.0292, 0.1701200
723.5114, 2.7010001E-03
723.9935, 1.3969000E-02
724.4756, 0.2491680
724.9577, 0.5773620
725.4398, 0.5819780
725.9219, 0.1472470
726.4041, 0.2667920
726.8862, 0.5710600
727.3683, 0.7873080
727.8504, 0.9989090
728.3325, 1.182236
728.8146, 1.161026
729.2968, 0.7449950
729.7789, 0.1765750
730.2610, 0.4426500
730.7431, 1.012413
731.2252, 1.200241
731.7073, 0.3025590
732.1895, 0.4653850
732.6716, 0.4002530
733.1537, 0.4337160
733.6358, 0.8003620
734.1179, 0.5385510
734.6000, 7.2967999E-02
735.0822, 0.5354310
735.5643, 1.236282
736.0464, 1.409950
736.5285, 1.033432
737.0106, 0.5831760
737.4927, 0.3774190
737.9749, 0.3299790
738.4570, 0.3812180
738.9391, 0.5152280
739.4212, 0.4459460
739.9033, 0.4086000
740.3854, 1.235023
740.8676, 1.371185
741.3497, 0.5183720
741.8318, 0.1331020
742.3139, 0.4738010
742.7960, 0.6427380
743.2781, 0.7163010
743.7603, 0.6826780
744.2424, 0.6394650
744.7245, 0.5921630
745.2066, 0.5195770
745.6887, 0.1978760
746.1708, 0.1553960
746.6530, 0.2308200
747.1351, 1.687759
747.6172, 2.808769
748.0993, 2.150627
748.5814, 0.7637710
749.0635, 0.1665880
749.5457, 8.9867003E-02
750.0278, 1.1063000E-02
750.5099, 0.1248320
750.9920, 0.2541890
751.4741, 0.1552200
751.9562, 0.2644270
752.4384, 0.5282750
752.9205, 0.5709920
753.4026, 0.4378660
753.8847, 0.1140520
754.3668, 0.3431930
754.8489, 0.7162020
755.3311, 0.9429400
755.8132, 1.053551
756.2953, 1.004349
756.7774, 0.8680570
757.2595, 0.7744450
757.7416, 0.7461320
758.2238, 0.7863850
758.7059, 0.9219060
759.1880, 1.121376
759.6701, 1.353828
760.1522, 1.692337
760.6343, 1.821495
761.1165, 1.601074
761.5986, 1.186745
762.0807, 0.9632420
762.5628, 0.9002530
763.0449, 0.8152620
763.5270, 0.4744340
764.0092, 0.2062150
764.4913, 0.3844760
764.9734, 0.8992610
765.4555, 1.409554
765.9376, 2.007149
766.4197, 2.346298
766.9019, 2.143883
767.3840, 1.544464
767.8661, 1.195168
768.3482, 1.130524
768.8303, 1.224701
769.3124, 1.504517
769.7946, 1.879951
770.2767, 1.994400
770.7588, 1.876205
771.2409, 1.790520
771.7230, 1.812256
772.2051, 2.004929
772.6873, 2.589317
773.1694, 3.486938
773.6515, 4.114662
774.1336, 4.004234
774.6157, 3.840950
775.0978, 3.942940
775.5800, 4.299553
776.0621, 4.542603
776.5442, 4.649849
777.0263, 4.702225
777.5084, 4.776443
777.9905, 4.846230
778.4727, 4.696938
778.9548, 4.342812
779.4369, 4.059990
779.9190, 3.940193
780.4011, 4.055908
780.8832, 4.750938
781.3654, 6.012802
781.8475, 6.599388
782.3296, 5.209152
782.8117, 3.863579
783.2938, 3.631386
783.7759, 4.634621
784.2581, 5.372719
784.7402, 5.814774
785.2223, 6.054764
785.7044, 6.162422
786.1865, 6.123405
786.6686, 5.763527
787.1508, 5.109093
787.6329, 4.695045
788.1150, 5.231491
788.5971, 5.965103
789.0792, 6.074280
789.5613, 5.383644
790.0435, 4.920448
790.5256, 5.187241
791.0077, 5.575439
791.4898, 5.731522
791.9719, 5.602417
792.4540, 5.587509
792.9362, 5.655838
793.4183, 5.795311
793.9004, 6.087990
794.3825, 6.518250
794.8646, 7.052101
795.3467, 7.681091
795.8289, 7.954895
796.3110, 7.142143
796.7931, 6.095726
797.2752, 5.609596
797.7573, 5.974297
798.2394, 6.152489
798.7216, 5.942490
799.2037, 5.619995
799.6858, 5.238808
800.1679, 4.722122
800.6500, 4.880928
801.1321, 5.828499
801.6143, 6.806244
802.0964, 7.006790
802.5785, 6.776169
803.0606, 6.801376
803.5427, 7.189972
804.0248, 7.595932
804.5070, 7.654915
804.9891, 7.616089
805.4712, 7.819092
805.9533, 8.670235
806.4354, 9.018372
806.9175, 8.523071
807.3997, 7.878204
807.8818, 7.650742
808.3639, 7.843681
808.8460, 8.003113
809.3281, 8.102432
809.8102, 8.139175
810.2924, 8.120262
810.7745, 8.081406
811.2566, 8.084808
811.7387, 8.160248
812.2208, 8.177040
812.7029, 7.881004
813.1851, 7.626945
813.6672, 7.713470
814.1493, 8.276520
814.6314, 8.585732
815.1135, 8.618889
815.5956, 8.447594
816.0778, 7.945023
816.5599, 7.253502
817.0420, 7.105431
817.5241, 7.546341
818.0062, 8.122841
818.4883, 8.736694
818.9705, 9.153221
819.4526, 9.014542
819.9347, 8.176041
820.4168, 7.592178
820.8989, 7.626945
821.3810, 7.809906
821.8632, 7.934425
822.3453, 8.021568
822.8274, 8.072121
823.3095, 8.074623
823.7916, 8.047226
824.2737, 8.070366
824.7559, 8.058624
825.2380, 7.637451
825.7201, 6.817940
826.2022, 6.458763
826.6843, 7.812767
827.1664, 9.243347
827.6486, 9.525932
828.1307, 8.341965
828.6128, 7.512589
829.0949, 7.141289
829.5770, 6.947388
830.0591, 6.722549
830.5413, 6.502754
831.0234, 6.786293
831.5055, 7.566109
831.9876, 8.345253
832.4697, 8.939209
832.9518, 9.241814
833.4340, 8.962234
833.9161, 8.144440
834.3982, 7.572838
834.8803, 7.722755
835.3624, 7.989059
835.8445, 8.159439
836.3267, 8.229630
836.8088, 8.061485
837.2909, 7.625008
837.7730, 7.084793
838.2551, 6.309814
838.7372, 5.565491
839.2194, 5.733582
839.7015, 6.656601
840.1836, 7.420837
840.6657, 7.286995
841.1478, 7.019905
841.6299, 7.169556
842.1121, 7.678970
842.5942, 7.851898
843.0763, 7.401413
843.5584, 7.062134
844.0405, 7.123985
844.5226, 7.465637
845.0048, 7.639145
845.4869, 7.656586
845.9690, 7.675255
846.4511, 7.794006
846.9332, 7.939430
847.4153, 8.244591
847.8975, 8.525986
848.3796, 8.268944
848.8617, 6.468590
849.3438, 5.083183
849.8259, 4.775146
850.3080, 5.202644
850.7902, 5.570610
851.2723, 5.858803
851.7544, 6.275169
852.2365, 6.937027
852.7186, 7.671555
853.2007, 8.358315
853.6829, 8.865807
854.1650, 8.822868
854.6471, 7.426422
855.1292, 6.261902
855.6113, 6.219788
856.0934, 6.951859
856.5756, 7.780739
857.0577, 8.967316
857.5398, 9.477440
858.0219, 8.998878
858.5040, 8.021126
858.9861, 7.388672
859.4683, 7.076370
859.9504, 6.752014
860.4325, 6.277290
860.9146, 6.027100
861.3967, 6.597176
861.8788, 7.368515
862.3610, 7.632637
862.8431, 6.876846
863.3252, 6.225433
863.8073, 5.645210
864.2894, 5.334709
864.7715, 5.645477
865.2537, 6.630234
865.7358, 7.176132
866.2179, 7.188187
866.7000, 6.873932
867.1821, 6.240921
867.6642, 5.525963
868.1464, 5.016121
868.6285, 4.690262
869.1106, 4.656952
869.5927, 5.392441
870.0748, 6.105408
870.5569, 6.221512
871.0391, 5.617104
871.5212, 5.165962
872.0033, 4.845032
872.4854, 4.827988
872.9675, 5.538002
873.4496, 6.580711
873.9318, 6.936897
874.4139, 6.616348
874.8960, 6.167091
875.3781, 5.621590
875.8602, 5.299873
876.3423, 5.609375
876.8245, 6.540680
877.3066, 6.845657
877.7887, 6.249161
878.2708, 5.656410
878.7529, 5.429428
879.2350, 5.486839
879.7172, 5.685852
880.1993, 5.969147
880.6814, 5.973717
881.1635, 5.120270
881.6456, 4.258415
882.1277, 4.051079
882.6099, 4.349083
883.0920, 4.701454
883.5741, 5.221733
884.0562, 5.482513
884.5383, 5.295235
885.0204, 4.910156
885.5026, 4.927773
885.9847, 5.315620
886.4668, 5.626556
886.9489, 5.763298
887.4310, 5.699074
887.9131, 5.317894
888.3953, 4.745522
888.8774, 4.159332
889.3595, 3.426170
889.8416, 2.977379
890.3237, 3.038445
890.8058, 3.259705
891.2880, 3.271782
891.7701, 3.054924
892.2522, 2.875282
892.7343, 2.749634
893.2164, 2.691696
893.6985, 2.901688
894.1807, 3.109222
894.6628, 2.779755
895.1449, 1.712738
895.6270, 1.022881
896.1091, 1.397705
896.5912, 2.030945
897.0734, 2.454254
897.5555, 2.649475
898.0376, 2.838173
898.5197, 3.032021
899.0018, 3.147629
899.4839, 3.266258
899.9661, 3.209656
900.4482, 2.402863
900.9303, 0.9859010
901.4124, 8.2099997E-02
901.8945, 0.1922530
902.3766, 5.6840000E-03
902.8588, 0.2912900
903.3409, 0.6328740
903.8230, 1.009621
904.3051, 1.518028
904.7872, 1.652634
905.2693, 1.111603
905.7515, 0.2634890
906.2336, 0.2180630
906.7157, 0.3822630
907.1978, 0.3658980
907.6799, 0.1087040
908.1620, 0.1679310
908.6442, 0.4621200
909.1263, 0.6781540
909.6084, 0.6487880
910.0905, 0.2413480
910.5726, 5.7541002E-02
911.0547, 0.2116780
911.5369, 0.2358630
912.0190, 2.9297000E-02
912.5011, 0.4000470
912.9832, 0.2576680
913.4653, 0.5878680
913.9474, 1.375404
914.4296, 1.763321
914.9117, 1.790955
915.3938, 1.393639
915.8759, 0.4140630
916.3580, 0.2696840
916.8401, 0.6554260
917.3223, 0.7477650
917.8044, 0.3135760
918.2865, 0.4114300
918.7686, 0.4795610
919.2507, 5.8685001E-02
919.7328, 0.6595840
920.2150, 1.146904
920.6971, 1.442978
921.1792, 1.451004
921.6613, 1.197746
922.1434, 0.9111250
922.6255, 0.5097960
923.1077, 0.3089520
923.5898, 0.5118030
924.0719, 0.8497160
924.5540, 0.5639880
925.0361, 0.1759410
925.5182, 0.6610030
926.0004, 0.5060580
926.4825, 0.2339710
926.9646, 0.1731570
927.4467, 0.2049790
927.9288, 0.1532520
928.4109, 1.6464001E-02
928.8931, 0.2409130
929.3752, 0.6706770
929.8573, 1.114143
930.3394, 1.443138
930.8215, 1.639839
931.3036, 1.538048
931.7858, 1.087364
932.2679, 0.8642430
932.7500, 1.665215
933.2321, 2.559349
933.7142, 2.800087
934.1964, 2.229477
934.6785, 1.713051
935.1606, 1.241203
935.6427, 0.8538130
936.1248, 0.5153120
936.6069, 0.2965850
937.0891, 0.4568790
937.5712, 0.9722440
938.0533, 1.719872
938.5354, 3.169479
939.0175, 4.292496
939.4996, 4.348885
939.9818, 3.603729
940.4639, 2.803345
940.9460, 1.748184
941.4281, 1.315308
941.9102, 1.838791
942.3923, 2.711121
942.8745, 2.881691
943.3566, 2.589645
943.8387, 2.606689
944.3208, 3.283722
944.8029, 3.667526
945.2850, 2.549461
945.7672, 1.311554
946.2493, 1.372192
946.7314, 3.152771
947.2135, 4.663185
947.6956, 6.011917
948.1777, 6.721191
948.6599, 5.755623
949.1420, 4.023926
949.6241, 3.961380
950.1062, 5.428238
950.5883, 6.806633
951.0704, 7.199043
951.5526, 7.313385
952.0347, 7.343750
952.5168, 7.377655
952.9989, 7.746002
953.4810, 8.516891
953.9631, 9.331657
954.4453, 10.17228
954.9274, 10.85110
955.4095, 10.78517
955.8916, 10.35699
956.3737, 10.39488
956.8558, 11.28265
957.3380, 12.44246
957.8201, 14.08382
958.3022, 15.64048
958.7843, 16.49548
959.2664, 16.43506
959.7485, 16.81898
960.2307, 17.74515
960.7128, 18.85250
961.1949, 19.91264
961.6770, 20.78522
962.1591, 21.41813
962.6412, 21.83470
963.1234, 22.24840
963.6055, 22.49804
964.0876, 23.01717
964.5697, 24.12974
965.0518, 25.63780
965.5339, 26.59959
966.0161, 27.01566
966.4982, 27.52836
966.9803, 28.43642
967.4624, 29.45238
967.9445, 30.19772
968.4266, 30.82851
968.9088, 31.58743
969.3909, 33.00487
969.8730, 33.85944
970.3551, 33.86462
970.8372, 33.58656
971.3193, 33.61972
971.8015, 33.90902
972.2836, 34.07577
972.7657, 34.12118
973.2478, 33.71500
973.7299, 32.09520
974.2120, 30.30676
974.6942, 29.29266
975.1763, 29.13103
975.6584, 28.70741
976.1405, 27.84027
976.6226, 26.90210
977.1047, 26.03827
977.5869, 25.21122
978.0690, 24.39477
978.5511, 23.59349
979.0332, 22.80661
979.5153, 22.05411
979.9974, 21.27261
980.4796, 20.27243
980.9617, 19.29353
981.4438, 18.69551
981.9259, 18.64521
982.4080, 18.44605
982.8901, 18.02407
983.3723, 17.49226
983.8544, 16.99818
984.3365, 16.53414
984.8186, 16.02814
985.3007, 15.47332
985.7828, 15.02288
986.2650, 15.09364
986.7471, 14.89625
987.2292, 13.86073
987.7113, 12.25256
988.1934, 11.63142
988.6755, 12.04789
989.1577, 12.24397
989.6398, 11.72598
990.1219, 10.78590
990.6040, 9.353050
991.0861, 7.854614
991.5682, 7.027893
992.0504, 7.918060
992.5325, 8.177460
993.0146, 7.349205
993.4967, 6.231804
993.9788, 5.517189
994.4609, 5.177803
994.9431, 5.034164
995.4252, 5.075348
995.9073, 5.073639
996.3894, 4.837044
996.8715, 4.515221
997.3536, 4.180862
997.8358, 3.852669
998.3179, 3.608238
998.8000, 3.456665
999.2821, 3.366325
999.7642, 3.327126
1000.246, 3.344276
1000.728, 3.514931
1001.211, 3.745857
1001.693, 3.787743
1002.175, 3.535172
1002.657, 3.149651
1003.139, 2.529976
1003.621, 1.930443
1004.103, 1.581497
1004.585, 1.511345
1005.068, 1.532387
1005.550, 1.644279
1006.032, 1.847549
1006.514, 2.409027
1006.996, 2.889359
1007.478, 2.596786
1007.960, 1.651291
1008.442, 0.8577960
1008.924, 0.3484190
1009.407, 0.1454470
1009.889, 0.3237840
1010.371, 0.7443390
1010.853, 1.232430
1011.335, 1.743431
1011.817, 1.910919
1012.299, 1.600876
1012.781, 1.173096
1013.263, 0.7114560
1013.746, 0.3823320
1014.228, 0.4248430
1014.710, 0.9698260
1015.192, 1.174690
1015.674, 0.9263760
1016.156, 0.7150340
1016.638, 1.112976
1017.120, 1.624817
1017.603, 0.7372280
1018.085, 1.070045
1018.567, 2.071564
1019.049, 0.5124050
1019.531, 0.7588270
1020.013, 0.6266710
1020.495, 8.1023999E-02
1020.977, 0.1087570
1021.459, 0.5648120
1021.942, 0.8504260
1022.424, 0.5620960
1022.906, 0.2668460
1023.388, 0.6990810
1023.870, 1.253571
1024.352, 1.272163
1024.834, 0.6451640
1025.316, 8.2176000E-02
1025.799, 0.4731980
1026.281, 0.7347030
1026.763, 0.5506440
1027.245, 2.4651000E-02
1027.727, 0.6890490
1028.209, 1.528114
1028.691, 2.291100
1029.173, 2.985306
1029.656, 3.452271
1030.138, 3.369156
1030.620, 3.168228
1031.102, 3.416275
1031.584, 4.331886
1032.066, 4.321777
1032.548, 3.272964
1033.030, 2.063652
1033.512, 1.142906
1033.995, 0.6614530
1034.477, 1.161690
1034.959, 2.428070
1035.441, 3.063156
1035.923, 2.155563
1036.405, 1.497360
1036.887, 1.504799
1037.369, 1.868889
1037.851, 2.052147
1038.334, 2.069405
1038.816, 1.919991
1039.298, 1.518677
1039.780, 1.350922
1040.262, 1.967598
1040.744, 2.748421
1041.226, 3.207893
1041.708, 3.332863
1042.191, 3.382545
1042.673, 3.373413
1043.155, 3.150375
1043.637, 2.364838
1044.119, 1.545250
1044.601, 1.565659
1045.083, 2.110970
1045.565, 2.458580
1046.047, 2.321709
1046.530, 2.049942
1047.012, 1.576462
1047.494, 1.129532
1047.976, 0.8833160
1048.458, 0.8735280
1048.940, 1.412155
1049.422, 2.504402
1049.904, 3.505394
1050.386, 4.098747
1050.869, 4.403954
1051.351, 4.314537
1051.833, 3.980476
1052.315, 3.974907
1052.797, 4.324158
1053.279, 4.884544
1053.761, 5.780327
1054.243, 6.452690
1054.726, 5.914787
1055.208, 4.827393
1055.690, 4.051590
1056.172, 3.657845
1056.654, 4.034798
1057.136, 5.644669
1057.618, 7.158752
1058.100, 7.717255
1058.583, 7.552513
1059.065, 7.638107
1059.547, 7.865028
1060.029, 7.725555
1060.511, 6.377228
1060.993, 5.283768
1061.475, 5.348145
1061.957, 5.884621
1062.439, 5.948662
1062.922, 5.467941
1063.404, 5.070023
1063.886, 4.803093
1064.368, 4.720200
1064.850, 5.059624
1065.332, 5.466820
1065.814, 5.562752
1066.296, 5.342743
1066.778, 5.114182
1067.261, 4.793495
1067.743, 4.723633
1068.225, 5.062843
1068.707, 5.576027
1069.189, 5.866554
1069.671, 5.950935
1070.153, 6.064331
1070.635, 6.307747
1071.118, 6.486359
1071.600, 6.528084
1072.082, 6.426216
1072.564, 6.170837
1073.046, 5.801865
1073.528, 5.617043
1074.010, 5.607040
1074.492, 5.589767
1074.974, 5.297371
1075.457, 5.164207
1075.939, 5.933273
1076.421, 6.869049
1076.903, 6.746025
1077.385, 4.772560
1077.867, 3.985619
1078.349, 4.618698
1078.831, 5.586876
1079.313, 6.346916
1079.796, 6.701485
1080.278, 5.993874
1080.760, 4.419830
1081.242, 3.463280
1081.724, 4.419708
1082.206, 4.894310
1082.688, 4.203766
1083.170, 3.059334
1083.652, 2.761284
1084.135, 3.129967
1084.617, 3.624809
1085.099, 4.214722
1085.581, 4.433487
1086.063, 3.701546
1086.545, 2.772575
1087.027, 2.049431
1087.509, 1.547020
1087.992, 1.380707
1088.474, 1.558792
1088.956, 1.970657
1089.438, 2.670509
1089.920, 3.253220
1090.402, 3.062653
1090.884, 2.702515
1091.366, 3.083839
1091.849, 4.981956
1092.331, 5.738739
1092.813, 5.088470
1093.295, 4.160538
1093.777, 3.906044
1094.259, 3.888359
1094.741, 2.963104
1095.223, 1.462456
1095.705, 0.6913760
1096.188, 1.819466
1096.670, 2.822403
1097.152, 3.390800
1097.634, 3.659813
1098.116, 3.811981
1098.598, 3.830299
1099.080, 3.605797
1099.562, 3.128754
1100.044, 2.541237
1100.527, 1.542603
1101.009, 0.8578570
1101.491, 1.054558
1101.973, 1.864975
1102.455, 2.447845
1102.937, 2.803673
1103.419, 2.710533
1103.901, 2.031136
1104.384, 1.234169
1104.866, 0.5076290
1105.348, 7.5751998E-02
1105.830, 0.2908480
1106.312, 1.289391
1106.794, 1.906158
1107.276, 2.078468
1107.758, 2.124809
1108.240, 2.191246
1108.723, 2.213112
1109.205, 1.957993
1109.687, 1.619911
1110.169, 1.579887
1110.651, 2.315331
1111.133, 2.557503
1111.615, 2.078102
1112.097, 1.375656
1112.579, 0.5910260
1113.062, 7.6843001E-02
1113.544, 0.4327010
1114.026, 1.824371
1114.508, 2.653030
1114.990, 1.535858
1115.472, 0.5880360
1115.954, 0.5550310
1116.436, 0.9743800
1116.919, 1.380211
1117.401, 1.756920
1117.883, 1.810143
1118.365, 1.512032
1118.847, 1.076118
1119.329, 0.4012450
1119.811, 0.1175460
1120.293, 0.1359100
1120.776, 0.2239070
1121.258, 0.5703660
1121.740, 0.9070660
1122.222, 1.193260
1122.704, 1.442062
1123.186, 1.532387
1123.668, 0.9993290
1124.150, 0.4641420
1124.632, 0.8624650
1125.115, 2.440605
1125.597, 2.554932
1126.079, 0.5780260
1126.561, 0.7835460
1127.043, 0.2078090
1127.525, 1.044823
1128.007, 0.7909160
1128.489, 0.2397230
1128.971, 0.7761310
1129.454, 0.2957150
1129.936, 0.1157910
1130.418, 0.3602070
1130.900, 0.5020140
1131.382, 0.5896380
1131.864, 0.6061400
1132.346, 0.3858030
1132.828, 3.9535999E-02
1133.311, 6.4575002E-02
1133.793, 0.8020630
1134.275, 1.132835
1134.757, 8.7448001E-02
1135.239, 1.061981
1135.721, 0.9807360
1136.203, 0.1557390
1136.685, 0.9138490
1137.167, 1.259651
1137.650, 1.298164
1138.132, 0.7286760
1138.614, 0.2635120
1139.096, 0.3998260
1139.578, 0.7994610
1140.060, 0.8616790
1140.542, 0.5745930
1141.024, 0.8355030
1141.506, 1.783012
1141.989, 2.471382
1142.471, 1.574158
1142.953, 0.6331790
1143.435, 1.096245
1143.917, 2.627754
1144.399, 3.427277
1144.881, 3.466766
1145.363, 2.743004
1145.846, 1.064751
1146.328, 0.5040820
1146.810, 0.6949920
1147.292, 0.1952970
1147.774, 0.4203870
1148.256, 1.095024
1148.738, 1.203934
1149.220, 0.5011750
1149.703, 0.1655040
1150.185, 0.8032000
1150.667, 1.619736
1151.149, 1.169312
1151.631, 0.1939090
1152.113, 3.5094999E-02
1152.595, 1.110474
1153.077, 1.659233
1153.559, 1.217636
1154.042, 0.8331220
1154.524, 1.178062
1155.006, 1.834007
1155.488, 1.828484
1155.970, 1.402832
1156.452, 1.137054
1156.934, 1.307297
1157.416, 1.503929
1157.898, 1.839096
1158.381, 1.932480
1158.863, 1.138824
1159.345, 0.1236800
1159.827, 8.0811001E-02
1160.309, 1.419922
1160.791, 2.548653
1161.273, 2.866791
1161.755, 2.840889
1162.238, 2.335030
1162.720, 1.839577
1163.202, 1.990929
1163.684, 2.639557
1164.166, 2.899239
1164.648, 2.772202
1165.130, 2.600136
1165.612, 2.813568
1166.094, 2.718842
1166.577, 1.666100
1167.059, 0.3895650
1167.541, 9.5023997E-02
1168.023, 0.7012560
1168.505, 1.491890
1168.987, 2.404480
1169.469, 2.871368
1169.951, 1.993919
1170.433, 1.059120
1170.916, 0.8564530
1171.398, 1.209427
1171.880, 1.725456
1172.362, 2.316681
1172.844, 2.672340
1173.326, 2.746994
1173.808, 2.658257
1174.290, 2.033913
1174.773, 1.601295
1175.255, 2.281624
1175.737, 3.790474
1176.219, 4.543282
1176.701, 4.495453
1177.183, 4.177048
1177.665, 3.657425
1178.147, 3.261948
1178.630, 3.170036
1179.112, 3.298805
1179.594, 3.784950
1180.076, 4.627869
1180.558, 5.028633
1181.040, 4.971901
1181.522, 4.994637
1182.004, 5.252480
1182.486, 5.448471
1182.969, 5.255463
1183.451, 4.909698
1183.933, 4.724808
1184.415, 4.746582
1184.897, 4.635178
1185.379, 4.356735
1185.861, 3.967888
1186.343, 3.275253
1186.825, 2.772583
1187.308, 3.440880
1187.790, 4.591049
1188.272, 5.089920
1188.754, 4.420044
1189.236, 4.356125
1189.718, 5.012794
1190.200, 5.665657
1190.682, 5.929749
1191.165, 5.871223
1191.647, 5.310799
1192.129, 4.530083
1192.611, 4.124992
1193.093, 4.424957
1193.575, 4.504150
1194.057, 4.369148
1194.539, 4.107178
1195.021, 3.653503
1195.504, 3.264442
1195.986, 3.631790
1196.468, 4.358551
1196.950, 4.188385
1197.432, 2.030090
1197.914, 1.009911
1198.396, 1.514923
1198.878, 2.475136
1199.360, 2.918671
1199.843, 3.138405
1200.325, 3.633812
1200.807, 4.301437
1201.289, 4.608452
1201.771, 4.159874
1202.253, 4.103973
1202.735, 4.674431
1203.217, 5.321503
1203.700, 5.383148
1204.182, 5.115921
1204.664, 4.864143
1205.146, 4.727600
1205.628, 4.952499
1206.110, 5.935463
1206.592, 6.364326
1207.074, 5.911415
1207.557, 5.160324
1208.039, 4.719185
1208.521, 4.537788
1209.003, 4.689018
1209.485, 5.123657
1209.967, 5.095924
1210.449, 4.370216
1210.931, 3.602943
1211.413, 2.797417
1211.896, 2.345589
1212.378, 3.235435
1212.860, 4.568863
1213.342, 4.855362
1213.824, 3.934181
1214.306, 3.530014
1214.788, 4.107208
1215.270, 4.398003
1215.752, 3.989250
1216.235, 3.353523
1216.717, 3.124489
1217.199, 3.103561
1217.681, 3.123428
1218.163, 3.171921
1218.645, 3.059761
1219.127, 2.745964
1219.609, 2.307091
1220.092, 1.627655
1220.574, 1.145454
1221.056, 1.850090
1221.538, 3.009598
1222.020, 3.472984
1222.502, 2.913361
1222.984, 2.833008
1223.466, 3.538475
1223.948, 3.825188
1224.431, 3.017509
1224.913, 2.043564
1225.395, 2.419670
1225.877, 3.454880
1226.359, 4.248718
1226.841, 4.710686
1227.323, 4.269516
1227.805, 2.678772
1228.287, 1.132095
1228.770, 1.3084000E-02
1229.252, 0.5656660
1229.734, 0.3205110
1230.216, 1.660599
1230.698, 1.961052
1231.180, 0.6618040
1231.662, 0.3302460
1232.144, 1.174667
1232.627, 1.739586
1233.109, 1.166985
1233.591, 0.3466640
1234.073, 0.4631730
1234.555, 0.9205250
1235.037, 0.7968060
1235.519, 0.1967770
1236.001, 0.3142700
1236.484, 0.5541610
1236.966, 1.353050
1237.448, 1.677650
1237.930, 1.504471
1238.412, 0.2395710
1238.894, 1.252762
1239.376, 1.706978
1239.858, 0.9783550
1240.340, 0.1013030
1240.823, 0.9243470
1241.305, 1.613853
1241.787, 1.523315
1242.269, 1.234497
1242.751, 1.233994
1243.233, 1.311241
1243.715, 1.116631
1244.197, 0.5583500
1244.679, 0.8713000
1245.162, 2.036942
1245.644, 2.661568
1246.126, 1.670433
1246.608, 0.4679340
1247.090, 9.2320004E-03
1247.572, 6.8245001E-02
1248.054, 0.1413420
1248.536, 0.2272030
1249.019, 0.3407360
1249.501, 1.472321
1249.983, 2.267105
1250.465, 1.778206
1250.947, 1.310295
1251.429, 1.697311
1251.911, 2.410072
1252.393, 3.133781
1252.875, 3.818550
1253.358, 3.582420
1253.840, 2.577896
1254.322, 1.869804
1254.804, 2.463249
1255.286, 2.879257
1255.768, 2.324661
1256.250, 1.658218
1256.732, 1.595161
1257.214, 2.042610
1257.697, 2.666206
1258.179, 3.429657
1258.661, 3.974197
1259.143, 4.022057
1259.625, 3.992599
1260.107, 3.907845
1260.589, 3.848236
1261.071, 3.745537
1261.554, 3.731255
1262.036, 4.718155
1262.518, 6.284012
1263.000, 6.801010
1263.482, 4.249977
1263.964, 2.804932
1264.446, 3.078804
1264.928, 3.824112
1265.411, 3.849632
1265.893, 3.552849
1266.375, 3.763451
1266.857, 4.598976
1267.339, 5.323051
1267.821, 5.821297
1268.303, 5.998360
1268.785, 5.668282
1269.267, 5.294434
1269.750, 4.966637
1270.232, 4.872444
1270.714, 4.794426
1271.196, 4.400063
1271.678, 3.639084
1272.160, 2.864235
1272.642, 2.665634
1273.124, 3.011192
1273.606, 3.265282
1274.089, 2.843002
1274.571, 2.277176
1275.053, 1.582825
1275.535, 0.8855360
1276.017, 0.5646440
1276.499, 0.8334730
1276.981, 1.678963
1277.463, 2.994904
1277.946, 3.783791
1278.428, 2.676620
1278.910, 1.447952
1279.392, 1.355003
1279.874, 1.748100
1280.356, 2.006302
1280.838, 2.171257
1281.320, 1.943413
1281.802, 1.381035
1282.285, 1.175323
1282.767, 2.392410
1283.249, 3.207947
1283.731, 2.586578
1284.213, 1.520645
1284.695, 0.5375520
1285.177, 0.1896360
1285.659, 0.4780430
1286.141, 2.151260
1286.624, 3.311737
1287.106, 2.893860
1287.588, 2.522781
1288.070, 2.397034
1288.552, 2.372696
1289.034, 2.361145
1289.516, 2.241272
1289.998, 1.629761
1290.481, 0.8818360
1290.963, 0.6449890
1291.445, 1.292770
1291.927, 2.133972
1292.409, 3.297836
1292.891, 4.034042
1293.373, 3.737244
1293.855, 2.895081
1294.338, 1.884842
1294.820, 1.020782
1295.302, 0.4690090
1295.784, 0.1925050
1296.266, 0.1911770
1296.748, 0.4852750
1297.230, 0.8057710
1297.712, 1.077362
1298.194, 1.271698
1298.677, 1.435669
1299.159, 1.459595
1299.641, 1.121597
1300.123, 0.4038090
1300.605, 0.1154020
1301.087, 0.2169490
1301.569, 0.3410950
1302.051, 0.3906710
1302.533, 0.2785640
1303.016, 0.0000000E+00
##END=



