##NAMES=Mullite
##RRUFFID=R141101
##IDEAL CHEMISTRY=Al_4+2x_Si_2-2x_O_10-x_ (x &#8776; 0.4)
##LOCALITY=Caspar quarry, Bellerberg volcano, Mayen, Eifel, Germany
##OWNER=RRUFF
##SOURCE=Ch. and H. Sch√§fer
##DESCRIPTION=Violet acicular crystals
##STATUS=The identification of this mineral has been confirmed by single-crystal X-ray diffraction.
##URL=rruff.info/R141101
140.6874, 0.0000000E+00
141.1696, 0.4613040
141.6517, 1.800171
142.1338, 8.245361
142.6159, 12.56250
143.0980, 18.30432
143.5801, 15.32031
144.0623, 11.00598
144.5444, 5.511841
145.0265, 0.5041500
145.5086, 1.145142
145.9907, 2.481567
146.4728, 6.061646
146.9550, 8.075684
147.4371, 7.966064
147.9192, 7.529907
148.4013, 6.532227
148.8834, 5.240479
149.3655, 4.360474
149.8477, 3.169800
150.3298, 2.935425
150.8119, 4.228394
151.2940, 9.015869
151.7761, 12.06104
152.2583, 12.11951
152.7404, 10.31104
153.2225, 9.432495
153.7046, 10.36487
154.1867, 11.91321
154.6688, 13.42163
155.1510, 16.38672
155.6331, 17.70569
156.1152, 16.09558
156.5973, 12.22095
157.0794, 8.697144
157.5615, 5.880859
158.0437, 3.703491
158.5258, 2.117188
159.0079, 1.437744
159.4900, 1.016235
159.9721, 0.6375730
160.4542, 0.3464360
160.9364, 0.3857420
161.4185, 1.167603
161.9006, 2.201050
162.3827, 3.050537
162.8648, 3.655396
163.3469, 3.945557
163.8291, 3.552734
164.3112, 2.569092
164.7933, 2.059814
165.2754, 3.093262
165.7575, 4.674927
166.2396, 5.761597
166.7218, 4.828369
167.2039, 4.143433
167.6860, 5.668457
168.1681, 9.331787
168.6502, 12.66260
169.1323, 13.29712
169.6145, 12.78333
170.0966, 13.22412
170.5787, 16.91333
171.0608, 21.04980
171.5429, 23.00195
172.0250, 22.66162
172.5072, 21.80103
172.9893, 21.28149
173.4714, 21.24670
173.9535, 21.95166
174.4356, 24.60645
174.9177, 27.57751
175.3999, 28.65454
175.8820, 27.47290
176.3641, 26.14258
176.8462, 26.97046
177.3283, 29.24658
177.8104, 31.24780
178.2926, 31.93542
178.7747, 31.71753
179.2568, 31.16321
179.7389, 30.14148
180.2210, 29.44568
180.7031, 30.43542
181.1853, 32.56067
181.6674, 34.37158
182.1495, 35.03955
182.6316, 35.52649
183.1137, 36.64453
183.5958, 38.62427
184.0780, 40.98938
184.5601, 43.56055
185.0422, 46.42737
185.5243, 48.43542
186.0064, 48.83679
186.4885, 48.11890
186.9707, 47.58899
187.4528, 47.90991
187.9349, 48.15186
188.4170, 46.14062
188.8991, 42.05493
189.3812, 38.99805
189.8634, 39.63538
190.3455, 43.18445
190.8276, 44.74402
191.3097, 43.78760
191.7918, 41.18030
192.2739, 37.86902
192.7561, 33.74182
193.2382, 30.36865
193.7203, 28.77771
194.2024, 28.84778
194.6845, 29.30188
195.1666, 30.31531
195.6488, 31.23584
196.1309, 30.35889
196.6130, 27.42639
197.0951, 24.88013
197.5772, 24.28625
198.0593, 25.67786
198.5415, 27.21790
199.0236, 28.47681
199.5057, 29.65771
199.9878, 31.23999
200.4699, 33.33398
200.9520, 35.29590
201.4342, 36.87048
201.9163, 38.09912
202.3984, 38.65247
202.8805, 38.44702
203.3626, 37.49341
203.8447, 36.04578
204.3269, 33.92285
204.8090, 31.42358
205.2911, 28.77002
205.7732, 25.99707
206.2553, 22.57837
206.7374, 17.97754
207.2196, 13.04492
207.7017, 10.45435
208.1838, 11.02380
208.6659, 11.72363
209.1480, 10.42944
209.6301, 6.273804
210.1123, 4.188721
210.5944, 5.091064
211.0765, 7.897949
211.5586, 9.471802
212.0407, 9.448486
212.5228, 9.025635
213.0050, 8.945068
213.4871, 9.484009
213.9692, 9.196045
214.4513, 7.466431
214.9334, 5.037354
215.4155, 4.334473
215.8977, 6.169922
216.3798, 8.073608
216.8619, 8.546143
217.3440, 6.905396
217.8261, 5.957153
218.3082, 6.228638
218.7904, 7.126099
219.2725, 6.674438
219.7546, 4.063232
220.2367, 1.539429
220.7188, 0.4216310
221.2009, 1.482178
221.6831, 1.927246
222.1652, 1.683838
222.6473, 0.8212890
223.1294, 0.6424560
223.6115, 3.286133
224.0936, 5.489990
224.5758, 6.364502
225.0579, 5.217041
225.5400, 4.347168
226.0221, 3.891113
226.5042, 3.685547
226.9863, 3.278931
227.4685, 2.464355
227.9506, 1.749878
228.4327, 1.430664
228.9148, 1.834229
229.3969, 1.872437
229.8790, 1.353149
230.3612, 0.5563960
230.8433, 0.3238530
231.3254, 1.606323
231.8075, 2.061401
232.2896, 0.3980710
232.7717, 4.892090
233.2539, 8.425049
233.7360, 9.288330
234.2181, 8.611572
234.7002, 9.042236
235.1823, 11.08228
235.6644, 13.40918
236.1466, 15.69531
236.6287, 18.47168
237.1108, 19.54224
237.5929, 17.75916
238.0750, 14.72205
238.5571, 13.98877
239.0393, 17.45532
239.5214, 20.25159
240.0035, 20.36914
240.4856, 16.60559
240.9677, 13.92615
241.4498, 12.54370
241.9320, 12.20020
242.4141, 12.56714
242.8962, 14.46362
243.3783, 15.82471
243.8604, 15.75732
244.3425, 13.63525
244.8247, 12.56421
245.3068, 13.00879
245.7889, 14.23730
246.2710, 15.07397
246.7531, 15.15234
247.2352, 15.43115
247.7174, 16.15039
248.1995, 17.26147
248.6816, 18.88550
249.1637, 21.11279
249.6458, 23.75269
250.1279, 26.57349
250.6101, 29.90356
251.0922, 32.78784
251.5743, 34.71973
252.0564, 35.48486
252.5385, 37.04858
253.0206, 39.81543
253.5028, 43.03198
253.9849, 45.55151
254.4670, 46.69116
254.9491, 48.72363
255.4312, 52.53540
255.9133, 58.23389
256.3955, 63.07153
256.8776, 66.75073
257.3597, 69.91772
257.8418, 73.19434
258.3239, 76.54688
258.8061, 80.14429
259.2882, 84.15747
259.7703, 88.58887
260.2524, 92.46021
260.7345, 95.17822
261.2166, 98.22095
261.6988, 103.1716
262.1809, 110.5508
262.6630, 118.0391
263.1451, 125.0042
263.6272, 131.6641
264.1093, 139.3286
264.5915, 148.3127
265.0736, 157.9133
265.5557, 168.1130
266.0378, 179.2908
266.5199, 189.0415
267.0020, 196.5667
267.4842, 202.3774
267.9663, 208.9802
268.4484, 217.0442
268.9305, 224.3728
269.4126, 229.4187
269.8947, 232.1091
270.3769, 233.0103
270.8590, 232.3330
271.3411, 229.8506
271.8232, 224.5747
272.3053, 216.0037
272.7874, 206.1389
273.2696, 195.8762
273.7517, 185.1797
274.2338, 174.4990
274.7159, 163.9529
275.1980, 153.2512
275.6801, 141.6646
276.1623, 128.8687
276.6444, 116.7466
277.1265, 106.1235
277.6086, 96.87524
278.0907, 89.50439
278.5728, 84.34546
279.0550, 80.52881
279.5371, 76.54956
280.0192, 72.36646
280.5013, 68.25220
280.9834, 64.28442
281.4655, 60.34619
281.9477, 56.12378
282.4298, 51.51270
282.9119, 47.32129
283.3940, 44.48975
283.8761, 42.98047
284.3582, 42.27588
284.8404, 42.41528
285.3225, 43.26050
285.8046, 44.22388
286.2867, 45.42334
286.7688, 45.84424
287.2509, 43.90527
287.7331, 39.82520
288.2152, 36.13672
288.6973, 33.56250
289.1794, 31.86182
289.6615, 30.84937
290.1436, 30.74829
290.6258, 30.72656
291.1079, 29.55371
291.5900, 27.59131
292.0721, 26.90991
292.5542, 28.78931
293.0363, 31.62866
293.5185, 31.84985
294.0006, 29.49585
294.4827, 26.62012
294.9648, 24.11646
295.4469, 22.23535
295.9290, 21.95605
296.4112, 23.84521
296.8933, 26.68359
297.3754, 28.81665
297.8575, 30.24536
298.3396, 31.13501
298.8217, 31.16235
299.3039, 30.74219
299.7860, 30.69604
300.2681, 31.16504
300.7502, 31.90967
301.2323, 32.75000
301.7144, 33.59033
302.1966, 34.12451
302.6787, 33.59009
303.1608, 32.91309
303.6429, 33.68018
304.1250, 36.20264
304.6071, 38.66797
305.0893, 39.38794
305.5714, 38.96753
306.0535, 38.36206
306.5356, 37.65454
307.0177, 37.07324
307.4998, 37.16650
307.9820, 37.92334
308.4641, 37.95483
308.9462, 35.82153
309.4283, 32.70020
309.9104, 30.08789
310.3925, 29.07129
310.8747, 28.39038
311.3568, 26.82251
311.8389, 24.65259
312.3210, 23.61230
312.8031, 25.76562
313.2852, 28.95898
313.7674, 31.13159
314.2495, 31.67627
314.7316, 31.24658
315.2137, 29.37451
315.6958, 26.51562
316.1779, 24.30054
316.6601, 23.80664
317.1422, 24.05566
317.6243, 24.43262
318.1064, 24.65527
318.5885, 25.02539
319.0706, 25.75854
319.5528, 26.75830
320.0349, 27.80518
320.5170, 28.96655
320.9991, 30.03223
321.4812, 30.85400
321.9633, 31.31299
322.4455, 31.94995
322.9276, 33.16577
323.4097, 34.53979
323.8918, 35.56152
324.3739, 35.49146
324.8560, 35.74341
325.3382, 36.79028
325.8203, 38.75000
326.3024, 40.72437
326.7845, 43.41577
327.2666, 45.73511
327.7487, 46.80615
328.2309, 45.25366
328.7130, 44.07104
329.1951, 43.74634
329.6772, 44.17090
330.1593, 44.25806
330.6414, 44.26685
331.1236, 43.65747
331.6057, 42.03540
332.0878, 38.45044
332.5699, 35.44629
333.0520, 33.02441
333.5341, 31.21484
334.0163, 30.34082
334.4984, 31.30420
334.9805, 31.65894
335.4626, 30.12158
335.9447, 25.90942
336.4268, 22.89868
336.9090, 21.40015
337.3911, 20.79126
337.8732, 20.22705
338.3553, 19.86938
338.8374, 19.07520
339.3195, 17.45459
339.8017, 15.07959
340.2838, 13.43188
340.7659, 12.69971
341.2480, 12.27954
341.7301, 11.01538
342.2122, 8.723877
342.6944, 8.772461
343.1765, 13.14746
343.6586, 19.80591
344.1407, 20.99438
344.6228, 16.29712
345.1049, 10.86060
345.5871, 8.648682
346.0692, 9.241211
346.5513, 9.993652
347.0334, 10.58984
347.5155, 11.08984
347.9977, 11.59131
348.4798, 12.08813
348.9619, 12.45435
349.4440, 12.55542
349.9261, 12.48535
350.4082, 12.62549
350.8904, 13.09277
351.3725, 13.18188
351.8546, 11.65356
352.3367, 9.114990
352.8188, 7.146973
353.3009, 6.642090
353.7831, 6.955566
354.2652, 7.575439
354.7473, 8.471191
355.2294, 9.098877
355.7115, 9.357178
356.1936, 9.030029
356.6758, 7.727051
357.1579, 4.489746
357.6400, 1.330811
358.1221, 0.2946780
358.6042, 0.6113280
359.0863, 0.4797360
359.5685, 0.1481930
360.0506, 0.3796390
360.5327, 1.322510
361.0148, 3.231689
361.4969, 4.191162
361.9790, 2.695313
362.4612, 0.1672360
362.9433, 2.574219
363.4254, 4.206543
363.9075, 5.104248
364.3896, 5.256836
364.8717, 4.657471
365.3539, 3.507568
365.8360, 0.9858400
366.3181, 1.616455
366.8002, 3.197754
367.2823, 3.052002
367.7644, 2.477539
368.2466, 1.425049
368.7287, 5.1270001E-02
369.2108, 1.268799
369.6929, 2.329346
370.1750, 3.036377
370.6571, 3.244873
371.1393, 2.412109
371.6214, 2.012451
372.1035, 2.398682
372.5856, 3.075195
373.0677, 2.817627
373.5498, 0.9187010
374.0320, 0.6074220
374.5141, 0.7966310
374.9962, 0.6022950
375.4783, 0.9584960
375.9604, 0.1274410
376.4425, 1.598389
376.9247, 2.028320
377.4068, 1.171387
377.8889, 0.7106930
378.3710, 1.055908
378.8531, 2.096924
379.3352, 3.719727
379.8174, 6.048340
380.2995, 7.939209
380.7816, 8.014404
381.2637, 6.557617
381.7458, 5.822998
382.2279, 6.101318
382.7101, 7.284180
383.1922, 9.986084
383.6743, 13.90259
384.1564, 16.66064
384.6385, 15.86011
385.1206, 13.26685
385.6028, 12.68994
386.0849, 14.43286
386.5670, 16.55444
387.0491, 17.09399
387.5312, 16.71582
388.0133, 16.76465
388.4955, 18.13330
388.9776, 19.78760
389.4597, 20.72095
389.9418, 21.02222
390.4239, 21.26318
390.9060, 21.76660
391.3882, 22.37183
391.8703, 22.85254
392.3524, 22.90918
392.8345, 23.40942
393.3166, 24.95972
393.7987, 27.24927
394.2809, 29.62012
394.7630, 32.13403
395.2451, 34.44849
395.7272, 36.42163
396.2093, 37.99731
396.6914, 39.37305
397.1736, 40.20532
397.6557, 41.00977
398.1378, 42.26660
398.6199, 43.85059
399.1020, 46.02832
399.5841, 49.34473
400.0663, 53.49854
400.5484, 56.50610
401.0305, 57.52026
401.5126, 58.31445
401.9947, 59.92798
402.4768, 63.42578
402.9590, 65.15454
403.4411, 64.48853
403.9232, 62.58691
404.4053, 61.57837
404.8874, 61.91919
405.3695, 61.88721
405.8517, 60.82495
406.3338, 58.91357
406.8159, 57.50439
407.2980, 56.72705
407.7801, 55.84253
408.2622, 53.47241
408.7444, 49.75562
409.2265, 47.93921
409.7086, 49.04712
410.1907, 51.71313
410.6728, 53.24194
411.1549, 53.68555
411.6371, 53.94922
412.1192, 54.21729
412.6013, 54.73950
413.0834, 56.23877
413.5655, 58.82178
414.0476, 61.72607
414.5298, 64.69629
415.0119, 67.42310
415.4940, 69.36890
415.9761, 69.35400
416.4582, 69.12646
416.9403, 70.08936
417.4225, 72.19165
417.9046, 75.01904
418.3867, 79.45581
418.8688, 83.82715
419.3509, 86.49976
419.8330, 86.41113
420.3152, 86.32446
420.7973, 87.39526
421.2794, 89.14160
421.7615, 90.65649
422.2436, 92.61377
422.7257, 93.62256
423.2079, 92.95947
423.6900, 90.44238
424.1721, 88.22363
424.6542, 87.33374
425.1363, 86.12158
425.6184, 83.26929
426.1006, 77.12988
426.5827, 71.85864
427.0648, 67.98511
427.5469, 65.10083
428.0290, 62.07007
428.5111, 59.19824
428.9933, 55.61670
429.4754, 50.45215
429.9575, 43.15503
430.4396, 37.80103
430.9217, 34.95068
431.4038, 32.99316
431.8860, 29.60889
432.3681, 24.65503
432.8502, 20.08325
433.3323, 16.40308
433.8144, 13.68579
434.2965, 11.99829
434.7787, 11.33984
435.2608, 11.15552
435.7429, 11.65039
436.2250, 12.35059
436.7071, 11.78149
437.1892, 9.568604
437.6714, 7.081543
438.1535, 4.845459
438.6356, 3.450439
439.1177, 4.230957
439.5998, 10.18359
440.0819, 16.84058
440.5641, 20.57153
441.0462, 21.43799
441.5283, 20.89478
442.0104, 18.18579
442.4925, 15.19092
442.9746, 13.52393
443.4568, 13.87988
443.9389, 14.83130
444.4210, 15.96118
444.9031, 17.36914
445.3852, 19.26440
445.8673, 22.01562
446.3495, 24.93555
446.8316, 27.97900
447.3137, 31.23730
447.7958, 34.13208
448.2779, 37.05859
448.7600, 39.32202
449.2422, 40.21704
449.7243, 38.61987
450.2064, 38.15918
450.6885, 39.53857
451.1706, 42.04834
451.6527, 43.87988
452.1349, 45.16431
452.6170, 45.31079
453.0991, 43.81348
453.5812, 40.69287
454.0633, 37.22144
454.5454, 33.22192
455.0276, 29.50757
455.5097, 27.58765
455.9918, 27.03296
456.4739, 25.31274
456.9560, 21.37085
457.4381, 16.63843
457.9203, 13.17139
458.4024, 10.82739
458.8845, 9.272217
459.3666, 9.325195
459.8488, 9.589600
460.3309, 7.883789
460.8130, 3.856689
461.2951, 0.3437500
461.7772, 0.1074220
462.2593, 1.294678
462.7415, 1.717773
463.2236, 0.7053220
463.7057, 2.723877
464.1878, 2.378418
464.6699, 0.3417970
465.1520, 1.154541
465.6342, 0.5351560
466.1163, 0.5163570
466.5984, 1.322754
467.0805, 1.774414
467.5626, 1.852783
468.0447, 1.344238
468.5269, 0.5361330
469.0090, 0.2851560
469.4911, 0.9833980
469.9732, 1.973633
470.4553, 3.226807
470.9374, 4.677246
471.4196, 6.778320
471.9017, 9.843750
472.3838, 12.43945
472.8659, 13.36255
473.3480, 12.59619
473.8301, 13.08154
474.3123, 15.06323
474.7944, 17.44067
475.2765, 19.35791
475.7586, 20.66138
476.2407, 20.36572
476.7228, 17.10596
477.2050, 13.30884
477.6871, 13.21143
478.1692, 16.20825
478.6513, 19.32080
479.1334, 20.68945
479.6155, 21.25342
480.0977, 22.13550
480.5798, 23.59155
481.0619, 24.60791
481.5440, 24.00781
482.0261, 22.85840
482.5082, 22.39307
482.9904, 23.96460
483.4725, 25.25098
483.9546, 25.12183
484.4367, 23.97705
484.9188, 23.60596
485.4009, 25.08936
485.8831, 26.60791
486.3652, 27.31421
486.8473, 26.70142
487.3294, 26.90308
487.8115, 28.11230
488.2936, 29.87451
488.7758, 31.89868
489.2579, 34.47388
489.7400, 36.24170
490.2221, 36.78003
490.7042, 36.47241
491.1863, 36.56348
491.6685, 37.13208
492.1506, 37.37305
492.6327, 37.08521
493.1148, 36.18042
493.5969, 33.77197
494.0790, 29.71118
494.5612, 25.84082
495.0433, 24.04907
495.5254, 23.81909
496.0075, 24.05762
496.4896, 24.81519
496.9717, 25.42212
497.4539, 24.90747
497.9360, 23.69141
498.4181, 22.83667
498.9002, 23.29150
499.3823, 23.88843
499.8644, 23.68604
500.3466, 22.49951
500.8287, 21.81763
501.3108, 22.46606
501.7929, 23.50195
502.2750, 24.20020
502.7571, 25.14111
503.2393, 24.77344
503.7214, 22.01221
504.2035, 18.11914
504.6856, 15.80396
505.1677, 15.82886
505.6498, 16.08154
506.1320, 15.99951
506.6141, 15.61597
507.0962, 15.22168
507.5783, 14.85718
508.0604, 14.49756
508.5425, 14.45996
509.0247, 14.66943
509.5068, 13.63550
509.9889, 11.02173
510.4710, 7.735840
510.9531, 4.364014
511.4352, 1.243896
511.9174, 0.3903810
512.3995, 1.225342
512.8816, 3.760010
513.3637, 4.524414
513.8458, 3.711914
514.3279, 2.584473
514.8101, 0.5134280
515.2922, 0.7851560
515.7743, 0.7966310
516.2564, 6.935303
516.7385, 10.92773
517.2206, 8.532471
517.7028, 3.453125
518.1849, 8.5693002E-02
518.6670, 0.1545410
519.1491, 0.1127930
519.6312, 0.5249020
520.1133, 1.195068
520.5955, 1.148438
521.0776, 0.7282710
521.5597, 1.419922
522.0418, 0.8996580
522.5239, 6.695313
523.0060, 9.077393
523.4882, 7.415039
523.9703, 4.094482
524.4524, 1.035645
524.9345, 1.712646
525.4166, 3.267334
525.8987, 3.315430
526.3809, 2.471191
526.8630, 0.7409670
527.3451, 1.407471
527.8272, 1.845703
528.3093, 2.087402
528.7914, 7.275635
529.2736, 10.08325
529.7557, 10.58862
530.2378, 11.06567
530.7199, 12.87573
531.2020, 15.15356
531.6841, 17.15430
532.1663, 18.62964
532.6484, 20.11646
533.1305, 22.32593
533.6126, 24.50659
534.0947, 25.62061
534.5768, 25.03784
535.0590, 24.07495
535.5411, 22.52271
536.0232, 20.67944
536.5053, 20.53760
536.9874, 23.14038
537.4695, 25.24097
537.9517, 24.90234
538.4338, 21.99365
538.9159, 19.53613
539.3980, 17.41064
539.8801, 16.19116
540.3622, 17.07422
540.8444, 19.58838
541.3265, 21.64233
541.8086, 22.83057
542.2907, 23.24268
542.7728, 22.59619
543.2549, 21.20752
543.7371, 20.02637
544.2192, 19.28784
544.7013, 19.11206
545.1834, 19.94727
545.6655, 21.71533
546.1476, 23.03125
546.6298, 22.83130
547.1119, 22.36133
547.5940, 22.61206
548.0761, 24.82568
548.5582, 25.51709
549.0403, 23.26025
549.5225, 19.96948
550.0046, 17.94775
550.4867, 17.77051
550.9688, 17.68335
551.4509, 17.33374
551.9330, 16.85010
552.4152, 16.73462
552.8973, 16.99268
553.3794, 17.39258
553.8615, 18.01758
554.3436, 18.70654
554.8257, 18.45703
555.3079, 17.19946
555.7900, 15.91406
556.2721, 15.53442
556.7542, 15.75439
557.2363, 16.10791
557.7184, 16.64575
558.2006, 16.92065
558.6827, 16.63379
559.1648, 15.86060
559.6469, 14.71582
560.1290, 13.28149
560.6111, 11.48584
561.0933, 8.495605
561.5754, 4.742920
562.0575, 3.070068
562.5396, 6.317139
563.0217, 9.449219
563.5038, 10.06641
563.9860, 6.996582
564.4681, 7.380615
564.9502, 13.17773
565.4323, 19.37476
565.9144, 20.35352
566.3965, 15.56787
566.8787, 12.43921
567.3608, 12.37573
567.8429, 13.69702
568.3250, 13.20776
568.8071, 11.32471
569.2892, 10.29419
569.7714, 11.74658
570.2535, 14.20410
570.7356, 15.61792
571.2177, 16.12207
571.6998, 16.37964
572.1819, 16.91943
572.6641, 17.27661
573.1462, 16.54077
573.6283, 14.12866
574.1104, 13.59521
574.5925, 17.81665
575.0746, 23.40063
575.5568, 27.32666
576.0389, 27.57837
576.5210, 28.49170
577.0031, 30.75635
577.4852, 33.56958
577.9673, 35.27002
578.4495, 35.66968
578.9316, 35.85059
579.4137, 35.89331
579.8958, 35.94556
580.3779, 36.95728
580.8600, 39.17969
581.3422, 40.84644
581.8243, 39.29639
582.3064, 36.47681
582.7885, 37.33594
583.2706, 42.39648
583.7527, 48.03760
584.2349, 52.17383
584.7170, 54.85571
585.1991, 55.72437
585.6812, 52.45093
586.1633, 51.38477
586.6454, 57.32886
587.1276, 66.93799
587.6097, 73.97437
588.0918, 76.23047
588.5739, 76.56519
589.0560, 74.25757
589.5381, 70.17090
590.0203, 70.40796
590.5024, 77.23413
590.9845, 83.71777
591.4666, 86.17822
591.9487, 84.64087
592.4308, 83.82446
592.9130, 83.76782
593.3951, 84.46777
593.8772, 86.19067
594.3593, 88.66357
594.8414, 91.10718
595.3235, 93.45312
595.8057, 95.52490
596.2878, 97.39160
596.7699, 98.82788
597.2520, 99.37476
597.7341, 97.45996
598.2162, 95.85718
598.6984, 96.50073
599.1805, 98.72632
599.6626, 100.0828
600.1447, 99.15356
600.6268, 97.98169
601.1089, 97.25220
601.5911, 96.97925
602.0732, 96.99658
602.5553, 97.77246
603.0374, 98.14868
603.5195, 96.89380
604.0016, 93.73364
604.4838, 92.12231
604.9659, 92.66309
605.4480, 93.59741
605.9301, 92.08301
606.4122, 88.86011
606.8943, 87.15161
607.3765, 88.77490
607.8586, 90.59741
608.3407, 88.31665
608.8228, 83.46143
609.3049, 79.81372
609.7870, 80.13599
610.2692, 81.15845
610.7513, 80.91650
611.2334, 79.51880
611.7155, 78.91992
612.1976, 81.16016
612.6797, 82.81689
613.1619, 82.32300
613.6440, 79.30859
614.1261, 75.68188
614.6082, 70.61060
615.0903, 66.21558
615.5724, 64.97778
616.0546, 67.06470
616.5367, 67.83081
617.0188, 66.57544
617.5009, 64.22705
617.9830, 61.66235
618.4651, 59.05786
618.9473, 57.06274
619.4294, 56.21924
619.9115, 55.69775
620.3936, 54.93262
620.8757, 53.85010
621.3578, 52.24927
621.8400, 49.43433
622.3221, 46.60229
622.8042, 44.47095
623.2863, 43.08130
623.7684, 41.52539
624.2505, 39.51538
624.7327, 37.57397
625.2148, 36.00708
625.6969, 35.01416
626.1790, 33.26855
626.6611, 30.35303
627.1432, 27.68408
627.6254, 27.29102
628.1075, 28.94214
628.5896, 29.08423
629.0717, 26.66553
629.5538, 23.81519
630.0359, 23.95654
630.5181, 25.94531
631.0002, 26.92358
631.4823, 25.15381
631.9644, 22.51294
632.4465, 19.58154
632.9286, 16.72778
633.4108, 15.16968
633.8929, 17.05273
634.3750, 18.64526
634.8571, 18.19385
635.3392, 15.54492
635.8214, 13.43115
636.3035, 11.93604
636.7856, 10.89453
637.2677, 10.44873
637.7498, 10.81006
638.2319, 10.22974
638.7141, 8.550293
639.1962, 6.656250
639.6783, 5.535400
640.1604, 4.995850
640.6425, 4.251953
641.1246, 3.096924
641.6068, 1.916748
642.0889, 1.075439
642.5710, 0.4799800
643.0531, 1.9774999E-02
643.5352, 0.2006840
644.0173, 0.6064450
644.4995, 2.063721
644.9816, 3.993408
645.4637, 4.714844
645.9458, 2.423584
646.4279, 0.6440430
646.9100, 0.5852050
647.3922, 2.039063
647.8743, 2.642334
648.3564, 2.065674
648.8385, 1.271484
649.3206, 0.9340820
649.8027, 1.051270
650.2849, 1.229492
650.7670, 1.481934
651.2491, 1.533447
651.7312, 1.025635
652.2133, 0.1911620
652.6954, 0.6909180
653.1776, 1.700928
653.6597, 2.283936
654.1418, 1.642090
654.6239, 0.5986330
655.1060, 9.2041001E-02
655.5881, 1.027588
656.0703, 1.669434
656.5524, 1.499268
657.0345, 0.9724120
657.5166, 0.8918460
657.9987, 1.426514
658.4808, 2.006104
658.9630, 2.634766
659.4451, 3.156982
659.9272, 2.733398
660.4093, 1.363525
660.8914, 0.6125490
661.3735, 2.224609
661.8557, 4.703857
662.3378, 5.023682
662.8199, 3.412109
663.3020, 1.870850
663.7841, 1.282715
664.2662, 1.585449
664.7484, 3.077881
665.2305, 6.035400
665.7126, 8.375488
666.1947, 8.994385
666.6768, 9.208496
667.1589, 9.925537
667.6411, 11.14844
668.1232, 12.94653
668.6053, 15.82446
669.0874, 18.51196
669.5695, 19.27222
670.0516, 18.10645
670.5338, 16.37598
671.0159, 14.06421
671.4980, 11.90601
671.9801, 11.19434
672.4622, 11.56152
672.9443, 12.00513
673.4265, 12.19678
673.9086, 12.26929
674.3907, 12.47095
674.8728, 12.68628
675.3549, 12.51221
675.8370, 11.51318
676.3192, 10.47510
676.8013, 9.695068
677.2834, 9.167480
677.7655, 8.636475
678.2476, 7.985352
678.7297, 7.605225
679.2119, 7.926270
679.6940, 8.871826
680.1761, 8.852051
680.6582, 7.800049
681.1403, 6.288574
681.6224, 3.902588
682.1046, 1.595947
682.5867, 1.754395
683.0688, 4.988037
683.5509, 7.797363
684.0330, 6.646973
684.5151, 4.431396
684.9973, 4.244385
685.4794, 8.836914
685.9615, 11.94946
686.4436, 11.55542
686.9257, 9.713867
687.4078, 8.758789
687.8900, 8.985352
688.3721, 9.450684
688.8542, 10.20166
689.3363, 10.93140
689.8184, 10.92651
690.3005, 10.22876
690.7827, 9.210205
691.2648, 7.723633
691.7469, 6.286621
692.2290, 5.458984
692.7111, 5.266113
693.1932, 5.849854
693.6754, 8.167480
694.1575, 10.45239
694.6396, 11.61646
695.1217, 11.67676
695.6038, 11.69531
696.0859, 12.04321
696.5681, 12.07300
697.0502, 11.39624
697.5323, 9.971436
698.0144, 9.040039
698.4965, 8.677246
698.9786, 8.601807
699.4608, 9.037598
699.9429, 9.694580
700.4250, 8.946045
700.9071, 6.651611
701.3892, 4.174072
701.8713, 2.584961
702.3535, 1.505127
702.8356, 0.4980470
703.3177, 0.4580080
703.7998, 0.7924800
704.2819, 0.4423830
704.7640, 1.930176
705.2462, 2.159424
705.7283, 0.3417970
706.2104, 1.885986
706.6925, 1.985840
707.1746, 1.206299
707.6567, 0.3940430
708.1389, 0.4555660
708.6210, 0.9272460
709.1031, 0.7614750
709.5852, 0.6230470
710.0673, 1.968018
710.5494, 4.174316
711.0316, 5.489990
711.5137, 4.010742
711.9958, 2.322266
712.4779, 1.955078
712.9600, 2.774170
713.4421, 4.371094
713.9243, 8.366943
714.4064, 11.18579
714.8885, 11.11401
715.3706, 8.671387
715.8527, 8.015625
716.3348, 9.705811
716.8170, 11.46753
717.2991, 12.29224
717.7812, 12.24609
718.2633, 11.37598
718.7454, 9.699951
719.2275, 8.335449
719.7097, 7.864990
720.1918, 8.164551
720.6739, 9.462402
721.1560, 11.75952
721.6381, 13.58276
722.1202, 14.18506
722.6024, 14.14648
723.0845, 13.75488
723.5666, 12.80713
724.0487, 12.17065
724.5308, 11.67236
725.0129, 11.74609
725.4951, 13.31055
725.9772, 16.57422
726.4593, 17.28735
726.9414, 14.70142
727.4235, 11.55127
727.9056, 11.00610
728.3878, 12.22925
728.8699, 13.42358
729.3520, 14.10767
729.8341, 14.90259
730.3162, 16.76489
730.7983, 18.77979
731.2805, 19.83008
731.7626, 18.72974
732.2447, 17.86768
732.7268, 17.64380
733.2089, 17.70898
733.6910, 17.43921
734.1732, 16.72388
734.6553, 16.14990
735.1374, 15.56616
735.6195, 15.62427
736.1016, 18.53076
736.5837, 23.48193
737.0659, 26.98804
737.5480, 26.89771
738.0301, 25.44727
738.5122, 24.14917
738.9943, 23.03589
739.4764, 22.21997
739.9586, 21.41748
740.4407, 21.23291
740.9228, 22.35938
741.4049, 24.36597
741.8870, 25.45166
742.3691, 25.25952
742.8513, 25.02832
743.3334, 25.38916
743.8155, 26.07861
744.2976, 25.89648
744.7797, 24.91040
745.2618, 23.90601
745.7440, 23.22681
746.2261, 22.90283
746.7082, 23.40356
747.1903, 24.53857
747.6724, 24.74194
748.1545, 21.52661
748.6367, 18.70654
749.1188, 19.07568
749.6009, 23.28003
750.0830, 24.36768
750.5651, 20.92065
751.0472, 16.96118
751.5294, 14.81665
752.0115, 14.40918
752.4936, 14.52026
752.9757, 15.20947
753.4578, 15.50562
753.9399, 14.33032
754.4221, 12.34717
754.9042, 10.39868
755.3863, 8.570313
755.8684, 7.156738
756.3505, 6.822510
756.8326, 6.648682
757.3148, 5.902832
757.7969, 4.301514
758.2790, 2.654541
758.7611, 0.5754390
759.2432, 1.045898
759.7253, 1.041992
760.2075, 0.6396480
760.6896, 0.9819340
761.1717, 0.4375000
761.6538, 2.371338
762.1359, 4.093994
762.6180, 5.203369
763.1002, 4.683350
763.5823, 1.975342
764.0644, 0.7138670
764.5465, 3.095703
765.0286, 4.661621
765.5107, 4.786133
765.9929, 2.088623
766.4750, 8.0811001E-02
766.9571, 1.777832
767.4392, 2.864746
767.9213, 3.113037
768.4034, 2.518066
768.8856, 1.166016
769.3677, 1.162598
769.8498, 3.376953
770.3319, 3.373535
770.8140, 2.296387
771.2961, 2.691895
771.7783, 6.257813
772.2604, 9.646973
772.7425, 11.17334
773.2246, 11.35718
773.7067, 11.00464
774.1888, 9.245361
774.6710, 8.507568
775.1531, 9.410645
775.6352, 11.12402
776.1173, 11.93213
776.5994, 11.79810
777.0815, 12.68481
777.5637, 15.39282
778.0458, 18.68799
778.5279, 21.36719
779.0100, 23.22388
779.4921, 23.77026
779.9742, 21.13062
780.4564, 19.03687
780.9385, 19.58618
781.4206, 21.76782
781.9027, 23.42896
782.3848, 24.03076
782.8669, 24.64648
783.3491, 25.16724
783.8312, 26.03735
784.3133, 29.33984
784.7954, 34.97412
785.2775, 37.52856
785.7596, 33.71997
786.2418, 28.04248
786.7239, 26.62695
787.2060, 28.31226
787.6881, 30.23267
788.1702, 31.02026
788.6523, 31.87231
789.1345, 33.63696
789.6166, 35.80249
790.0987, 36.91504
790.5808, 36.40942
791.0629, 35.80103
791.5450, 35.12939
792.0272, 34.76978
792.5093, 36.26343
792.9914, 39.42847
793.4735, 41.85571
793.9556, 42.29614
794.4377, 41.81348
794.9199, 41.12817
795.4020, 40.54395
795.8841, 40.85229
796.3662, 43.29565
796.8483, 45.67920
797.3304, 47.43652
797.8126, 48.55298
798.2947, 48.84326
798.7768, 48.09424
799.2589, 47.14453
799.7410, 46.20483
800.2231, 45.26880
800.7053, 44.31079
801.1874, 43.34863
801.6695, 42.42871
802.1516, 41.55322
802.6337, 40.76709
803.1158, 39.94385
803.5980, 39.23096
804.0801, 39.03271
804.5622, 38.84497
805.0443, 39.99536
805.5264, 43.80444
806.0085, 48.98560
806.4907, 51.45239
806.9728, 50.99023
807.4549, 48.64062
807.9370, 44.14307
808.4191, 38.60718
808.9012, 33.79614
809.3834, 29.85400
809.8655, 27.30542
810.3476, 27.61157
810.8297, 28.26880
811.3118, 27.62793
811.7939, 26.12061
812.2761, 25.04321
812.7582, 24.91357
813.2403, 24.85278
813.7224, 24.93506
814.2045, 24.88184
814.6866, 23.38721
815.1688, 20.43726
815.6509, 18.65820
816.1330, 19.62549
816.6151, 21.49170
817.0972, 21.01562
817.5793, 19.21753
818.0615, 18.68848
818.5436, 22.41040
819.0257, 25.45654
819.5078, 25.43530
819.9899, 23.16748
820.4720, 21.09888
820.9542, 19.28101
821.4363, 17.99536
821.9184, 17.32422
822.4005, 16.92334
822.8826, 16.09204
823.3647, 14.94580
823.8469, 14.23291
824.3290, 15.00513
824.8111, 15.18848
825.2932, 11.84399
825.7753, 6.777588
826.2574, 3.590576
826.7396, 5.219238
827.2217, 6.424316
827.7038, 5.825195
828.1859, 4.500732
828.6681, 4.692627
829.1502, 6.688477
829.6323, 8.112305
830.1144, 8.415771
830.5966, 7.877930
831.0787, 6.415283
831.5608, 4.481934
832.0429, 3.211914
832.5250, 3.415039
833.0071, 3.680908
833.4893, 2.209473
833.9714, 0.6911620
834.4535, 2.144531
834.9356, 10.18652
835.4177, 13.96167
835.8998, 11.04102
836.3820, 5.623779
836.8641, 4.081787
837.3462, 5.983398
837.8283, 7.621826
838.3104, 8.291016
838.7925, 8.183838
839.2747, 6.695068
839.7568, 4.826416
840.2389, 4.037109
840.7210, 5.604980
841.2031, 6.599609
841.6852, 5.608154
842.1674, 4.418945
842.6495, 5.119141
843.1316, 8.429443
843.6137, 9.223389
844.0958, 6.609863
844.5779, 3.798096
845.0601, 4.972656
845.5422, 8.579102
846.0243, 11.79956
846.5064, 14.38599
846.9885, 15.08130
847.4706, 10.97729
847.9528, 6.128662
848.4349, 4.108643
848.9170, 5.898682
849.3991, 7.700195
849.8812, 9.566406
850.3633, 11.30396
850.8455, 13.02197
851.3276, 14.55200
851.8097, 14.34668
852.2918, 12.29541
852.7739, 10.67700
853.2560, 12.10693
853.7382, 14.38599
854.2203, 15.34790
854.7024, 14.69507
855.1845, 14.50513
855.6666, 15.59448
856.1487, 16.99390
856.6309, 18.20190
857.1130, 18.96118
857.5951, 19.36743
858.0772, 19.49854
858.5593, 20.37549
859.0414, 22.94629
859.5236, 26.22437
860.0057, 28.85840
860.4878, 30.90796
860.9699, 32.89209
861.4520, 35.70996
861.9341, 37.92651
862.4163, 37.89307
862.8984, 36.17627
863.3805, 37.44678
863.8626, 42.86377
864.3447, 47.67725
864.8268, 49.85254
865.3090, 50.37036
865.7911, 51.38965
866.2732, 52.81738
866.7553, 54.25122
867.2374, 55.19531
867.7195, 56.33301
868.2017, 58.51294
868.6838, 61.18091
869.1659, 62.64746
869.6480, 62.41357
870.1301, 61.65332
870.6122, 60.39209
871.0944, 58.91699
871.5765, 57.75952
872.0586, 56.95679
872.5407, 56.74536
873.0228, 57.74976
873.5049, 58.32300
873.9871, 56.92017
874.4692, 54.12158
874.9513, 50.77075
875.4334, 46.47705
875.9155, 42.55249
876.3976, 38.54663
876.8798, 35.44312
877.3619, 34.70361
877.8440, 36.46387
878.3261, 37.98560
878.8082, 38.97461
879.2903, 39.42578
879.7725, 38.69287
880.2546, 37.63306
880.7367, 37.72095
881.2188, 39.51733
881.7009, 40.73413
882.1830, 40.28467
882.6652, 39.10107
883.1473, 37.69238
883.6294, 35.88867
884.1115, 35.23022
884.5936, 36.03735
885.0757, 36.53882
885.5579, 35.10669
886.0400, 32.53931
886.5221, 30.57251
887.0042, 29.23315
887.4863, 27.34204
887.9684, 23.26465
888.4506, 19.42993
888.9327, 17.49927
889.4148, 17.35547
889.8969, 16.52197
890.3790, 14.65894
890.8611, 13.09229
891.3433, 12.36353
891.8254, 12.24609
892.3075, 12.48169
892.7896, 12.87451
893.2717, 12.69043
893.7538, 10.46484
894.2360, 8.556641
894.7181, 8.793457
895.2002, 10.35815
895.6823, 11.16650
896.1644, 11.10059
896.6465, 10.07861
897.1287, 7.535645
897.6108, 4.841797
898.0929, 5.188721
898.5750, 7.854736
899.0571, 9.351318
899.5392, 8.708740
900.0214, 7.045410
900.5035, 4.395264
900.9856, 1.670898
901.4677, 0.1074220
901.9498, 0.3720700
902.4319, 0.1037600
902.9141, 1.048096
903.3962, 2.204102
903.8783, 2.588379
904.3604, 2.231201
904.8425, 1.178467
905.3246, 0.6389160
905.8068, 1.703369
906.2889, 2.8564001E-02
906.7710, 2.439697
907.2531, 3.843262
907.7352, 3.895508
908.2173, 4.273193
908.6995, 6.136230
909.1816, 7.047607
909.6637, 5.497559
910.1458, 2.005859
910.6279, 0.2387700
911.1100, 0.1232910
911.5922, 4.8799999E-04
912.0743, 0.9914550
912.5564, 2.480469
913.0385, 4.808105
913.5206, 7.351318
914.0027, 8.322266
914.4849, 5.074951
914.9670, 2.968750
915.4491, 3.597168
915.9312, 5.465332
916.4133, 5.258057
916.8954, 3.021484
917.3776, 1.007813
917.8597, 0.3422850
918.3418, 1.008301
918.8239, 0.3559570
919.3060, 0.7771000
919.7881, 1.211182
920.2703, 0.5495610
920.7524, 0.6369630
921.2345, 2.901855
921.7166, 4.930420
922.1987, 5.260254
922.6808, 3.773682
923.1630, 4.024414
923.6451, 6.283936
924.1272, 8.428467
924.6093, 7.790527
925.0914, 6.551270
925.5735, 7.721680
926.0557, 11.42798
926.5378, 13.91333
927.0199, 13.28491
927.5020, 12.10083
927.9841, 11.08667
928.4662, 10.25439
928.9484, 9.868164
929.4305, 9.921143
929.9126, 9.326660
930.3947, 6.834473
930.8768, 4.251953
931.3589, 3.972900
931.8411, 5.250977
932.3232, 6.431152
932.8053, 7.347656
933.2874, 7.683594
933.7695, 7.152832
934.2516, 6.310791
934.7338, 5.787598
935.2159, 5.589355
935.6980, 6.534912
936.1801, 8.962891
936.6622, 11.38818
937.1443, 11.90698
937.6265, 11.71924
938.1086, 12.34399
938.5907, 14.32983
939.0728, 15.81030
939.5549, 16.04858
940.0370, 16.14551
940.5192, 16.56958
941.0013, 17.31934
941.4834, 18.72852
941.9655, 20.80029
942.4476, 23.39258
942.9297, 27.37915
943.4119, 31.10864
943.8940, 32.53809
944.3761, 32.15698
944.8582, 32.33667
945.3403, 34.64062
945.8224, 36.12695
946.3046, 35.90576
946.7867, 34.79199
947.2688, 34.17114
947.7509, 34.19897
948.2330, 36.43799
948.7151, 42.15918
949.1973, 48.00244
949.6794, 51.07471
950.1615, 52.46948
950.6436, 53.42432
951.1257, 53.46069
951.6078, 54.61572
952.0900, 57.13623
952.5721, 60.44653
953.0542, 64.61499
953.5363, 69.30005
954.0184, 72.21582
954.5005, 73.28027
954.9827, 73.80786
955.4648, 73.38623
955.9469, 73.82690
956.4290, 77.05322
956.9111, 82.86182
957.3932, 87.46631
957.8754, 90.67847
958.3575, 92.65649
958.8396, 93.13428
959.3217, 92.59619
959.8038, 92.26709
960.2859, 92.02075
960.7681, 91.35986
961.2502, 89.96826
961.7323, 88.26733
962.2144, 86.53296
962.6965, 84.64380
963.1786, 82.41626
963.6608, 79.96704
964.1429, 76.99438
964.6250, 73.15503
965.1071, 69.85400
965.5892, 69.51807
966.0714, 70.57861
966.5535, 69.20630
967.0356, 65.19312
967.5177, 61.44165
967.9998, 59.35986
968.4819, 58.04907
968.9641, 57.42505
969.4462, 57.25220
969.9283, 55.56006
970.4104, 51.96680
970.8925, 49.31348
971.3746, 49.28052
971.8568, 49.95557
972.3389, 48.28027
972.8210, 45.12402
973.3031, 42.37622
973.7852, 39.79785
974.2673, 38.93652
974.7495, 41.31250
975.2316, 44.59741
975.7137, 46.22241
976.1958, 46.07471
976.6779, 46.77490
977.1600, 48.66602
977.6422, 49.51294
978.1243, 46.26758
978.6064, 41.80200
979.0885, 39.18994
979.5706, 38.75781
980.0527, 38.18970
980.5349, 36.97461
981.0170, 35.76245
981.4991, 34.62695
981.9812, 33.70703
982.4633, 33.76904
982.9454, 34.61548
983.4276, 35.13623
983.9097, 35.01489
984.3918, 34.17358
984.8739, 32.35669
985.3560, 29.84961
985.8381, 26.96533
986.3203, 22.69897
986.8024, 20.62671
987.2845, 21.41846
987.7666, 23.15088
988.2487, 24.11011
988.7308, 24.41943
989.2130, 24.14209
989.6951, 23.32422
990.1772, 22.92212
990.6593, 23.75317
991.1414, 24.83032
991.6235, 25.90771
992.1057, 26.78857
992.5878, 26.06104
993.0699, 23.32617
993.5520, 21.90063
994.0341, 23.85596
994.5162, 26.14526
994.9984, 23.65454
995.4805, 18.42407
995.9626, 14.30713
996.4447, 12.68164
996.9268, 12.03906
997.4089, 12.93286
997.8911, 13.93726
998.3732, 13.66748
998.8553, 12.21118
999.3374, 11.08521
999.8195, 10.38159
1000.302, 9.656250
1000.784, 7.910400
1001.266, 6.518066
1001.748, 7.156494
1002.230, 9.543945
1002.712, 10.33667
1003.194, 8.224121
1003.676, 6.866211
1004.159, 7.370605
1004.641, 8.842041
1005.123, 9.922607
1005.605, 10.47314
1006.087, 9.889648
1006.569, 7.227783
1007.051, 5.533447
1007.533, 7.559814
1008.016, 10.43042
1008.498, 11.50000
1008.980, 10.37793
1009.462, 10.08105
1009.944, 10.84399
1010.426, 10.82349
1010.908, 7.130615
1011.390, 2.801270
1011.872, 2.502197
1012.355, 5.414063
1012.837, 7.497559
1013.319, 6.128906
1013.801, 5.498047
1014.283, 6.773926
1014.765, 8.876221
1015.247, 9.739258
1015.729, 9.483887
1016.211, 9.734863
1016.694, 11.07275
1017.176, 11.55420
1017.658, 8.538574
1018.140, 4.801758
1018.622, 3.002197
1019.104, 3.745850
1019.586, 4.263184
1020.068, 4.741211
1020.551, 4.909912
1021.033, 4.327148
1021.515, 3.494629
1021.997, 3.600586
1022.479, 4.434570
1022.961, 5.284424
1023.443, 5.910889
1023.925, 6.421387
1024.407, 6.384766
1024.890, 6.587891
1025.372, 8.344971
1025.854, 11.67114
1026.336, 14.21094
1026.818, 15.77563
1027.300, 16.10962
1027.782, 13.50293
1028.264, 10.60864
1028.746, 10.43628
1029.229, 13.20190
1029.711, 14.77808
1030.193, 14.61816
1030.675, 13.79712
1031.157, 12.23364
1031.639, 10.73950
1032.121, 12.01172
1032.603, 14.98779
1033.086, 16.01562
1033.568, 12.85767
1034.050, 10.18945
1034.532, 10.55396
1035.014, 12.12207
1035.496, 13.58154
1035.978, 15.21362
1036.460, 14.22900
1036.943, 10.44165
1037.425, 7.420166
1037.907, 8.943604
1038.389, 11.71265
1038.871, 11.85913
1039.353, 10.01685
1039.835, 9.054443
1040.317, 9.588135
1040.799, 10.97119
1041.281, 13.68994
1041.764, 16.21118
1042.246, 14.83228
1042.728, 11.14404
1043.210, 11.19287
1043.692, 16.66748
1044.174, 20.59766
1044.656, 16.89331
1045.138, 12.44873
1045.621, 12.04785
1046.103, 15.23706
1046.585, 16.60205
1047.067, 16.14209
1047.549, 15.04907
1048.031, 13.56299
1048.513, 11.84204
1048.995, 10.01831
1049.478, 8.365967
1049.960, 7.277344
1050.442, 7.336426
1050.924, 7.296875
1051.406, 7.054688
1051.888, 6.763184
1052.370, 6.883057
1052.852, 7.292480
1053.334, 7.600830
1053.817, 7.779541
1054.299, 7.592285
1054.781, 6.044922
1055.263, 4.895020
1055.745, 5.398438
1056.227, 6.765869
1056.709, 6.981201
1057.191, 5.941895
1057.673, 5.274658
1058.156, 5.287598
1058.638, 5.816406
1059.120, 7.322510
1059.602, 8.868896
1060.084, 9.236328
1060.566, 7.933350
1061.048, 7.527344
1061.530, 8.647461
1062.013, 9.297119
1062.495, 8.193848
1062.977, 6.260986
1063.459, 5.930176
1063.941, 6.688721
1064.423, 7.058350
1064.905, 6.437012
1065.387, 5.368164
1065.870, 3.362061
1066.352, 1.515625
1066.834, 0.9567870
1067.316, 1.698975
1067.798, 2.346924
1068.280, 2.860107
1068.762, 2.947998
1069.244, 1.340088
1069.726, 0.1630860
1070.208, 2.238770
1070.691, 6.424316
1071.173, 7.272461
1071.655, 3.327393
1072.137, 0.3713380
1072.619, 0.4831540
1073.101, 0.2673340
1073.583, 0.2998050
1074.065, 0.2626950
1074.548, 0.6110840
1075.030, 2.589355
1075.512, 3.859375
1075.994, 3.926514
1076.476, 3.111572
1076.958, 1.053467
1077.440, 1.601807
1077.922, 1.992676
1078.405, 0.6218260
1078.887, 5.1757999E-02
1079.369, 1.946289
1079.851, 3.624268
1080.333, 3.089355
1080.815, 1.828125
1081.297, 1.590088
1081.779, 2.681885
1082.261, 2.974365
1082.744, 2.430664
1083.226, 1.595703
1083.708, 0.7075200
1084.190, 0.1179200
1084.672, 0.7043460
1085.154, 1.113770
1085.636, 1.568359
1086.118, 2.038086
1086.601, 2.699951
1087.083, 3.640869
1087.565, 4.615234
1088.047, 5.727051
1088.529, 6.510742
1089.011, 5.386719
1089.493, 2.207031
1089.975, 0.4736330
1090.458, 3.177002
1090.940, 5.824707
1091.422, 6.505371
1091.904, 6.047607
1092.386, 7.535889
1092.868, 10.45361
1093.350, 11.34009
1093.832, 8.706543
1094.314, 5.407227
1094.797, 2.532471
1095.279, 0.5793460
1095.761, 0.4902340
1096.243, 2.480225
1096.725, 2.231934
1097.207, 0.4704590
1097.689, 2.571289
1098.171, 1.864258
1098.653, 0.1733400
1099.136, 0.4824220
1099.618, 0.5498050
1100.100, 0.9609380
1100.582, 2.798096
1101.064, 3.051514
1101.546, 1.147705
1102.028, 1.191650
1102.510, 2.810547
1102.993, 3.587158
1103.475, 2.667236
1103.957, 0.3969730
1104.439, 1.034424
1104.921, 0.5700680
1105.403, 1.390869
1105.885, 7.3242001E-02
1106.367, 2.116943
1106.849, 3.033936
1107.332, 2.839600
1107.814, 1.860107
1108.296, 3.3691000E-02
1108.778, 0.6652830
1109.260, 2.962646
1109.742, 6.330078
1110.224, 5.964111
1110.706, 2.702393
1111.188, 0.7048340
1111.671, 7.4707001E-02
1112.153, 1.240234
1112.635, 5.931152
1113.117, 10.14453
1113.599, 8.831543
1114.081, 5.555420
1114.563, 4.582031
1115.045, 6.851563
1115.528, 8.899658
1116.010, 10.85693
1116.492, 12.15796
1116.974, 12.49341
1117.456, 12.03125
1117.938, 10.24512
1118.420, 8.017822
1118.902, 7.209229
1119.385, 9.349121
1119.867, 11.84570
1120.349, 15.31128
1120.831, 17.70776
1121.313, 15.76318
1121.795, 11.48999
1122.277, 10.95435
1122.759, 13.87524
1123.241, 17.44556
1123.724, 19.03247
1124.206, 22.98071
1124.688, 32.32617
1125.170, 42.75488
1125.652, 46.92285
1126.134, 45.67969
1126.616, 45.05444
1127.098, 45.79346
1127.580, 45.47583
1128.063, 41.11841
1128.545, 36.55176
1129.027, 34.39038
1129.509, 33.99731
1129.991, 33.67822
1130.473, 33.47168
1130.955, 31.55176
1131.437, 26.72510
1131.920, 22.90967
1132.402, 25.78198
1132.884, 30.17651
1133.366, 30.50146
1133.848, 26.02271
1134.330, 23.22241
1134.812, 22.22705
1135.294, 21.96094
1135.776, 22.31934
1136.259, 22.99731
1136.741, 23.42700
1137.223, 23.55127
1137.705, 23.56689
1138.187, 23.55518
1138.669, 23.79370
1139.151, 24.41211
1139.633, 24.56201
1140.115, 23.87280
1140.598, 22.41797
1141.080, 19.89722
1141.562, 16.68213
1142.044, 13.75220
1142.526, 10.03540
1143.008, 9.046387
1143.490, 12.37671
1143.972, 16.45142
1144.455, 17.81641
1144.937, 17.01147
1145.419, 14.41235
1145.901, 10.73999
1146.383, 10.42163
1146.865, 21.71460
1147.347, 28.84985
1147.829, 25.15479
1148.312, 17.16455
1148.794, 15.45825
1149.276, 18.92456
1149.758, 20.02124
1150.240, 17.83496
1150.722, 15.41333
1151.204, 13.42090
1151.686, 13.08276
1152.168, 16.39233
1152.651, 21.42236
1153.133, 22.11157
1153.615, 18.68701
1154.097, 16.51172
1154.579, 16.94238
1155.061, 17.70068
1155.543, 16.89014
1156.025, 15.80981
1156.507, 15.37085
1156.990, 15.50757
1157.472, 16.52271
1157.954, 18.54712
1158.436, 19.74805
1158.918, 19.11987
1159.400, 18.35156
1159.882, 19.25586
1160.364, 20.81763
1160.847, 21.95508
1161.329, 22.68774
1161.811, 22.95850
1162.293, 22.53955
1162.775, 22.27783
1163.257, 22.84351
1163.739, 23.76855
1164.221, 24.60059
1164.703, 25.06616
1165.186, 24.78223
1165.668, 23.59888
1166.150, 21.50830
1166.632, 18.24927
1167.114, 15.15894
1167.596, 12.16382
1168.078, 10.34106
1168.560, 12.93872
1169.042, 18.14038
1169.525, 21.05518
1170.007, 19.26758
1170.489, 16.87720
1170.971, 13.45679
1171.453, 11.02246
1171.935, 12.72412
1172.417, 16.28149
1172.899, 17.04443
1173.382, 15.36230
1173.864, 13.79272
1174.346, 13.21582
1174.828, 12.73071
1175.310, 12.09033
1175.792, 11.71948
1176.274, 12.58569
1176.756, 14.02002
1177.239, 14.10986
1177.721, 12.81738
1178.203, 12.50732
1178.685, 15.10840
1179.167, 17.67017
1179.649, 19.85059
1180.131, 20.78662
1180.613, 18.68726
1181.095, 14.77246
1181.578, 12.77539
1182.060, 13.32007
1182.542, 14.19751
1183.024, 14.92993
1183.506, 15.30078
1183.988, 14.84863
1184.470, 14.41797
1184.952, 16.59619
1185.434, 20.37158
1185.917, 23.17822
1186.399, 24.58789
1186.881, 23.93115
1187.363, 17.64941
1187.845, 12.75659
1188.327, 12.92163
1188.809, 16.87573
1189.291, 21.02710
1189.774, 24.89111
1190.256, 26.07300
1190.738, 22.72559
1191.220, 19.64648
1191.702, 19.06421
1192.184, 19.68140
1192.666, 20.89136
1193.148, 22.57031
1193.630, 24.27686
1194.113, 25.81104
1194.595, 25.80884
1195.077, 22.36035
1195.559, 19.81299
1196.041, 21.76587
1196.523, 24.33911
1197.005, 24.44165
1197.487, 22.23950
1197.969, 19.98169
1198.452, 17.80859
1198.934, 16.65576
1199.416, 18.46338
1199.898, 19.57568
1200.380, 17.17944
1200.862, 14.02002
1201.344, 12.82446
1201.826, 13.58691
1202.309, 14.37646
1202.791, 15.15674
1203.273, 15.64844
1203.755, 15.41724
1204.237, 15.17603
1204.719, 15.12793
1205.201, 15.34229
1205.683, 16.16113
1206.166, 17.52026
1206.648, 17.60669
1207.130, 16.39355
1207.612, 14.98657
1208.094, 13.57153
1208.576, 12.70239
1209.058, 13.22217
1209.540, 14.18604
1210.022, 14.10352
1210.505, 13.04932
1210.987, 13.10498
1211.469, 14.39868
1211.951, 15.30786
1212.433, 14.70435
1212.915, 13.51611
1213.397, 11.32031
1213.879, 9.432861
1214.361, 10.96851
1214.844, 15.57910
1215.326, 17.20044
1215.808, 15.11792
1216.290, 12.74219
1216.772, 12.22754
1217.254, 12.20679
1217.736, 11.51099
1218.218, 10.95093
1218.701, 12.91064
1219.183, 17.05469
1219.665, 19.61768
1220.147, 19.95361
1220.629, 19.57935
1221.111, 18.51538
1221.593, 17.80493
1222.075, 18.48071
1222.557, 19.60425
1223.040, 18.35791
1223.522, 15.12695
1224.004, 12.82593
1224.486, 12.00659
1224.968, 11.99854
1225.450, 13.86670
1225.932, 14.80078
1226.414, 12.82446
1226.896, 9.311523
1227.379, 8.611328
1227.861, 10.23096
1228.343, 11.50098
1228.825, 11.85156
1229.307, 11.70801
1229.789, 11.10156
1230.271, 10.16895
1230.753, 8.702637
1231.236, 7.085449
1231.718, 7.139404
1232.200, 8.272217
1232.682, 7.928223
1233.164, 5.129395
1233.646, 2.468018
1234.128, 0.7436520
1234.610, 0.1618650
1235.093, 1.520508
1235.575, 3.669434
1236.057, 1.827393
1236.539, 2.485352
1237.021, 3.854248
1237.503, 0.3627930
1237.985, 3.477539
1238.467, 2.023193
1238.949, 0.1459960
1239.432, 0.3427730
1239.914, 1.2939000E-02
1240.396, 0.5480960
1240.878, 1.719727
1241.360, 2.840088
1241.842, 4.191650
1242.324, 3.936035
1242.806, 0.6008300
1243.288, 2.584717
1243.771, 4.228760
1244.253, 4.586182
1244.735, 3.885498
1245.217, 2.691162
1245.699, 2.366211
1246.181, 3.513184
1246.663, 5.072510
1247.145, 7.392334
1247.628, 8.954834
1248.110, 8.180176
1248.592, 6.865234
1249.074, 10.03735
1249.556, 15.19849
1250.038, 17.48315
1250.520, 14.33374
1251.002, 11.12500
1251.484, 7.722168
1251.967, 5.443848
1252.449, 5.264648
1252.931, 6.443848
1253.413, 8.537598
1253.895, 10.88599
1254.377, 12.21899
1254.859, 11.80542
1255.341, 11.50903
1255.823, 11.20532
1256.306, 11.57446
1256.788, 13.85376
1257.270, 16.00708
1257.752, 15.42285
1258.234, 13.09326
1258.716, 10.28320
1259.198, 6.470947
1259.680, 5.777344
1260.163, 8.660400
1260.645, 10.70679
1261.127, 8.566406
1261.609, 5.661621
1262.091, 5.181885
1262.573, 5.834717
1263.055, 5.771240
1263.537, 4.777588
1264.020, 4.055420
1264.502, 3.583252
1264.984, 3.643799
1265.466, 4.288330
1265.948, 5.555664
1266.430, 8.369629
1266.912, 11.11670
1267.394, 11.93018
1267.876, 10.73462
1268.359, 9.658691
1268.841, 8.487305
1269.323, 7.074463
1269.805, 5.410645
1270.287, 4.262207
1270.769, 4.794678
1271.251, 5.282715
1271.733, 4.469971
1272.215, 3.769531
1272.698, 3.929443
1273.180, 4.657715
1273.662, 4.661621
1274.144, 2.517822
1274.626, 0.8178710
1275.108, 0.1484380
1275.590, 0.1782230
1276.072, 1.762939
1276.555, 4.600586
1277.037, 3.751709
1277.519, 0.5556640
1278.001, 0.9970700
1278.483, 2.641113
1278.965, 4.500244
1279.447, 3.357422
1279.929, 2.261963
1280.411, 4.128174
1280.894, 7.222168
1281.376, 8.583984
1281.858, 8.600098
1282.340, 8.170654
1282.822, 6.863525
1283.304, 6.728516
1283.786, 8.092773
1284.268, 9.145752
1284.750, 8.105469
1285.233, 6.627197
1285.715, 6.621826
1286.197, 7.535889
1286.679, 8.406250
1287.161, 8.928711
1287.643, 10.37500
1288.125, 12.68335
1288.607, 14.15869
1289.090, 13.58130
1289.572, 11.47974
1290.054, 7.214844
1290.536, 3.539307
1291.018, 4.787109
1291.500, 11.22656
1291.982, 13.99365
1292.464, 13.33154
1292.947, 11.69727
1293.429, 10.44800
1293.911, 8.461182
1294.393, 3.608154
1294.875, 0.4104000
1295.357, 0.1076660
1295.839, 3.937988
1296.321, 3.935303
1296.803, 1.295654
1297.286, 4.9561001E-02
1297.768, 3.294678
1298.250, 3.726807
1298.732, 3.352539
1299.214, 0.8061520
1299.696, 0.6435550
1300.178, 0.4008790
1300.660, 0.0000000E+00
##END=



