##NAMES=Opal
##RRUFFID=R100149
##IDEAL CHEMISTRY=SiO_2_&#183;<i>n</i>H_2_O
##LOCALITY=Sri Lanka
##OWNER=RRUFF
##SOURCE=William W. Pinch
##DESCRIPTION=White polished hemisphere
##STATUS=The identification of this mineral is not yet confirmed.
##URL=rruff.info/R100149
150.8700, 0.0000000E+00
151.3521, 0.4225160
151.8342, 0.7117540
152.3164, 0.7631380
152.7985, 0.6141360
153.2806, 0.4241790
153.7627, 0.2712100
154.2448, 0.1764760
154.7269, 0.7312320
155.2091, 1.910271
155.6912, 2.824615
156.1733, 3.035072
156.6554, 2.518227
157.1375, 1.687836
157.6196, 0.9405900
158.1018, 0.1700130
158.5839, 0.1720350
159.0660, 0.1439820
159.5481, 0.6815340
160.0302, 1.271248
160.5123, 1.838806
160.9945, 2.331429
161.4766, 2.612480
161.9587, 2.570763
162.4408, 2.465309
162.9229, 2.217522
163.4050, 1.888123
163.8871, 1.653358
164.3693, 1.601379
164.8514, 1.733353
165.3335, 2.066498
165.8156, 2.319260
166.2977, 2.560226
166.7798, 2.810249
167.2620, 2.983170
167.7441, 3.071724
168.2262, 3.051674
168.7083, 2.980881
169.1904, 3.014038
169.6725, 2.852943
170.1547, 2.740845
170.6368, 2.810081
171.1189, 2.948318
171.6010, 3.044823
172.0831, 3.674744
172.5652, 4.424843
173.0474, 4.520126
173.5295, 3.511917
174.0116, 2.363396
174.4937, 1.829010
174.9758, 1.907112
175.4579, 2.173180
175.9401, 2.612740
176.4222, 3.068260
176.9043, 3.413277
177.3864, 3.741089
177.8685, 3.785019
178.3506, 3.110313
178.8328, 1.373596
179.3149, 0.2846150
179.7970, 1.145187
180.2791, 2.582817
180.7612, 3.331055
181.2433, 2.800171
181.7255, 1.647934
182.2076, 1.488792
182.6897, 2.734001
183.1718, 3.387054
183.6539, 3.285034
184.1360, 2.842613
184.6181, 2.503304
185.1003, 2.491570
185.5824, 2.660095
186.0645, 2.468468
186.5466, 1.300018
187.0287, 0.5270610
187.5108, 0.6261600
187.9930, 1.137596
188.4751, 1.474815
188.9572, 1.302460
189.4393, 0.7191390
189.9214, 0.2690890
190.4035, 0.2061080
190.8857, 0.3724210
191.3678, 4.8682999E-02
191.8499, 0.8093410
192.3320, 1.533157
192.8141, 2.020241
193.2962, 2.258560
193.7784, 2.112709
194.2605, 1.233673
194.7426, 0.4385450
195.2247, 9.4529996E-03
195.7068, 0.1105800
196.1889, 0.1058580
196.6711, 7.6241001E-02
197.1532, 9.2320004E-03
197.6353, 0.1329730
198.1174, 0.4191820
198.5995, 0.7085270
199.0816, 0.9322590
199.5638, 1.093483
200.0459, 1.210213
200.5280, 1.266624
201.0101, 1.297035
201.4922, 1.408279
201.9743, 1.799210
202.4565, 2.075302
202.9386, 1.714592
203.4207, 0.6916890
203.9028, 2.7961999E-02
204.3849, 0.3600690
204.8670, 1.201302
205.3492, 1.712601
205.8313, 1.755119
206.3134, 1.613838
206.7955, 1.411140
207.2776, 1.208038
207.7597, 1.081383
208.2419, 0.9750520
208.7240, 0.9240800
209.2061, 0.8020630
209.6882, 0.5067980
210.1703, 0.2762910
210.6524, 0.7058490
211.1346, 2.292130
211.6167, 3.216682
212.0988, 2.451538
212.5809, 1.019836
213.0630, 0.2159880
213.5451, 0.9424820
214.0273, 1.161293
214.5094, 0.7692180
214.9915, 0.7443700
215.4736, 1.950310
215.9557, 2.536179
216.4378, 2.737732
216.9200, 2.812927
217.4021, 2.856857
217.8842, 2.829880
218.3663, 2.597809
218.8484, 1.799240
219.3305, 1.336739
219.8127, 1.512711
220.2948, 1.965408
220.7769, 2.341751
221.2590, 2.481575
221.7411, 2.427322
222.2232, 2.301933
222.7054, 2.065872
223.1875, 1.795547
223.6696, 1.290855
224.1517, 0.8248750
224.6338, 0.7701570
225.1159, 1.294922
225.5980, 2.185707
226.0802, 2.825920
226.5623, 3.216377
227.0444, 3.332336
227.5265, 2.919090
228.0086, 2.299629
228.4907, 1.873337
228.9729, 1.806793
229.4550, 2.025673
229.9371, 2.366882
230.4192, 3.053528
230.9013, 3.512779
231.3834, 3.578270
231.8656, 3.375763
232.3477, 3.012939
232.8298, 2.496162
233.3119, 2.014580
233.7940, 2.088280
234.2761, 3.027725
234.7583, 3.637527
235.2404, 3.337776
235.7225, 2.555870
236.2046, 2.025177
236.6867, 1.979790
237.1688, 2.233727
237.6510, 2.609390
238.1331, 3.131462
238.6152, 3.551773
239.0973, 3.786674
239.5794, 3.859749
240.0615, 3.789352
240.5437, 3.527931
241.0258, 3.268456
241.5079, 3.305443
241.9900, 3.628792
242.4721, 3.968506
242.9542, 4.190536
243.4363, 4.344963
243.9185, 4.596008
244.4006, 5.051926
244.8827, 5.420601
245.3648, 5.405121
245.8469, 5.063614
246.3290, 4.683899
246.8112, 4.326683
247.2933, 4.015800
247.7754, 3.895409
248.2575, 4.124718
248.7396, 4.291916
249.2217, 4.045708
249.7039, 3.496025
250.1860, 2.979782
250.6681, 2.707420
251.1502, 2.612190
251.6323, 2.433563
252.1144, 2.094872
252.5966, 1.759933
253.0787, 1.509995
253.5608, 1.350075
254.0429, 1.282326
254.5250, 1.431946
255.0071, 1.683029
255.4893, 1.528664
255.9714, 0.6917650
256.4535, 0.1082990
256.9356, 0.6337430
257.4177, 0.9106670
257.8998, 0.9471660
258.3820, 0.6524580
258.8641, 0.1617970
259.3462, 3.6934000E-02
259.8283, 0.1838380
260.3104, 0.5117950
260.7925, 1.061920
261.2747, 1.583534
261.7568, 1.701881
262.2389, 1.088890
262.7210, 7.7079996E-02
263.2031, 0.3222660
263.6852, 0.3829800
264.1674, 0.8724140
264.6495, 0.7888790
265.1316, 0.3861770
265.6137, 0.1066890
266.0958, 0.5991970
266.5779, 1.058159
267.0601, 1.417221
267.5422, 1.737358
268.0243, 1.797180
268.5064, 1.253433
268.9885, 0.6655120
269.4706, 0.6479490
269.9528, 1.399353
270.4349, 2.455269
270.9170, 2.827110
271.3991, 1.959053
271.8812, 1.525986
272.3633, 2.032677
272.8455, 2.800713
273.3276, 3.160553
273.8097, 2.987404
274.2918, 2.627380
274.7739, 2.626846
275.2560, 3.242729
275.7381, 3.676544
276.2202, 3.762299
276.7024, 3.828865
277.1845, 4.168571
277.6666, 4.772804
278.1487, 5.335785
278.6308, 5.453964
279.1129, 4.932686
279.5951, 4.637154
280.0772, 4.624680
280.5593, 4.739815
281.0414, 5.022072
281.5235, 5.392426
282.0056, 5.616676
282.4878, 5.420792
282.9699, 4.688713
283.4520, 4.390335
283.9341, 4.855392
284.4162, 5.364960
284.8983, 5.598686
285.3805, 5.623955
285.8626, 5.701881
286.3447, 6.050301
286.8268, 6.661255
287.3089, 7.097534
287.7910, 7.561821
288.2732, 7.659294
288.7553, 6.853531
289.2374, 5.615356
289.7195, 4.834885
290.2016, 5.071220
290.6837, 6.145203
291.1659, 7.090157
291.6480, 8.030579
292.1301, 8.690941
292.6122, 8.866806
293.0943, 8.772202
293.5764, 8.727394
294.0586, 8.883720
294.5407, 9.110313
295.0228, 9.052086
295.5049, 7.957275
295.9870, 7.509956
296.4691, 8.391235
296.9513, 9.681458
297.4334, 10.31861
297.9155, 9.972351
298.3976, 9.216652
298.8797, 9.032425
299.3618, 10.01326
299.8440, 10.44695
300.3261, 9.804733
300.8082, 8.956085
301.2903, 8.606163
301.7724, 8.882370
302.2545, 9.469330
302.7367, 10.07188
303.2188, 10.82912
303.7009, 10.89632
304.1830, 9.360619
304.6651, 7.936234
305.1472, 7.996941
305.6294, 9.371750
306.1115, 10.69588
306.5936, 10.74622
307.0757, 9.426102
307.5578, 8.635048
308.0399, 8.613701
308.5221, 8.773880
309.0042, 8.851517
309.4863, 8.898552
309.9684, 9.164955
310.4505, 9.874931
310.9326, 10.89113
311.4148, 11.19703
311.8969, 10.18146
312.3790, 9.282158
312.8611, 8.884537
313.3432, 8.818726
313.8253, 8.762604
314.3075, 8.556137
314.7896, 8.326431
315.2717, 8.458115
315.7538, 9.266998
316.2359, 10.02489
316.7180, 10.82842
317.2001, 11.48188
317.6823, 11.72126
318.1644, 11.47699
318.6465, 10.95605
319.1286, 10.48186
319.6107, 10.16120
320.0928, 9.713356
320.5750, 8.698723
321.0571, 7.838539
321.5392, 7.876945
322.0213, 8.795815
322.5034, 9.851593
322.9855, 10.26953
323.4677, 9.922432
323.9498, 9.800041
324.4319, 10.24546
324.9140, 10.56346
325.3961, 10.20534
325.8782, 9.378822
326.3604, 8.776192
326.8425, 8.922318
327.3246, 9.730179
327.8067, 10.20435
328.2888, 10.14864
328.7709, 10.03793
329.2531, 9.945061
329.7352, 9.885155
330.2173, 9.869164
330.6994, 9.902237
331.1815, 9.982918
331.6636, 10.10789
332.1458, 10.46428
332.6279, 10.62663
333.1100, 10.28894
333.5921, 9.896248
334.0742, 10.01992
334.5563, 10.77851
335.0385, 11.65333
335.5206, 11.88344
336.0027, 11.22751
336.4848, 10.46803
336.9669, 8.927879
337.4490, 7.800407
337.9312, 8.194756
338.4133, 9.935860
338.8954, 11.80177
339.3775, 12.64890
339.8596, 12.39059
340.3417, 12.20061
340.8239, 12.27056
341.3060, 12.20426
341.7881, 11.68797
342.2702, 10.93278
342.7523, 10.39211
343.2344, 10.36343
343.7166, 10.72826
344.1987, 10.91216
344.6808, 10.68384
345.1629, 10.52780
345.6450, 10.53133
346.1271, 10.61195
346.6093, 10.67181
347.0914, 10.67616
347.5735, 10.66596
348.0556, 10.71209
348.5377, 10.77335
349.0198, 10.98363
349.5020, 11.72424
349.9841, 12.31723
350.4662, 12.20956
350.9483, 11.40308
351.4304, 10.33203
351.9125, 9.406197
352.3947, 8.583641
352.8768, 8.206909
353.3589, 8.765045
353.8410, 9.279144
354.3231, 9.406631
354.8052, 9.220932
355.2874, 8.897293
355.7695, 8.508652
356.2516, 8.126373
356.7337, 8.198723
357.2158, 9.493080
357.6979, 10.17293
358.1800, 9.496727
358.6621, 8.256714
359.1443, 7.308044
359.6264, 6.974556
360.1085, 7.005814
360.5906, 6.957672
361.0727, 6.786171
361.5548, 6.650482
362.0370, 6.626129
362.5191, 6.596397
363.0012, 6.440002
363.4833, 6.172256
363.9654, 5.960991
364.4475, 6.030426
364.9297, 6.407570
365.4118, 6.611450
365.8939, 6.624977
366.3760, 6.457878
366.8581, 5.857094
367.3402, 5.096481
367.8224, 4.748642
368.3045, 5.288658
368.7866, 6.371094
369.2687, 6.976456
369.7508, 7.033226
370.2329, 6.772369
370.7151, 5.925858
371.1972, 4.991127
371.6793, 4.498528
372.1614, 4.637688
372.6435, 4.995537
373.1256, 5.084488
373.6078, 4.888885
374.0899, 4.656326
374.5720, 4.389824
375.0541, 4.144234
375.5362, 3.995697
376.0183, 3.927643
376.5005, 3.802864
376.9826, 3.320908
377.4647, 2.678291
377.9468, 2.711525
378.4289, 3.787964
378.9110, 4.833511
379.3932, 5.166229
379.8753, 4.960770
380.3574, 4.453583
380.8395, 3.493393
381.3216, 2.468826
381.8037, 1.836571
382.2859, 1.597168
382.7680, 1.629578
383.2501, 2.052292
383.7322, 2.621300
384.2143, 2.990082
384.6964, 3.149895
385.1786, 3.061615
385.6607, 2.476128
386.1428, 1.611847
386.6249, 1.091331
387.1070, 1.139793
387.5891, 1.365288
388.0713, 1.289154
388.5534, 0.9392700
389.0355, 0.6364590
389.5176, 0.4684300
389.9997, 0.3634800
390.4818, 0.2075500
390.9640, 6.4320001E-03
391.4461, 2.4817999E-02
391.9282, 0.3902210
392.4103, 1.091194
392.8924, 1.294182
393.3745, 0.4330220
393.8567, 0.2717360
394.3388, 0.1711040
394.8209, 0.3970110
395.3030, 0.7437520
395.7851, 0.6006770
396.2672, 0.3216480
396.7494, 0.6054380
397.2315, 1.858467
397.7136, 2.607658
398.1957, 2.626892
398.6778, 2.306206
399.1599, 1.811035
399.6420, 1.282745
400.1241, 0.9204710
400.6063, 0.9627530
401.0884, 1.444885
401.5705, 1.976662
402.0526, 2.893669
402.5347, 3.555275
403.0168, 3.602165
403.4990, 3.234489
403.9811, 2.785774
404.4632, 2.450432
404.9453, 2.216957
405.4274, 1.952850
405.9095, 1.394508
406.3917, 1.322510
406.8738, 2.241722
407.3559, 3.204575
407.8380, 3.473885
408.3201, 3.059151
408.8022, 2.564186
409.2844, 2.670586
409.7665, 3.394897
410.2486, 3.501259
410.7307, 2.319321
411.2128, 1.373260
411.6949, 1.233871
412.1771, 1.591209
412.6592, 1.977554
413.1413, 2.216331
413.6234, 2.317200
414.1055, 2.252243
414.5876, 1.950394
415.0698, 1.639809
415.5519, 1.234745
416.0340, 0.9482150
416.5161, 0.9862170
416.9982, 1.356266
417.4803, 1.814129
417.9625, 2.300652
418.4446, 2.756905
418.9267, 2.690178
419.4088, 1.751686
419.8909, 0.8610880
420.3730, 0.7131460
420.8552, 1.032497
421.3373, 1.289474
421.8194, 1.312969
422.3015, 1.191814
422.7836, 0.9923020
423.2657, 0.7159540
423.7479, 0.4738200
424.2300, 0.3321570
424.7121, 0.2286260
425.1942, 8.6289998E-03
425.6763, 0.3936810
426.1584, 0.5796620
426.6406, 0.1812480
427.1227, 0.4874920
427.6048, 0.8671040
428.0869, 0.8509640
428.5690, 0.7660520
429.0511, 0.9418640
429.5333, 1.363602
430.0154, 1.536400
430.4975, 1.129185
430.9796, 0.7833180
431.4617, 0.9754940
431.9438, 1.522087
432.4260, 1.954372
432.9081, 2.055981
433.3902, 1.907856
433.8723, 1.687756
434.3544, 1.300545
434.8365, 1.004440
435.3187, 0.8521580
435.8008, 0.7650450
436.2829, 0.6702040
436.7650, 0.5590900
437.2471, 0.4840550
437.7292, 0.4934460
438.2114, 0.5963440
438.6935, 0.7987630
439.1756, 1.441021
439.6577, 1.751209
440.1398, 1.352905
440.6219, 0.5909610
441.1040, 0.1102980
441.5862, 0.5657010
442.0683, 0.8021050
442.5504, 0.8445700
443.0325, 0.6412280
443.5146, 0.4222410
443.9967, 0.1325040
444.4789, 0.1109280
444.9610, 0.1518550
445.4431, 6.3373998E-02
445.9252, 0.1243900
446.4073, 0.6846350
446.8894, 1.529568
447.3716, 1.794773
447.8537, 1.307564
448.3358, 0.7193910
448.8179, 9.8514996E-02
449.3000, 0.4409710
449.7821, 0.7002750
450.2643, 0.5968970
450.7464, 0.3786700
451.2285, 0.2690470
451.7106, 0.2229770
452.1927, 1.3817000E-02
452.6748, 0.4786950
453.1570, 0.8918230
453.6391, 0.6127470
454.1212, 0.1624260
454.6033, 0.4459610
455.0854, 0.6560130
455.5675, 1.855808
456.0497, 1.739792
456.5318, 0.5184520
457.0139, 0.3606570
457.4960, 6.0931999E-02
457.9781, 0.9269370
458.4602, 1.249447
458.9424, 0.6584130
459.4245, 5.6834999E-02
459.9066, 0.6310390
460.3887, 1.116253
460.8708, 0.9478990
461.3529, 0.1467090
461.8351, 0.7105140
462.3172, 1.102036
462.7993, 1.058990
463.2814, 0.8720660
463.7635, 3.0445000E-02
464.2456, 0.4935260
464.7278, 0.1312870
465.2099, 0.5846790
465.6920, 0.8120120
466.1741, 0.2361950
466.6562, 0.5752410
467.1383, 0.5485230
467.6205, 0.7965850
468.1026, 1.483047
468.5847, 0.6876950
469.0668, 9.0549000E-02
469.5489, 9.0793997E-02
470.0310, 0.4956130
470.5132, 1.015614
470.9953, 0.9920270
471.4774, 0.7096980
471.9595, 0.9907230
472.4416, 2.038368
472.9237, 2.895847
473.4059, 3.197895
473.8880, 3.155514
474.3701, 2.856171
474.8522, 2.301434
475.3343, 1.816727
475.8164, 1.623665
476.2986, 1.649002
476.7807, 1.725620
477.2628, 1.842358
477.7449, 1.981461
478.2270, 2.171879
478.7091, 2.377174
479.1913, 2.451347
479.6734, 2.263256
480.1555, 2.083557
480.6376, 2.022285
481.1197, 2.070961
481.6018, 2.265545
482.0839, 2.631573
482.5660, 2.972488
483.0482, 2.978340
483.5303, 2.478451
484.0124, 2.235268
484.4945, 2.591915
484.9766, 2.895882
485.4587, 2.561016
485.9409, 1.888824
486.4230, 1.739433
486.9051, 2.644070
487.3872, 4.083664
487.8693, 4.470898
488.3514, 2.904736
488.8336, 1.976669
489.3157, 2.239143
489.7978, 2.804535
490.2799, 3.213070
490.7620, 3.373611
491.2441, 3.297459
491.7263, 2.911640
492.2084, 2.301342
492.6905, 1.866714
493.1726, 1.608448
493.6547, 1.528435
494.1368, 1.940292
494.6190, 2.381210
495.1011, 2.263454
495.5832, 1.410809
496.0653, 0.6003340
496.5474, 0.4792480
497.0295, 0.8714450
497.5117, 1.301971
497.9938, 1.743172
498.4759, 2.041256
498.9580, 1.979305
499.4401, 1.614185
499.9222, 1.377899
500.4044, 1.425949
500.8865, 1.510513
501.3686, 1.479115
501.8507, 1.392220
502.3328, 1.344887
502.8149, 1.359402
503.2971, 1.477879
503.7792, 1.827484
504.2613, 2.635853
504.7434, 2.784916
505.2255, 1.522934
505.7076, 0.4209630
506.1898, 0.3419990
506.6719, 0.9835590
507.1540, 1.700653
507.6361, 2.203312
508.1182, 2.445923
508.6003, 2.164265
509.0825, 0.9581110
509.5646, 0.2783780
510.0467, 0.6835140
510.5288, 1.309757
511.0109, 1.741661
511.4930, 1.971729
511.9752, 2.118786
512.4573, 2.303864
512.9394, 2.509972
513.4215, 2.558361
513.9036, 2.437088
514.3857, 2.340240
514.8679, 2.277813
515.3500, 2.312519
515.8321, 2.531612
516.3142, 2.959961
516.7963, 3.124699
517.2784, 2.497517
517.7606, 1.581429
518.2427, 1.268829
518.7248, 1.637047
519.2069, 1.824787
519.6890, 1.046516
520.1711, 0.3877560
520.6533, 0.6955070
521.1354, 1.296455
521.6175, 2.634239
522.0996, 2.304211
522.5817, 1.458126
523.0638, 1.230350
523.5460, 1.743172
524.0281, 2.405910
524.5102, 2.682106
524.9923, 2.626942
525.4744, 2.361652
525.9565, 1.438194
526.4387, 0.7481460
526.9208, 0.5302730
527.4029, 0.5772780
527.8850, 0.7188870
528.3671, 0.8799320
528.8492, 1.017616
529.3314, 1.028744
529.8135, 0.9571950
530.2956, 1.187031
530.7777, 1.978920
531.2598, 2.545841
531.7419, 2.072277
532.2241, 1.120068
532.7062, 0.6086730
533.1883, 0.8679470
533.6704, 1.260651
534.1525, 1.244781
534.6346, 1.043095
535.1168, 1.310040
535.5989, 2.240940
536.0810, 3.134892
536.5631, 3.231152
537.0452, 2.483421
537.5273, 1.989479
538.0095, 1.750217
538.4916, 1.737701
538.9737, 2.132698
539.4558, 2.675247
539.9379, 2.967388
540.4200, 2.892498
540.9022, 2.722012
541.3843, 2.869720
541.8663, 3.441288
542.3484, 3.739574
542.8306, 3.607304
543.3127, 3.345055
543.7948, 2.967236
544.2769, 2.540146
544.7590, 2.115147
545.2411, 1.679779
545.7233, 1.406212
546.2054, 1.580677
546.6875, 2.162468
547.1696, 2.752979
547.6517, 3.369049
548.1339, 3.835564
548.6160, 3.900915
549.0981, 3.683939
549.5802, 3.509329
550.0623, 3.471081
550.5444, 3.452040
551.0266, 3.394373
551.5087, 3.296362
551.9908, 3.149651
552.4729, 2.944984
552.9550, 2.716684
553.4371, 2.498577
553.9193, 2.282326
554.4014, 2.093033
554.8835, 1.910164
555.3656, 1.792839
555.8477, 1.673246
556.3298, 1.659657
556.8120, 2.020229
557.2941, 2.826042
557.7762, 3.642729
558.2583, 3.792866
558.7404, 3.180996
559.2225, 2.702379
559.7047, 2.445824
560.1868, 2.246124
560.6689, 1.940073
561.1510, 1.652931
561.6331, 1.657909
562.1152, 2.170139
562.5974, 2.610590
563.0795, 2.175657
563.5616, 1.167965
564.0437, 0.8777600
564.5258, 1.681244
565.0079, 2.636505
565.4901, 2.869431
565.9722, 2.392902
566.4543, 2.024179
566.9364, 1.783890
567.4185, 1.594597
567.9006, 1.606461
568.3828, 1.625746
568.8649, 1.222343
569.3470, 0.3498710
569.8291, 0.3972550
570.3112, 0.2471660
570.7933, 0.8772600
571.2755, 1.562429
571.7576, 1.402306
572.2397, 1.290003
572.7218, 1.630409
573.2039, 2.036898
573.6860, 1.972523
574.1682, 1.319893
574.6503, 0.6679270
575.1324, 0.6628270
575.6145, 1.142496
576.0966, 1.380476
576.5787, 1.285652
577.0609, 1.166151
577.5430, 1.197166
578.0251, 1.287508
578.5072, 1.347755
578.9893, 1.531900
579.4714, 1.579729
579.9536, 1.169321
580.4357, 0.6930750
580.9178, 0.7523990
581.3999, 1.352804
581.8820, 1.935720
582.3641, 2.087046
582.8463, 1.847065
583.3284, 1.441530
583.8105, 0.4083460
584.2926, 0.1113570
584.7747, 0.3350140
585.2568, 1.028576
585.7390, 1.492149
586.2211, 1.665422
586.7032, 1.657629
587.1853, 1.474974
587.6674, 1.257889
588.1495, 1.375309
588.6317, 1.946894
589.1138, 2.330751
589.5959, 2.299820
590.0780, 1.984631
590.5601, 1.452333
591.0422, 0.7159230
591.5244, 0.2369650
592.0065, 0.2755620
592.4886, 0.5307180
592.9707, 0.7932890
593.4528, 1.048918
593.9349, 1.342440
594.4171, 1.711622
594.8992, 1.958996
595.3813, 1.677563
595.8634, 0.4882130
596.3455, 8.8656999E-02
596.8276, 0.3638080
597.3098, 0.9033240
597.7919, 1.254511
598.2740, 1.430765
598.7561, 1.304146
599.2382, 0.8831120
599.7203, 0.4365790
600.2025, 0.2806850
600.6846, 0.4140870
601.1667, 0.9201510
601.6488, 2.160473
602.1309, 3.058762
602.6130, 2.353918
603.0952, 0.8430940
603.5773, 0.2198510
604.0594, 1.224636
604.5415, 2.142879
605.0236, 1.842409
605.5057, 0.9956040
605.9879, 0.7195000
606.4700, 1.152578
606.9521, 1.588987
607.4342, 1.418560
607.9163, 0.7475090
608.3984, 0.3610230
608.8806, 0.3973660
609.3627, 0.5390220
609.8448, 1.009895
610.3269, 1.388927
610.8090, 1.169403
611.2911, 0.4758340
611.7733, 1.6283000E-02
612.2554, 0.4222370
612.7375, 1.266630
613.2196, 1.487083
613.7017, 1.015867
614.1838, 0.6494310
614.6660, 0.6601640
615.1481, 0.8348850
615.6302, 0.9602620
616.1123, 1.039589
616.5944, 1.084333
617.0765, 1.013073
617.5587, 0.9869580
618.0408, 1.202511
618.5229, 1.534370
619.0050, 1.728039
619.4871, 1.694042
619.9692, 1.451069
620.4514, 0.9426190
620.9335, 5.5197001E-02
621.4156, 0.2474270
621.8977, 0.5930810
622.3798, 1.390036
622.8619, 1.877291
623.3441, 2.137623
623.8262, 2.260910
624.3082, 2.269861
624.7903, 2.176029
625.2725, 1.942118
625.7546, 1.619473
626.2367, 1.365536
626.7188, 1.195036
627.2009, 0.9516430
627.6830, 0.4323010
628.1652, 0.1136610
628.6473, 0.1114750
629.1294, 0.6086620
629.6115, 1.156263
630.0936, 1.407272
630.5757, 1.443401
631.0579, 1.188631
631.5400, 0.7711720
632.0221, 0.4916210
632.5042, 0.5075280
632.9863, 0.6704290
633.4684, 0.7059540
633.9506, 0.5930710
634.4327, 0.4346370
634.9148, 6.9510996E-02
635.3969, 0.1194270
635.8790, 0.1825350
636.3611, 0.7371900
636.8433, 1.146414
637.3254, 1.288160
637.8075, 1.287655
638.2896, 1.150909
638.7717, 0.9944340
639.2538, 1.118793
639.7360, 1.551367
640.2181, 1.925245
640.7002, 1.903721
641.1823, 1.564228
641.6644, 1.353334
642.1465, 1.408741
642.6287, 1.416378
643.1108, 1.500422
643.5929, 1.427979
644.0750, 0.7571740
644.5571, 0.2309110
645.0392, 0.7025680
645.5214, 0.1143000
646.0035, 0.9329720
646.4856, 1.420742
646.9677, 1.350531
647.4498, 1.223665
647.9319, 1.032312
648.4141, 1.001345
648.8962, 1.480467
649.3783, 2.278851
649.8604, 2.727989
650.3425, 2.552723
650.8246, 2.326241
651.3068, 2.303822
651.7889, 2.337076
652.2710, 2.214334
652.7531, 1.929699
653.2352, 1.678930
653.7173, 1.641685
654.1995, 1.704666
654.6816, 1.313164
655.1637, 2.4160000E-02
655.6458, 0.6636470
656.1279, 3.8598999E-02
656.6100, 0.9544540
657.0922, 1.449022
657.5743, 1.585108
658.0564, 1.710440
658.5385, 2.063543
659.0206, 2.352959
659.5027, 2.019678
659.9849, 1.293104
660.4670, 1.131620
660.9491, 1.760820
661.4312, 2.436527
661.9133, 2.479300
662.3954, 1.932642
662.8776, 1.474195
663.3597, 1.149118
663.8418, 0.8420070
664.3239, 0.4911840
664.8060, 0.1944100
665.2881, 3.2494001E-02
665.7703, 3.1530000E-03
666.2524, 5.5555001E-02
666.7345, 0.2004800
667.2166, 0.4099660
667.6987, 0.6338210
668.1808, 0.8728660
668.6630, 1.241354
669.1451, 1.844490
669.6272, 2.388882
670.1093, 2.633995
670.5914, 2.564804
671.0735, 2.203163
671.5557, 0.8539710
672.0378, 7.8567997E-02
672.5199, 0.9606360
673.0020, 2.326387
673.4841, 2.828863
673.9662, 2.359436
674.4484, 1.688845
674.9305, 1.407816
675.4126, 1.437571
675.8947, 1.499456
676.3768, 1.604410
676.8589, 1.739586
677.3411, 1.896444
677.8232, 2.007071
678.3053, 1.933880
678.7874, 1.763943
679.2695, 1.722406
679.7516, 1.927208
680.2338, 2.197437
680.7159, 2.655598
681.1980, 3.034472
681.6801, 2.713230
682.1622, 1.695225
682.6443, 0.8738350
683.1265, 0.9860780
683.6086, 1.798632
684.0907, 2.052734
684.5728, 1.418531
685.0549, 0.9516030
685.5370, 0.9516720
686.0192, 1.018850
686.5013, 0.8485550
686.9834, 0.5663570
687.4655, 0.5630610
687.9476, 1.135914
688.4297, 1.757385
688.9119, 1.947859
689.3940, 1.831940
689.8761, 1.669521
690.3582, 1.510342
690.8403, 1.348711
691.3224, 1.157955
691.8046, 0.9756640
692.2867, 0.9995140
692.7688, 1.648802
693.2509, 1.811258
693.7330, 0.9225480
694.2151, 6.3776001E-02
694.6973, 2.3806000E-02
695.1794, 0.4366740
695.6615, 0.8148460
696.1436, 0.8519360
696.6257, 0.6773490
697.1078, 0.2292670
697.5900, 0.3243580
698.0721, 0.2626840
698.5542, 0.5610640
699.0363, 1.298956
699.5184, 1.355967
700.0005, 0.9069650
700.4827, 0.5516320
700.9648, 0.1109660
701.4469, 7.8273997E-02
701.9290, 1.022047
702.4111, 1.829378
702.8932, 1.644426
703.3754, 0.9050940
703.8575, 0.4553760
704.3396, 0.6620830
704.8217, 1.014521
705.3038, 0.7776760
705.7859, 0.1253800
706.2681, 1.9286999E-02
706.7501, 0.4951630
707.2322, 0.9551660
707.7144, 0.9433750
708.1965, 0.6432170
708.6786, 0.4568690
709.1607, 0.3684430
709.6428, 0.4303380
710.1249, 0.8458370
710.6071, 1.213940
711.0892, 1.210985
711.5713, 1.031635
712.0534, 1.085661
712.5355, 1.494923
713.0176, 1.858427
713.4998, 1.548193
713.9819, 0.8141750
714.4640, 0.6253550
714.9461, 1.114485
715.4282, 1.296587
715.9103, 0.5250490
716.3925, 0.5094850
716.8746, 0.6462150
717.3567, 0.2302360
717.8388, 0.8543090
718.3209, 1.095253
718.8030, 1.089239
719.2852, 0.6475580
719.7673, 0.1128330
720.2494, 3.0289000E-02
720.7315, 0.4633350
721.2136, 0.8752170
721.6957, 0.6959300
722.1779, 0.1413360
722.6600, 9.9539999E-03
723.1421, 0.3410470
723.6242, 0.7384950
724.1063, 1.147146
724.5884, 1.507862
725.0706, 1.815475
725.5527, 2.051590
726.0348, 1.947905
726.5169, 1.079376
726.9990, 0.3748910
727.4811, 0.3019310
727.9633, 0.4493980
728.4454, 0.3799080
728.9275, 6.6009998E-02
729.4096, 0.2799210
729.8917, 0.5373740
730.3738, 0.6803050
730.8560, 0.6795430
731.3381, 0.5354230
731.8202, 0.1444930
732.3023, 0.7078780
732.7844, 1.316086
733.2665, 0.9524820
733.7487, 6.6858001E-02
734.2308, 0.4979630
734.7129, 9.2511997E-02
735.1950, 0.4495980
735.6771, 2.2915000E-02
736.1592, 0.4783170
736.6414, 0.5352690
737.1235, 0.1889440
737.6056, 0.4393920
738.0877, 1.314465
738.5698, 1.979774
739.0519, 1.543394
739.5341, 0.1828170
740.0162, 0.3913520
740.4983, 7.2619997E-02
740.9804, 0.5150550
741.4625, 0.3257960
741.9446, 0.1059190
742.4268, 3.0113000E-02
742.9089, 0.9189510
743.3910, 1.372669
743.8731, 0.9177720
744.3552, 0.4161910
744.8373, 0.1848220
745.3195, 0.2095090
745.8016, 0.5902400
746.2837, 1.262714
746.7658, 1.708603
747.2479, 1.296629
747.7300, 0.4035400
748.2122, 9.5927998E-02
748.6943, 0.3820970
749.1764, 0.7288700
749.6585, 1.019855
750.1406, 1.236887
750.6227, 1.352837
751.1049, 1.368633
751.5870, 1.366964
752.0691, 1.417131
752.5512, 1.340103
753.0333, 0.8831010
753.5154, 0.4791600
753.9976, 0.6369900
754.4797, 1.199593
754.9618, 1.550873
755.4439, 1.302462
755.9260, 0.8888550
756.4081, 0.7950740
756.8903, 0.9763110
757.3724, 1.501371
757.8545, 2.413034
758.3366, 3.035696
758.8187, 2.873411
759.3008, 2.238808
759.7830, 1.897537
760.2651, 1.884666
760.7472, 2.072584
761.2293, 2.603476
761.7114, 3.160440
762.1935, 3.848457
762.6757, 4.377672
763.1578, 4.181646
763.6399, 3.175243
764.1220, 2.400986
764.6041, 2.924088
765.0862, 3.966957
765.5684, 4.317635
766.0505, 4.096977
766.5326, 3.995367
767.0147, 4.238249
767.4968, 4.588081
767.9789, 4.801907
768.4611, 4.879560
768.9432, 4.764267
769.4253, 4.119116
769.9074, 3.863388
770.3895, 4.644629
770.8716, 5.397638
771.3538, 5.132839
771.8359, 4.215948
772.3180, 3.963434
772.8001, 5.202129
773.2822, 6.355806
773.7643, 6.087540
774.2465, 5.167564
774.7286, 4.763199
775.2107, 4.996614
775.6928, 5.383835
776.1749, 5.687555
776.6570, 5.948603
777.1392, 6.282589
777.6213, 6.734285
778.1034, 6.908760
778.5855, 6.662411
779.0676, 6.427624
779.5497, 6.415653
780.0319, 6.506908
780.5140, 6.612135
780.9961, 6.755577
781.4782, 6.612671
781.9603, 5.656157
782.4424, 4.872116
782.9246, 5.053864
783.4067, 5.669832
783.8888, 5.896643
784.3709, 5.611027
784.8530, 5.264124
785.3351, 5.182652
785.8173, 5.339371
786.2994, 5.834869
786.7815, 6.668468
787.2636, 6.859095
787.7457, 6.053780
788.2278, 5.180576
788.7099, 4.933823
789.1920, 5.195547
789.6741, 5.505262
790.1563, 6.078672
790.6384, 6.264297
791.1205, 5.831760
791.6026, 5.196480
792.0847, 4.419872
792.5668, 3.689388
793.0490, 3.134953
793.5311, 2.806055
794.0132, 2.683453
794.4953, 2.846380
794.9774, 3.233862
795.4595, 3.946184
795.9417, 4.817446
796.4238, 4.788483
796.9059, 3.459923
797.3880, 1.963415
797.8701, 1.548271
798.3522, 2.177656
798.8344, 2.669346
799.3165, 3.078636
799.7986, 3.241014
800.2807, 2.812042
800.7628, 2.425510
801.2449, 2.644232
801.7271, 3.200994
802.2092, 3.292913
802.6913, 2.457573
803.1734, 1.836639
803.6555, 2.303329
804.1376, 3.076675
804.6198, 3.297144
805.1019, 3.054150
805.5840, 2.818020
806.0661, 2.794508
806.5482, 2.887165
807.0303, 3.013958
807.5125, 3.157835
807.9946, 3.149948
808.4767, 2.985659
808.9588, 2.666668
809.4409, 2.084846
809.9230, 1.525997
810.4052, 1.331099
810.8873, 1.504345
811.3694, 1.685446
811.8515, 1.913223
812.3336, 2.095011
812.8157, 2.167601
813.2979, 2.223854
813.7800, 2.393890
814.2621, 2.607840
814.7442, 2.637012
815.2263, 2.346306
815.7084, 2.054098
816.1906, 2.180775
816.6727, 2.493416
817.1548, 2.475908
817.6369, 2.134178
818.1190, 1.788759
818.6011, 1.579258
819.0833, 1.450499
819.5654, 1.316328
820.0475, 1.172424
820.5296, 1.145212
821.0117, 1.251955
821.4938, 1.444717
821.9760, 1.892193
822.4581, 2.260180
822.9402, 2.091249
823.4223, 1.556284
823.9044, 1.483765
824.3865, 2.607897
824.8687, 3.339586
825.3508, 2.680088
825.8329, 1.640337
826.3150, 1.135012
826.7971, 1.144297
827.2792, 1.335375
827.7614, 1.564373
828.2435, 1.756128
828.7256, 1.797840
829.2077, 1.725424
829.6898, 1.743759
830.1719, 1.856773
830.6541, 1.571053
831.1362, 0.5544720
831.6183, 0.3487450
832.1004, 1.0275000E-02
832.5825, 1.542013
833.0646, 2.356331
833.5468, 1.822014
834.0289, 1.484905
834.5110, 1.649019
834.9931, 1.940956
835.4752, 2.292295
835.9573, 2.565666
836.4395, 2.358501
836.9216, 1.295250
837.4037, 0.6723310
837.8858, 1.889900
838.3679, 3.334299
838.8500, 3.034451
839.3322, 1.545778
839.8143, 0.4981630
840.2964, 0.4633500
840.7785, 0.9496210
841.2606, 1.575377
841.7427, 2.223183
842.2249, 2.301018
842.7070, 1.774368
843.1891, 1.537004
843.6712, 1.878975
844.1533, 2.334253
844.6354, 2.579700
845.1176, 2.592907
845.5997, 2.247183
846.0818, 0.9064390
846.5639, 0.2277430
847.0460, 0.6734220
847.5281, 1.255875
848.0103, 1.577120
848.4924, 1.711237
848.9745, 1.761902
849.4566, 1.750164
849.9387, 1.859798
850.4208, 2.429722
850.9030, 2.861820
851.3851, 2.319693
851.8672, 1.309057
852.3493, 0.8713950
852.8314, 1.147840
853.3135, 1.488241
853.7957, 1.283882
854.2778, 0.8625700
854.7599, 1.239990
855.2420, 2.388683
855.7241, 2.806404
856.2062, 2.212250
856.6884, 1.475201
857.1705, 1.003267
857.6526, 0.8095550
858.1347, 0.8112470
858.6168, 1.005720
859.0989, 1.176586
859.5811, 1.280390
860.0632, 1.427628
860.5453, 1.899330
861.0274, 2.230942
861.5095, 1.713301
861.9916, 0.6067770
862.4738, 0.1760040
862.9559, 1.243267
863.4380, 2.339838
863.9201, 2.532677
864.4022, 2.221159
864.8843, 1.620796
865.3665, 0.9719240
865.8486, 0.9174940
866.3307, 1.697512
866.8128, 2.625978
867.2949, 2.815922
867.7770, 2.445297
868.2592, 2.189363
868.7413, 2.052025
869.2234, 1.707621
869.7055, 0.9759640
870.1876, 0.4108700
870.6697, 0.6082060
871.1518, 1.396475
871.6339, 1.801809
872.1160, 1.590853
872.5981, 1.444241
873.0803, 1.524992
873.5624, 1.527136
874.0445, 1.208975
874.5266, 0.7867930
875.0087, 0.6028520
875.4908, 0.7166960
875.9730, 0.7582070
876.4551, 0.3835770
876.9372, 0.1363050
877.4193, 0.4436300
877.9014, 1.032106
878.3835, 1.728245
878.8657, 2.349930
879.3478, 2.365990
879.8299, 1.326111
880.3120, 0.1944010
880.7941, 0.3187180
881.2762, 1.300640
881.7584, 1.970272
882.2405, 2.273329
882.7226, 2.396385
883.2047, 2.421242
883.6868, 2.289173
884.1689, 1.858723
884.6511, 1.151363
885.1332, 0.8221570
885.6153, 1.002150
886.0974, 1.209772
886.5795, 1.435081
887.0616, 1.551678
887.5438, 1.328253
888.0259, 0.9269500
888.5080, 0.8724730
888.9901, 1.440155
889.4722, 1.725899
889.9543, 1.353035
890.4365, 0.9440140
890.9186, 0.8374650
891.4007, 0.9458870
891.8828, 1.149044
892.3649, 1.399179
892.8470, 1.581148
893.3292, 1.548792
893.8113, 1.524035
894.2934, 1.993162
894.7755, 2.553793
895.2576, 2.299326
895.7397, 1.318987
896.2219, 0.4804710
896.7040, 0.2257120
897.1861, 0.3023200
897.6682, 0.3660600
898.1503, 0.4326320
898.6324, 0.6723610
899.1146, 1.102837
899.5967, 1.424431
900.0788, 1.525099
900.5609, 1.585882
901.0430, 1.848915
901.5251, 2.215971
902.0073, 2.024078
902.4894, 0.7061840
902.9715, 7.0880000E-03
903.4536, 0.2493670
903.9357, 0.8042700
904.4178, 1.651552
904.9000, 2.468792
905.3821, 2.828310
905.8642, 2.690037
906.3463, 2.195408
906.8284, 0.6180920
907.3105, 0.3914360
907.7927, 0.5313990
908.2748, 1.974947
908.7569, 2.576822
909.2390, 2.287865
909.7211, 1.510796
910.2032, 0.3077560
910.6854, 0.6216390
911.1675, 0.5045550
911.6496, 0.2260320
912.1317, 1.141335
912.6138, 2.029512
913.0959, 2.285576
913.5781, 1.752985
914.0602, 0.8732640
914.5423, 5.0416999E-02
915.0244, 0.8350090
915.5065, 0.8185620
915.9886, 6.8799998E-03
916.4708, 0.6759640
916.9529, 1.072975
917.4350, 1.313694
917.9171, 1.443958
918.3992, 1.491547
918.8813, 1.508739
919.3635, 1.503033
919.8456, 1.402719
920.3277, 1.112677
920.8098, 0.8851320
921.2919, 0.8926010
921.7740, 0.8723050
922.2562, 0.5782780
922.7383, 0.1104320
923.2204, 0.2472080
923.7025, 0.5205080
924.1846, 0.5314870
924.6667, 5.9041999E-02
925.1489, 0.6139050
925.6310, 0.6678200
926.1131, 0.4888080
926.5952, 0.4867060
927.0773, 0.6989770
927.5594, 0.8239840
928.0416, 0.5821780
928.5237, 0.3780140
929.0058, 0.7296310
929.4879, 1.282076
929.9700, 1.458775
930.4521, 1.281446
930.9343, 1.026653
931.4164, 0.8127460
931.8985, 0.7363590
932.3806, 1.011341
932.8627, 1.480112
933.3448, 1.559404
933.8270, 1.294266
934.3091, 1.202465
934.7912, 1.401001
935.2733, 1.727930
935.7554, 2.146526
936.2375, 2.420788
936.7197, 1.839853
937.2018, 5.7045002E-02
937.6839, 0.8699130
938.1660, 0.7192440
938.6481, 0.2426530
939.1302, 0.5916250
939.6124, 1.308531
940.0945, 1.247904
940.5766, 0.5394940
941.0587, 0.4172150
941.5408, 1.550570
942.0229, 2.221252
942.5051, 1.909451
942.9872, 1.602194
943.4693, 1.936695
943.9514, 2.485161
944.4335, 2.637901
944.9156, 2.327780
945.3978, 1.917686
945.8799, 1.492485
946.3620, 1.038269
946.8441, 0.2600460
947.3262, 0.3268850
947.8083, 2.2038000E-02
948.2905, 1.002945
948.7726, 1.751522
949.2547, 1.950089
949.7368, 1.923296
950.2189, 2.073975
950.7010, 2.060871
951.1832, 1.039436
951.6653, 0.4395290
952.1474, 0.9224640
952.6295, 0.2557870
953.1116, 0.5086100
953.5937, 0.6118720
954.0758, 0.6175290
954.5579, 1.736380
955.0400, 3.611521
955.5222, 4.203281
956.0043, 3.468386
956.4864, 2.502134
956.9685, 1.599009
957.4506, 1.185244
957.9327, 1.795855
958.4149, 3.096092
958.8970, 3.607546
959.3791, 3.170258
959.8612, 2.706385
960.3433, 2.136217
960.8254, 1.937140
961.3076, 2.486759
961.7897, 3.338465
962.2718, 3.966974
962.7539, 4.376448
963.2360, 4.339125
963.7181, 3.401199
964.2003, 2.717798
964.6824, 2.550642
965.1645, 2.477037
965.6466, 2.219473
966.1287, 1.959820
966.6108, 2.167023
967.0930, 2.969582
967.5751, 3.290054
968.0572, 2.243704
968.5393, 1.465302
969.0214, 2.110668
969.5035, 3.023088
969.9857, 2.944227
970.4678, 2.191597
970.9499, 1.779303
971.4320, 2.109743
971.9141, 2.415440
972.3962, 2.040766
972.8784, 1.592222
973.3605, 1.874447
973.8426, 2.483044
974.3247, 2.570942
974.8068, 2.120842
975.2889, 1.710032
975.7711, 1.660107
976.2532, 1.433359
976.7353, 1.616589
977.2174, 1.459602
977.6995, 1.583773
978.1816, 1.911423
978.6638, 2.110807
979.1459, 2.126116
979.6280, 2.111252
980.1101, 2.267414
980.5922, 2.473450
981.0743, 2.406775
981.5565, 2.136353
982.0386, 2.191418
982.5207, 2.626135
983.0028, 2.622696
983.4849, 1.823336
983.9670, 0.9309230
984.4492, 0.7262420
984.9313, 1.074396
985.4134, 1.364862
985.8955, 1.605497
986.3776, 1.744789
986.8597, 1.801714
987.3419, 1.620310
987.8240, 0.9782350
988.3061, 0.3410240
988.7882, 0.4482380
989.2703, 1.293413
989.7524, 1.695469
990.2346, 1.430389
990.7167, 1.212460
991.1988, 1.089605
991.6809, 1.091146
992.1630, 1.438551
992.6451, 1.815924
993.1273, 1.503325
993.6094, 0.3129250
994.0915, 0.1795310
994.5736, 0.6888260
995.0557, 1.345175
995.5378, 1.247408
996.0200, 1.073584
996.5021, 1.245855
996.9842, 1.667713
997.4663, 2.115862
997.9484, 2.595779
998.4305, 2.857611
998.9127, 2.842144
999.3948, 2.593573
999.8769, 1.872143
1000.359, 1.126593
1000.841, 0.8288520
1001.323, 0.8589970
1001.805, 0.7802620
1002.287, 0.4336800
1002.770, 0.2472920
1003.252, 0.6181810
1003.734, 1.037905
1004.216, 1.077578
1004.698, 0.9679890
1005.180, 1.064102
1005.662, 1.379576
1006.144, 1.575399
1006.627, 1.469072
1007.109, 1.321375
1007.591, 1.381639
1008.073, 1.488630
1008.555, 1.533155
1009.037, 1.448673
1009.519, 0.8623160
1010.001, 6.8874002E-02
1010.483, 0.4212070
1010.966, 0.3526000
1011.448, 1.378244
1011.930, 1.691921
1012.412, 1.533937
1012.894, 1.240150
1013.376, 0.9016820
1013.858, 0.6999550
1014.340, 0.6947670
1014.823, 1.046402
1015.305, 1.953749
1015.787, 2.793636
1016.269, 2.216240
1016.751, 0.7099670
1017.233, 0.2023330
1017.715, 0.6542190
1018.197, 1.202656
1018.679, 1.594320
1019.162, 1.776842
1019.644, 1.690269
1020.126, 1.427290
1020.608, 1.199083
1021.090, 0.9977400
1021.572, 0.6243630
1022.054, 5.8972999E-02
1022.536, 0.1570740
1023.018, 0.1825810
1023.501, 0.6165730
1023.983, 0.7199080
1024.465, 0.6252520
1024.947, 0.7754170
1025.429, 1.201330
1025.911, 1.547503
1026.393, 1.861437
1026.875, 1.655661
1027.358, 0.5242120
1027.840, 0.3807030
1028.322, 0.1925320
1028.804, 1.805096
1029.286, 2.594751
1029.768, 2.323589
1030.250, 2.278978
1030.732, 2.717117
1031.214, 2.699625
1031.697, 1.614162
1032.179, 0.4466170
1032.661, 0.2514950
1033.143, 0.8167690
1033.625, 1.054699
1034.107, 0.7920590
1034.589, 0.6500780
1035.071, 0.7738300
1035.553, 0.7375830
1036.036, 7.4017003E-02
1036.518, 0.4353240
1037.000, 0.2755430
1037.482, 1.889284
1037.964, 2.520859
1038.446, 1.500694
1038.928, 0.8000740
1039.410, 0.2366600
1039.893, 0.3129980
1040.375, 1.923279
1040.857, 3.476532
1041.339, 3.023689
1041.821, 1.037086
1042.303, 0.1178490
1042.785, 1.007172
1043.267, 1.639223
1043.750, 1.841408
1044.232, 1.833729
1044.714, 1.404156
1045.196, 1.010981
1045.678, 1.177387
1046.160, 1.787914
1046.642, 2.296000
1047.124, 2.782082
1047.606, 2.865513
1048.089, 2.026993
1048.571, 1.350943
1049.053, 1.494535
1049.535, 1.829287
1050.017, 1.506277
1050.499, 0.7875060
1050.981, 0.9337650
1051.463, 2.708319
1051.945, 3.800503
1052.428, 3.308594
1052.910, 2.632643
1053.392, 2.313881
1053.874, 2.188965
1054.356, 2.099327
1054.838, 2.030375
1055.320, 1.978760
1055.802, 1.889288
1056.285, 2.012156
1056.767, 2.688841
1057.249, 3.267382
1057.731, 3.541546
1058.213, 3.473732
1058.695, 2.731947
1059.177, 1.656672
1059.659, 1.313284
1060.141, 2.184721
1060.624, 2.640499
1061.106, 1.412498
1061.588, 0.4844670
1062.070, 1.234657
1062.552, 2.475298
1063.034, 3.166441
1063.516, 3.288530
1063.998, 3.055731
1064.480, 2.460361
1064.963, 1.989542
1065.445, 1.850111
1065.927, 1.867434
1066.409, 1.995239
1066.891, 2.195248
1067.373, 2.485100
1067.855, 2.797529
1068.337, 3.028885
1068.820, 3.213074
1069.302, 3.210335
1069.784, 2.740156
1070.266, 2.360468
1070.748, 2.472929
1071.230, 2.713791
1071.712, 2.631632
1072.194, 2.439743
1072.677, 2.733343
1073.159, 3.625364
1073.641, 4.287066
1074.123, 4.220491
1074.605, 4.010992
1075.087, 3.883698
1075.569, 3.811304
1076.051, 3.873161
1076.533, 3.920914
1077.016, 3.692860
1077.498, 3.189642
1077.980, 2.801182
1078.462, 2.847912
1078.944, 2.814978
1079.426, 2.088253
1079.908, 1.534334
1080.390, 2.164400
1080.872, 3.303322
1081.354, 3.844461
1081.837, 3.641741
1082.319, 3.169397
1082.801, 2.432611
1083.283, 1.797493
1083.765, 1.401136
1084.247, 1.205910
1084.729, 1.159113
1085.211, 1.311319
1085.694, 1.904985
1086.176, 2.833546
1086.658, 3.329536
1087.140, 3.045513
1087.622, 2.583052
1088.104, 2.091053
1088.586, 1.746679
1089.068, 1.852022
1089.551, 2.032682
1090.033, 1.746887
1090.515, 1.130424
1090.997, 0.8205260
1091.479, 1.054577
1091.961, 1.289183
1092.443, 1.292063
1092.925, 1.266455
1093.407, 1.465483
1093.890, 1.586267
1094.372, 1.016205
1094.854, 0.2102580
1095.336, 0.3916050
1095.818, 2.000216
1096.300, 2.703203
1096.782, 0.6134400
1097.264, 0.9986170
1097.746, 0.3547340
1098.229, 0.7938630
1098.711, 1.197065
1099.193, 1.006973
1099.675, 0.5226670
1100.157, 0.2082810
1100.639, 0.3514140
1101.121, 0.9392550
1101.603, 1.812744
1102.086, 1.376886
1102.568, 0.7981400
1103.050, 0.8758890
1103.532, 1.216570
1104.014, 1.156544
1104.496, 0.7072910
1104.978, 0.5455930
1105.460, 1.143656
1105.943, 1.428217
1106.425, 0.9780240
1106.907, 0.4896740
1107.389, 0.2712540
1107.871, 0.1694720
1108.353, 7.8208998E-02
1108.835, 0.3804930
1109.317, 0.2435050
1109.799, 0.7260060
1110.281, 1.248852
1110.764, 0.8783530
1111.246, 0.5219360
1111.728, 0.2880000
1112.210, 0.3002030
1112.692, 0.9227620
1113.174, 1.813681
1113.656, 2.046539
1114.138, 1.431894
1114.621, 1.011431
1115.103, 0.7563480
1115.585, 0.7616540
1116.067, 1.397970
1116.549, 1.819246
1117.031, 1.370853
1117.513, 0.5361290
1117.995, 8.4948003E-02
1118.478, 2.4243999E-02
1118.960, 2.5041999E-02
1119.442, 0.1541630
1119.924, 4.8161998E-02
1120.406, 0.4457700
1120.888, 0.9365500
1121.370, 1.348419
1121.852, 1.522017
1122.334, 1.171968
1122.817, 0.4475480
1123.299, 0.1954540
1123.781, 0.5503100
1124.263, 0.8305780
1124.745, 1.033689
1125.227, 1.084972
1125.709, 0.8993780
1126.191, 0.7767160
1126.673, 1.024681
1127.156, 1.398746
1127.638, 1.209015
1128.120, 0.4190500
1128.602, 0.2922690
1129.084, 0.9123420
1129.566, 1.308146
1130.048, 1.253447
1130.530, 1.317181
1131.013, 1.887951
1131.495, 2.415001
1131.977, 2.003813
1132.459, 0.8837030
1132.941, 8.8982001E-02
1133.423, 0.3755680
1133.905, 0.2360170
1134.387, 0.5013810
1134.870, 1.084238
1135.352, 1.215851
1135.834, 1.252502
1136.316, 1.584608
1136.798, 1.914120
1137.280, 1.352356
1137.762, 0.2806930
1138.244, 0.1252160
1138.726, 0.7976440
1139.208, 1.671318
1139.691, 2.502277
1140.173, 2.777348
1140.655, 2.124096
1141.137, 1.280182
1141.619, 1.215864
1142.101, 1.571205
1142.583, 1.963783
1143.065, 2.172081
1143.548, 1.353970
1144.030, 0.1398600
1144.512, 0.6192230
1144.994, 0.5181310
1145.476, 1.740404
1145.958, 1.827003
1146.440, 1.422020
1146.922, 0.9548950
1147.405, 0.5485400
1147.887, 0.4322810
1148.369, 0.4758780
1148.851, 0.3276750
1149.333, 1.5060000E-02
1149.815, 8.8790998E-02
1150.297, 0.4748020
1150.779, 0.9341220
1151.261, 0.7103940
1151.744, 0.3797760
1152.226, 0.2608990
1152.708, 0.3510440
1153.190, 0.8146440
1153.672, 1.437918
1154.154, 1.520271
1154.636, 0.7659720
1155.118, 0.4105970
1155.600, 1.571857
1156.083, 2.415136
1156.565, 2.135353
1157.047, 1.457739
1157.529, 0.4288330
1158.011, 0.4302830
1158.493, 4.1048001E-02
1158.975, 1.640917
1159.457, 2.556990
1159.939, 1.900434
1160.422, 1.603756
1160.904, 2.125311
1161.386, 2.431072
1161.868, 2.049561
1162.350, 1.448711
1162.832, 0.9763010
1163.314, 0.6510620
1163.796, 0.5642990
1164.279, 0.7620450
1164.761, 0.9365560
1165.243, 1.036407
1165.725, 1.341724
1166.207, 2.033176
1166.689, 2.419209
1167.171, 2.045765
1167.653, 1.485817
1168.135, 1.589943
1168.618, 2.169436
1169.100, 2.068874
1169.582, 1.300724
1170.064, 0.8283710
1170.546, 0.7310350
1171.028, 0.7917120
1171.510, 0.9387510
1171.992, 1.089787
1172.474, 1.183161
1172.957, 1.218948
1173.439, 1.167187
1173.921, 1.067430
1174.403, 1.117744
1174.885, 1.234032
1175.367, 0.8682480
1175.849, 0.1310520
1176.331, 3.7149001E-02
1176.814, 0.7430040
1177.296, 1.514688
1177.778, 1.329569
1178.260, 0.8809530
1178.742, 1.027683
1179.224, 1.361069
1179.706, 1.302059
1180.188, 0.9869190
1180.671, 0.6858330
1181.153, 0.5196670
1181.635, 0.7636340
1182.117, 1.730938
1182.599, 2.412441
1183.081, 2.028399
1183.563, 1.468924
1184.045, 1.131161
1184.527, 1.024887
1185.010, 1.216364
1185.492, 1.602180
1185.974, 2.045641
1186.456, 2.550829
1186.938, 2.655727
1187.420, 1.851240
1187.902, 1.300589
1188.384, 1.423382
1188.866, 1.540844
1189.349, 1.179813
1189.831, 0.8537670
1190.313, 1.239107
1190.795, 2.076077
1191.277, 2.275845
1191.759, 1.664911
1192.241, 1.365774
1192.723, 1.397934
1193.206, 1.669546
1193.688, 2.298475
1194.170, 2.597027
1194.652, 2.114309
1195.134, 1.287291
1195.616, 0.8248370
1196.098, 0.7089270
1196.580, 0.8687800
1197.063, 1.263992
1197.545, 1.475264
1198.027, 1.496464
1198.509, 1.660213
1198.991, 2.032589
1199.473, 2.172443
1199.955, 1.757824
1200.437, 1.119699
1200.919, 0.5268690
1201.401, 0.1156160
1201.884, 0.1659300
1202.366, 0.5040720
1202.848, 1.009747
1203.330, 1.539612
1203.812, 1.964531
1204.294, 2.233063
1204.776, 2.275612
1205.258, 2.010738
1205.741, 1.589466
1206.223, 0.8328250
1206.705, 0.2540950
1207.187, 0.2784860
1207.669, 0.6818600
1208.151, 1.430048
1208.633, 2.271000
1209.115, 2.521889
1209.598, 1.947453
1210.080, 1.538006
1210.562, 1.470764
1211.044, 1.579985
1211.526, 2.009609
1212.008, 2.388659
1212.490, 2.547064
1212.972, 2.557079
1213.454, 2.400789
1213.937, 2.190088
1214.419, 2.607130
1214.901, 3.995247
1215.383, 4.128551
1215.865, 2.716852
1216.347, 1.589708
1216.829, 1.109756
1217.311, 1.162346
1217.793, 1.751965
1218.276, 2.315704
1218.758, 2.045366
1219.240, 1.238934
1219.722, 0.5554620
1220.204, 8.8137001E-02
1220.686, 0.3837530
1221.168, 1.230150
1221.650, 1.687479
1222.133, 1.568033
1222.615, 1.253431
1223.097, 0.9261460
1223.579, 0.8920420
1224.061, 1.870329
1224.543, 2.804556
1225.025, 2.483232
1225.507, 1.664993
1225.990, 1.056423
1226.472, 0.7740650
1226.954, 0.9407370
1227.436, 1.505831
1227.918, 1.933935
1228.400, 2.106022
1228.882, 2.014048
1229.364, 1.226660
1229.846, 0.7352490
1230.328, 1.428642
1230.811, 2.036575
1231.293, 1.341522
1231.775, 9.6607000E-02
1232.257, 0.2759930
1232.739, 0.2181280
1233.221, 0.7837850
1233.703, 1.511278
1234.185, 1.890081
1234.668, 1.835348
1235.150, 1.702250
1235.632, 1.610010
1236.114, 1.383160
1236.596, 0.8237570
1237.078, 0.3699340
1237.560, 1.039948
1238.042, 0.9076730
1238.525, 1.284666
1239.007, 1.820295
1239.489, 2.008410
1239.971, 2.862494
1240.453, 3.021080
1240.935, 2.168343
1241.417, 1.280926
1241.899, 0.8511710
1242.381, 0.9530030
1242.864, 2.186726
1243.346, 3.375088
1243.828, 3.451319
1244.310, 3.020084
1244.792, 2.631788
1245.274, 2.379906
1245.756, 2.284237
1246.238, 2.345392
1246.720, 2.593637
1247.203, 3.397640
1247.685, 3.774149
1248.167, 3.383160
1248.649, 2.971151
1249.131, 2.720184
1249.613, 2.622934
1250.095, 2.843351
1250.577, 2.947123
1251.059, 1.907787
1251.542, 9.6731000E-02
1252.024, 0.8101730
1252.506, 0.2434860
1252.988, 0.3442630
1253.470, 0.8380570
1253.952, 1.238426
1254.434, 1.550516
1254.916, 1.881838
1255.399, 2.330797
1255.881, 2.598660
1256.363, 2.071419
1256.845, 2.308676
1257.327, 1.431366
1257.809, 1.784433
1258.291, 1.302071
1258.773, 0.3558880
1259.255, 0.2316720
1259.738, 1.013508
1260.220, 1.755571
1260.702, 2.205223
1261.184, 2.359474
1261.666, 1.994381
1262.148, 1.646822
1262.630, 1.503902
1263.112, 1.482529
1263.594, 1.582458
1264.077, 1.718710
1264.559, 1.804934
1265.041, 1.820221
1265.523, 1.538662
1266.005, 0.8728010
1266.487, 0.3490350
1266.969, 7.0134997E-02
1267.451, 0.3960320
1267.934, 1.970350
1268.416, 2.984068
1268.898, 2.309624
1269.380, 1.482441
1269.862, 1.400637
1270.344, 1.670183
1270.826, 1.648743
1271.308, 1.426231
1271.791, 1.038069
1272.273, 0.6189960
1272.755, 0.4867000
1273.237, 0.6707610
1273.719, 1.333294
1274.201, 2.597809
1274.683, 3.177477
1275.165, 1.642971
1275.647, 0.5449450
1276.130, 1.255430
1276.612, 2.134689
1277.094, 1.925192
1277.576, 1.245359
1278.058, 0.6834470
1278.540, 0.2667030
1279.022, 2.4018999E-02
1279.504, 4.2351000E-02
1279.986, 0.5165940
1280.469, 1.849155
1280.951, 2.709976
1281.433, 2.922592
1281.915, 2.559364
1282.397, 1.448683
1282.879, 0.5640350
1283.361, 0.1211810
1283.843, 1.2440000E-03
1284.326, 3.5014998E-02
1284.808, 0.0000000E+00
##END=



