##NAMES=Orthoserpierite
##RRUFFID=R060977
##IDEAL CHEMISTRY=CaCu^2+^_4_(S^6+^O_4_)_2_(OH)_6_&#183;3H_2_O
##LOCALITY=Copper Creek, Galuiro Mountains, Pinal County, Arizona, USA
##OWNER=RRUFF
##SOURCE=Michael Scott
##DESCRIPTION=Blue-green platy crystals in masses with chrysocolla
##STATUS=The identification of this mineral has been confirmed only by X-ray diffraction
##URL=rruff.info/R060977
112.8500, 0.0000000E+00
113.3321, 2.898491
113.8142, 13.88863
114.2963, 23.02901
114.7784, 23.23695
115.2605, 14.66874
115.7427, 13.77295
116.2248, 28.08279
116.7069, 39.63268
117.1890, 42.59403
117.6711, 40.58537
118.1532, 40.40176
118.6354, 34.26408
119.1175, 28.95561
119.5996, 26.94375
120.0817, 33.71404
120.5638, 38.23396
121.0459, 33.35003
121.5281, 20.26076
122.0102, 5.950546
122.4923, 3.464615
122.9744, 7.683060
123.4565, 5.250160
123.9386, 7.982994
124.4208, 24.16135
124.9029, 37.48232
125.3850, 47.40112
125.8671, 57.79799
126.3492, 73.28524
126.8313, 95.34588
127.3135, 117.3399
127.7956, 137.2115
128.2777, 157.9452
128.7598, 182.7428
129.2419, 212.5618
129.7240, 245.2206
130.2061, 280.3576
130.6883, 319.7115
131.1704, 349.8013
131.6525, 368.3462
132.1346, 376.1702
132.6167, 373.7164
133.0988, 360.2854
133.5810, 338.8944
134.0631, 310.7556
134.5452, 275.6799
135.0273, 242.5089
135.5094, 214.9829
135.9915, 191.6884
136.4737, 168.9341
136.9558, 145.3010
137.4379, 123.2465
137.9200, 105.3946
138.4021, 91.64359
138.8842, 81.07246
139.3664, 73.18720
139.8485, 68.07912
140.3306, 66.53753
140.8127, 69.96931
141.2948, 76.13484
141.7769, 82.74466
142.2591, 89.88300
142.7412, 96.34792
143.2233, 100.6850
143.7054, 103.0428
144.1875, 106.3435
144.6696, 112.6745
145.1517, 119.0934
145.6339, 121.6255
146.1160, 119.5158
146.5981, 119.6122
147.0802, 131.3266
147.5623, 156.1384
148.0444, 175.5341
148.5266, 179.5245
149.0087, 178.0318
149.4908, 176.8639
149.9729, 177.1206
150.4550, 176.5992
150.9371, 173.0542
151.4193, 166.5713
151.9014, 156.6678
152.3835, 135.7164
152.8656, 115.8448
153.3477, 106.5585
153.8298, 110.3285
154.3120, 119.5487
154.7941, 123.3384
155.2762, 119.8036
155.7583, 116.3559
156.2404, 113.6520
156.7225, 111.8563
157.2047, 111.3665
157.6868, 112.2940
158.1689, 113.9389
158.6510, 115.2444
159.1331, 116.4018
159.6152, 116.6985
160.0974, 115.8204
160.5795, 114.3139
161.0616, 112.0160
161.5437, 108.9135
162.0258, 106.3251
162.5079, 107.4414
162.9901, 116.4028
163.4722, 121.2988
163.9543, 120.3343
164.4364, 115.7492
164.9185, 108.5443
165.4007, 99.15314
165.8828, 89.09398
166.3649, 81.64063
166.8470, 78.63283
167.3291, 75.88470
167.8112, 73.14657
168.2933, 70.08701
168.7755, 65.26894
169.2576, 58.22215
169.7397, 51.20560
170.2218, 49.98643
170.7039, 62.39862
171.1860, 68.77573
171.6682, 63.28168
172.1503, 53.72524
172.6324, 47.72765
173.1145, 48.40852
173.5966, 53.19234
174.0787, 56.01185
174.5609, 57.57138
175.0430, 55.70964
175.5251, 46.85822
176.0072, 36.14148
176.4893, 29.03049
176.9714, 27.72613
177.4536, 30.00946
177.9357, 30.54110
178.4178, 28.06173
178.8999, 25.12706
179.3820, 20.73968
179.8641, 16.37740
180.3463, 14.17753
180.8284, 15.00597
181.3105, 16.98289
181.7926, 14.94877
182.2747, 0.8945310
182.7568, 9.438904
183.2390, 5.174362
183.7211, 4.419121
184.2032, 11.58867
184.6853, 13.36774
185.1674, 11.56296
185.6495, 10.15894
186.1317, 8.190781
186.6138, 8.494614
187.0959, 10.40867
187.5780, 13.63709
188.0601, 20.51428
188.5422, 31.57169
189.0244, 42.86934
189.5065, 45.97746
189.9886, 31.97401
190.4707, 21.55592
190.9528, 16.13805
191.4349, 14.01508
191.9170, 14.19576
192.3992, 16.29582
192.8813, 18.93799
193.3634, 19.45928
193.8455, 15.21542
194.3276, 12.91783
194.8097, 14.51848
195.2919, 17.32613
195.7740, 18.38679
196.2561, 16.83508
196.7382, 14.22591
197.2203, 13.20004
197.7024, 15.48112
198.1846, 16.31931
198.6667, 14.03359
199.1488, 11.08145
199.6309, 9.267067
200.1130, 8.981346
200.5951, 11.16646
201.0773, 17.70708
201.5594, 34.12988
202.0415, 42.82938
202.5236, 38.26056
203.0057, 28.98502
203.4878, 21.98116
203.9700, 18.94565
204.4521, 18.45973
204.9342, 18.94463
205.4163, 21.35824
205.8984, 22.10844
206.3805, 19.81214
206.8627, 16.73741
207.3448, 14.40238
207.8269, 13.15817
208.3090, 13.16489
208.7911, 15.14552
209.2732, 20.73602
209.7554, 21.63499
210.2375, 12.82138
210.7196, 3.035988
211.2017, 0.5278020
211.6838, 2.483551
212.1659, 6.689056
212.6480, 6.007164
213.1302, 1.465714
213.6123, 1.839539
214.0944, 10.84877
214.5765, 24.71300
215.0586, 32.68890
215.5407, 34.52185
216.0229, 33.53810
216.5050, 32.68404
216.9871, 32.29999
217.4692, 30.87083
217.9513, 27.61333
218.4334, 24.16219
218.9156, 22.09678
219.3977, 20.89186
219.8798, 17.78896
220.3619, 9.634514
220.8440, 3.675690
221.3261, 7.400963
221.8083, 8.494240
222.2904, 22.24943
222.7725, 22.20930
223.2546, 12.30216
223.7367, 3.224861
224.2188, 2.121826
224.7010, 8.633598
225.1831, 14.36223
225.6652, 23.20670
226.1473, 27.37798
226.6294, 20.09449
227.1115, 6.524010
227.5937, 2.771088
228.0758, 1.467796
228.5579, 8.147957
229.0400, 14.34091
229.5221, 13.79202
230.0042, 13.94418
230.4864, 17.88362
230.9685, 22.99767
231.4506, 25.11974
231.9327, 22.21738
232.4148, 15.86340
232.8969, 10.83760
233.3791, 5.829056
233.8612, 4.646652
234.3433, 10.89368
234.8254, 19.19905
235.3075, 22.80268
235.7896, 19.33150
236.2717, 12.79111
236.7539, 11.40575
237.2360, 22.74904
237.7181, 28.57269
238.2002, 24.72581
238.6823, 17.84423
239.1644, 13.44470
239.6466, 12.96136
240.1287, 14.70051
240.6108, 16.06237
241.0929, 17.33664
241.5750, 18.70583
242.0571, 23.31837
242.5393, 25.72676
243.0214, 18.72299
243.5035, 3.386497
243.9856, 10.28147
244.4677, 9.729431
244.9498, 10.48910
245.4320, 23.58579
245.9141, 27.46842
246.3962, 27.38698
246.8783, 24.07821
247.3604, 18.70061
247.8425, 13.25720
248.3247, 8.988960
248.8068, 5.745178
249.2889, 7.510040
249.7710, 23.41338
250.2531, 35.35286
250.7352, 35.74526
251.2174, 27.70299
251.6995, 18.29002
252.1816, 12.33088
252.6637, 9.664101
253.1458, 9.036201
253.6279, 13.10499
254.1101, 16.17145
254.5922, 17.46826
255.0743, 16.96989
255.5564, 14.01562
256.0385, 8.043053
256.5206, 0.6862110
257.0027, 0.9947430
257.4849, 7.619659
257.9670, 14.25639
258.4491, 16.61643
258.9312, 16.28517
259.4133, 14.31366
259.8954, 11.04198
260.3776, 7.450508
260.8597, 5.042076
261.3418, 3.672981
261.8239, 4.021507
262.3060, 8.338882
262.7881, 12.92130
263.2703, 15.03699
263.7524, 14.21603
264.2345, 12.55971
264.7166, 12.20814
265.1987, 12.39404
265.6808, 12.32297
266.1630, 12.81769
266.6451, 12.83966
267.1272, 10.90317
267.6093, 7.459488
268.0914, 5.293839
268.5735, 8.736183
269.0557, 16.75926
269.5378, 18.57268
270.0199, 9.261551
270.5020, 0.4610060
270.9841, 4.240669
271.4662, 3.453522
271.9484, 1.985126
272.4305, 2.748123
272.9126, 4.224449
273.3947, 1.711536
273.8768, 6.546730
274.3589, 14.14287
274.8411, 16.47002
275.3232, 15.84780
275.8053, 15.65837
276.2874, 17.70469
276.7695, 19.85712
277.2516, 18.57070
277.7338, 13.45496
278.2159, 10.13757
278.6980, 13.72244
279.1801, 19.29272
279.6622, 18.76004
280.1443, 7.609745
280.6265, 2.526848
281.1086, 1.452934
281.5907, 8.760132
282.0728, 17.61263
282.5549, 22.19712
283.0370, 23.02383
283.5192, 20.26041
284.0013, 13.04217
284.4834, 7.227253
284.9655, 5.316540
285.4476, 6.015324
285.9297, 7.676010
286.4119, 10.04195
286.8940, 12.62314
287.3761, 14.88469
287.8582, 16.61748
288.3403, 17.67864
288.8224, 19.54105
289.3046, 19.79140
289.7867, 14.22915
290.2688, 3.075043
290.7509, 6.729107
291.2330, 9.153107
291.7151, 3.837276
292.1972, 0.8816830
292.6794, 6.108047
293.1615, 9.773045
293.6436, 10.00994
294.1257, 7.713440
294.6078, 5.358570
295.0899, 4.366203
295.5721, 4.534824
296.0542, 4.855442
296.5363, 4.253338
297.0184, 5.108723
297.5005, 10.51235
297.9826, 16.76985
298.4648, 18.70406
298.9469, 14.29637
299.4290, 7.149796
299.9111, 3.997208
300.3932, 7.464695
300.8753, 11.08413
301.3575, 16.53289
301.8396, 20.46768
302.3217, 20.04522
302.8038, 15.96084
303.2859, 12.06195
303.7680, 14.35398
304.2502, 25.40052
304.7323, 29.30169
305.2144, 18.10352
305.6965, 7.271271
306.1786, 3.002365
306.6607, 3.996807
307.1429, 5.693443
307.6250, 4.595844
308.1071, 1.480080
308.5892, 1.477856
309.0713, 7.567730
309.5534, 12.19190
310.0356, 10.80983
310.5177, 7.601833
310.9998, 8.913784
311.4819, 18.50770
311.9640, 29.61589
312.4461, 28.57517
312.9283, 11.13618
313.4104, 0.7013510
313.8925, 12.77632
314.3746, 29.19753
314.8567, 35.62039
315.3388, 29.90276
315.8210, 20.89871
316.3031, 14.58070
316.7852, 10.87790
317.2673, 9.657486
317.7494, 11.94678
318.2315, 15.17819
318.7137, 17.35418
319.1958, 18.53967
319.6779, 18.73233
320.1600, 18.52898
320.6421, 17.09572
321.1242, 11.06526
321.6064, 0.5495260
322.0885, 7.880249
322.5706, 1.312214
323.0527, 15.90019
323.5348, 27.20832
324.0169, 29.76229
324.4991, 28.14742
324.9812, 22.76924
325.4633, 15.14232
325.9454, 10.13389
326.4275, 10.36655
326.9096, 14.45480
327.3918, 18.66485
327.8739, 25.51424
328.3560, 28.76995
328.8381, 23.76833
329.3202, 16.43544
329.8023, 13.79279
330.2845, 17.04282
330.7666, 22.01640
331.2487, 23.34660
331.7308, 19.46939
332.2129, 17.15896
332.6950, 17.27195
333.1772, 17.96501
333.6593, 18.56014
334.1414, 18.87445
334.6235, 18.49525
335.1056, 16.69028
335.5877, 13.91077
336.0698, 15.48759
336.5519, 28.85448
337.0341, 37.78027
337.5162, 37.08094
337.9983, 31.12308
338.4804, 24.70143
338.9625, 20.23142
339.4446, 17.26184
339.9268, 14.48067
340.4089, 11.97940
340.8910, 9.363995
341.3731, 4.704128
341.8552, 1.268471
342.3373, 2.669937
342.8195, 8.652431
343.3016, 13.68079
343.7837, 10.92368
344.2658, 2.118023
344.7479, 0.3253250
345.2300, 10.48657
345.7122, 20.45028
346.1943, 20.95657
346.6764, 15.19672
347.1585, 10.35265
347.6406, 9.467327
348.1227, 10.29747
348.6049, 9.271095
349.0870, 6.809570
349.5691, 6.353230
350.0512, 10.01242
350.5333, 16.08747
351.0154, 20.85506
351.4976, 24.44190
351.9797, 26.54166
352.4618, 27.62816
352.9439, 26.98911
353.4260, 22.24880
353.9081, 12.38364
354.3903, 1.705231
354.8724, 4.252708
355.3545, 4.324154
355.8366, 2.361851
356.3187, 3.866844
356.8008, 10.34225
357.2830, 14.24969
357.7651, 15.69788
358.2472, 16.75024
358.7293, 18.94847
359.2114, 21.93229
359.6935, 22.11324
360.1757, 16.81997
360.6578, 11.66662
361.1399, 5.007877
361.6220, 7.2319001E-02
362.1041, 1.607738
362.5862, 11.70734
363.0684, 24.10571
363.5505, 27.57435
364.0326, 18.32991
364.5147, 11.75881
364.9968, 10.75728
365.4789, 11.23779
365.9611, 11.75047
366.4432, 12.02755
366.9253, 11.76487
367.4074, 9.150131
367.8895, 5.336315
368.3716, 6.511021
368.8538, 15.24078
369.3359, 23.38552
369.8180, 26.49569
370.3001, 26.39719
370.7822, 25.31071
371.2643, 23.44067
371.7465, 21.18122
372.2286, 17.80067
372.7107, 13.56534
373.1928, 10.20320
373.6749, 8.098145
374.1570, 7.373775
374.6392, 9.182735
375.1213, 14.25663
375.6034, 16.58517
376.0855, 10.36916
376.5676, 2.850132
377.0497, 4.538120
377.5319, 15.74599
378.0140, 25.18144
378.4961, 22.56402
378.9782, 7.893196
379.4603, 1.523594
379.9424, 3.249493
380.4246, 3.011719
380.9066, 2.520153
381.3888, 1.980080
381.8709, 0.5914730
382.3530, 2.000633
382.8351, 4.594971
383.3172, 4.227612
383.7993, 2.788982
384.2815, 5.032703
384.7636, 3.388496
385.2457, 11.58732
385.7278, 11.62576
386.2099, 4.355091
386.6920, 2.994907
387.1742, 4.111637
387.6563, 0.1090280
388.1384, 3.103680
388.6205, 4.618179
389.1026, 5.293690
389.5847, 4.492569
390.0669, 3.365284
390.5490, 3.755173
391.0311, 6.818966
391.5132, 9.915333
391.9953, 8.753807
392.4774, 4.226051
392.9596, 4.828953
393.4417, 15.83909
393.9238, 28.32491
394.4059, 29.57899
394.8880, 19.69839
395.3701, 10.71659
395.8523, 5.028164
396.3344, 2.086285
396.8165, 2.623859
397.2986, 6.118759
397.7807, 8.334480
398.2628, 5.199451
398.7450, 1.745724
399.2271, 0.3197250
399.7092, 24.34735
400.1913, 40.55767
400.6734, 36.43721
401.1555, 23.65450
401.6377, 16.88652
402.1198, 20.35274
402.6019, 27.15612
403.0840, 26.42276
403.5661, 13.36515
404.0482, 9.184391
404.5304, 23.98305
405.0125, 38.16811
405.4946, 44.15794
405.9767, 43.18198
406.4588, 39.29706
406.9409, 34.13194
407.4231, 28.46429
407.9052, 23.16176
408.3873, 17.08949
408.8694, 16.21490
409.3515, 28.15725
409.8336, 43.02403
410.3158, 50.80630
410.7979, 50.16624
411.2800, 46.19097
411.7621, 39.87268
412.2442, 32.68931
412.7263, 27.68195
413.2085, 25.83300
413.6906, 25.64544
414.1727, 26.29560
414.6548, 27.48262
415.1369, 27.77063
415.6190, 26.21989
416.1012, 24.71521
416.5833, 24.86288
417.0654, 25.64918
417.5475, 24.51941
418.0296, 20.30721
418.5117, 15.18652
418.9939, 13.30099
419.4760, 15.29856
419.9581, 19.47068
420.4402, 29.11972
420.9223, 37.78865
421.4044, 41.38404
421.8866, 40.38931
422.3687, 37.23748
422.8508, 32.19253
423.3329, 27.19445
423.8150, 33.19365
424.2971, 58.74484
424.7793, 75.81163
425.2614, 69.32833
425.7435, 53.10837
426.2256, 37.79399
426.7077, 24.94612
427.1898, 17.58009
427.6719, 22.53658
428.1541, 35.29732
428.6362, 40.13211
429.1183, 33.18667
429.6004, 23.49249
430.0825, 18.01153
430.5646, 16.64754
431.0468, 17.60690
431.5289, 24.97900
432.0110, 31.16998
432.4931, 30.45895
432.9752, 25.35465
433.4573, 21.62008
433.9395, 21.65059
434.4216, 24.01255
434.9037, 26.08756
435.3858, 27.94203
435.8679, 29.31282
436.3500, 29.31293
436.8322, 29.65162
437.3143, 31.68472
437.7964, 34.92638
438.2785, 37.96148
438.7606, 39.89534
439.2427, 40.65642
439.7249, 39.53501
440.2070, 35.18552
440.6891, 32.13579
441.1712, 34.23565
441.6533, 36.63255
442.1354, 33.83754
442.6176, 25.28966
443.0997, 19.06110
443.5818, 22.78747
444.0639, 32.86057
444.5460, 40.53646
445.0281, 44.95470
445.5103, 47.36687
445.9924, 46.64229
446.4745, 43.61456
446.9566, 42.42144
447.4387, 45.54638
447.9208, 47.72829
448.4030, 46.06921
448.8851, 42.36700
449.3672, 39.68726
449.8493, 38.94455
450.3314, 38.56303
450.8135, 36.14299
451.2957, 30.63232
451.7778, 27.36914
452.2599, 26.80919
452.7420, 27.90117
453.2241, 33.09625
453.7062, 39.23574
454.1884, 40.05500
454.6705, 31.51521
455.1526, 19.48644
455.6347, 15.75296
456.1168, 21.80019
456.5989, 24.60658
457.0811, 18.47963
457.5632, 11.05997
458.0453, 10.38624
458.5274, 15.69317
459.0095, 18.35450
459.4916, 10.42895
459.9738, 0.7494850
460.4559, 0.9432680
460.9380, 10.47354
461.4201, 21.54884
461.9022, 31.32095
462.3843, 38.37960
462.8665, 38.11278
463.3486, 24.24145
463.8307, 13.73901
464.3128, 7.569225
464.7949, 6.077812
465.2770, 12.63439
465.7592, 25.09420
466.2413, 34.63907
466.7234, 33.29323
467.2055, 22.86681
467.6876, 18.49451
468.1697, 25.21766
468.6519, 29.64107
469.1340, 26.01297
469.6161, 19.90423
470.0982, 16.07580
470.5803, 15.69909
471.0624, 17.98169
471.5445, 24.69119
472.0266, 33.65465
472.5088, 37.33384
472.9909, 34.24280
473.4730, 29.30238
473.9551, 25.37210
474.4372, 22.47335
474.9193, 20.18706
475.4015, 18.42179
475.8836, 17.37315
476.3657, 17.03319
476.8478, 17.48278
477.3299, 19.88152
477.8120, 24.24053
478.2942, 27.02975
478.7763, 23.19939
479.2584, 11.15861
479.7405, 5.203140
480.2226, 13.28693
480.7047, 19.01220
481.1869, 14.86304
481.6690, 6.740314
482.1511, 3.585354
482.6332, 8.936275
483.1153, 16.88022
483.5974, 19.41167
484.0796, 16.87307
484.5617, 16.98092
485.0438, 23.21653
485.5259, 28.04636
486.0080, 23.23199
486.4901, 11.19995
486.9723, 1.544968
487.4544, 4.246048
487.9365, 5.872349
488.4186, 0.7411310
488.9007, 8.607285
489.3828, 16.18605
489.8650, 19.87159
490.3471, 21.91705
490.8292, 25.99334
491.3113, 34.04446
491.7934, 37.01825
492.2755, 30.96795
492.7577, 24.63433
493.2398, 21.24371
493.7219, 20.17943
494.2040, 20.15913
494.6861, 20.77477
495.1682, 21.00282
495.6504, 18.17474
496.1325, 11.86160
496.6146, 9.366497
497.0967, 13.14316
497.5788, 18.41738
498.0609, 23.24533
498.5431, 27.14089
499.0252, 27.54174
499.5073, 18.36622
499.9894, 9.379654
500.4715, 11.05920
500.9536, 19.48786
501.4358, 22.23074
501.9179, 13.29955
502.4000, 0.4219860
502.8821, 4.420681
503.3642, 1.432713
503.8463, 7.464066
504.3285, 15.92573
504.8106, 22.29546
505.2927, 23.44448
505.7748, 21.12670
506.2569, 18.65364
506.7390, 17.56702
507.2212, 17.25786
507.7033, 17.04707
508.1854, 17.03918
508.6675, 15.34331
509.1496, 9.296970
509.6317, 4.670448
510.1139, 7.910240
510.5960, 16.97713
511.0781, 23.56222
511.5602, 23.84401
512.0423, 22.33689
512.5244, 22.22843
513.0065, 23.06944
513.4886, 23.92628
513.9708, 24.66060
514.4529, 24.46552
514.9350, 21.01289
515.4171, 12.39968
515.8992, 7.340286
516.3813, 6.683506
516.8635, 8.240746
517.3456, 13.08490
517.8277, 19.09230
518.3098, 23.11741
518.7919, 23.82516
519.2740, 22.35236
519.7562, 20.30438
520.2383, 17.65953
520.7204, 12.81742
521.2025, 3.905704
521.6846, 4.199196
522.1667, 7.740522
522.6489, 7.259756
523.1310, 3.538876
523.6131, 9.001156
524.0952, 18.82607
524.5773, 17.44786
525.0594, 9.469452
525.5416, 2.599720
526.0237, 0.9543880
526.5058, 2.047550
526.9879, 1.465611
527.4700, 0.9507830
527.9521, 3.380440
528.4343, 6.833275
528.9164, 9.070431
529.3985, 8.690002
529.8806, 7.191322
530.3627, 6.352154
530.8448, 6.672962
531.3270, 7.504250
531.8091, 8.762325
532.2912, 10.08867
532.7733, 9.365669
533.2554, 5.720818
533.7375, 3.408966
534.2197, 5.656509
534.7018, 11.49652
535.1839, 16.79932
535.6660, 23.71510
536.1481, 26.97369
536.6302, 21.51412
537.1124, 13.78786
537.5945, 11.53284
538.0766, 15.04515
538.5587, 18.32393
539.0408, 15.92350
539.5229, 9.115402
540.0051, 6.550617
540.4872, 10.18532
540.9693, 14.08410
541.4514, 20.09954
541.9335, 23.56931
542.4156, 17.91423
542.8978, 3.499229
543.3799, 7.347574
543.8620, 6.390150
544.3441, 1.302032
544.8262, 10.94180
545.3083, 21.44632
545.7905, 26.80635
546.2726, 23.51498
546.7547, 15.88075
547.2368, 13.40362
547.7189, 20.67390
548.2010, 23.37861
548.6832, 18.07411
549.1653, 11.56418
549.6474, 6.607288
550.1295, 3.573105
550.6116, 2.360039
551.0938, 3.020267
551.5759, 5.000099
552.0580, 8.564129
552.5401, 13.94541
553.0222, 14.27281
553.5043, 5.304810
553.9865, 3.890743
554.4686, 3.744120
554.9507, 2.895531
555.4328, 6.403870
555.9149, 1.495235
556.3970, 2.721298
556.8792, 0.6581460
557.3613, 7.156292
557.8434, 7.960499
558.3255, 1.454582
558.8076, 4.335888
559.2897, 0.1176610
559.7719, 14.81909
560.2540, 23.00965
560.7361, 21.26859
561.2182, 17.54660
561.7003, 10.62993
562.1824, 4.269665
562.6646, 3.108910
563.1467, 7.868454
563.6288, 12.46390
564.1109, 11.41739
564.5930, 8.031612
565.0751, 9.192421
565.5573, 14.94100
566.0394, 18.36190
566.5215, 14.90659
567.0036, 8.384335
567.4857, 7.893696
567.9678, 18.87801
568.4500, 25.93951
568.9321, 28.57694
569.4142, 27.79141
569.8963, 22.56730
570.3784, 14.52635
570.8605, 6.321983
571.3427, 1.106213
571.8248, 5.962595
572.3069, 3.918005
572.7890, 4.988281
573.2711, 12.36163
573.7532, 17.44733
574.2354, 19.49910
574.7175, 15.63799
575.1996, 7.605579
575.6817, 3.720631
576.1638, 9.231117
576.6459, 13.68089
577.1281, 9.393974
577.6102, 3.192768
578.0923, 6.404545
578.5744, 19.75412
579.0565, 31.86215
579.5386, 31.01781
580.0208, 19.28673
580.5029, 12.58670
580.9850, 13.09672
581.4671, 14.65319
581.9492, 15.04312
582.4313, 15.66802
582.9134, 18.81292
583.3955, 24.35170
583.8776, 26.80942
584.3597, 20.40974
584.8419, 12.55111
585.3240, 11.03185
585.8061, 14.86178
586.2882, 20.35619
586.7703, 26.20784
587.2524, 31.27090
587.7346, 33.67647
588.2167, 33.01756
588.6988, 31.35999
589.1809, 25.78997
589.6630, 22.42204
590.1451, 26.62398
590.6273, 32.88576
591.1094, 32.36221
591.5915, 22.03366
592.0736, 11.34547
592.5557, 9.596569
593.0378, 13.49440
593.5200, 14.58204
594.0021, 12.02609
594.4842, 9.781715
594.9663, 10.52647
595.4484, 13.06781
595.9305, 13.65609
596.4127, 8.826313
596.8948, 7.539532
597.3769, 12.62351
597.8590, 18.91026
598.3411, 24.80825
598.8232, 29.02159
599.3054, 29.06829
599.7875, 22.96819
600.2696, 14.62797
600.7517, 9.749844
601.2338, 7.467209
601.7159, 6.937134
602.1981, 8.640591
602.6802, 11.03154
603.1623, 13.28280
603.6444, 15.43179
604.1265, 18.80806
604.6086, 26.25182
605.0908, 31.90121
605.5729, 34.83830
606.0550, 34.92754
606.5371, 29.58727
607.0192, 20.42597
607.5013, 14.66520
607.9835, 18.74154
608.4656, 29.01004
608.9477, 34.84487
609.4298, 35.78928
609.9119, 34.95884
610.3940, 32.48939
610.8762, 29.24629
611.3583, 24.78294
611.8404, 19.27216
612.3225, 17.95485
612.8046, 27.53121
613.2867, 35.37106
613.7689, 32.68003
614.2510, 24.85920
614.7331, 20.94078
615.2152, 22.69246
615.6973, 26.72771
616.1794, 30.23280
616.6616, 33.26058
617.1437, 33.87470
617.6258, 29.69148
618.1079, 27.13245
618.5900, 30.43501
619.0721, 34.34409
619.5543, 33.06627
620.0364, 26.64039
620.5185, 20.46878
621.0006, 12.72694
621.4827, 7.963757
621.9648, 11.63281
622.4470, 20.32518
622.9291, 27.56269
623.4112, 30.98150
623.8933, 30.24002
624.3754, 23.29802
624.8575, 9.858757
625.3397, 4.556301
625.8218, 10.72280
626.3039, 18.89379
626.7860, 30.31823
627.2681, 39.32770
627.7502, 37.41178
628.2324, 23.15250
628.7145, 13.09823
629.1966, 19.23296
629.6787, 28.18319
630.1608, 26.14013
630.6429, 16.55190
631.1251, 10.71254
631.6072, 13.28678
632.0893, 19.52925
632.5714, 22.31207
633.0535, 21.11217
633.5356, 20.92915
634.0178, 23.32135
634.4999, 24.31815
634.9820, 21.29072
635.4641, 16.70573
635.9462, 13.23305
636.4283, 11.23831
636.9105, 10.24910
637.3926, 10.46406
637.8747, 11.26861
638.3568, 11.98753
638.8389, 12.68689
639.3210, 13.82186
639.8032, 15.60071
640.2853, 17.72330
640.7674, 19.97073
641.2495, 22.85090
641.7316, 23.07706
642.2137, 16.92715
642.6959, 13.76678
643.1780, 21.30046
643.6601, 31.94296
644.1422, 35.19659
644.6243, 28.61325
645.1064, 21.97028
645.5886, 19.84084
646.0707, 20.02723
646.5528, 20.07182
647.0349, 20.21785
647.5170, 22.54924
647.9991, 28.15337
648.4813, 34.19221
648.9634, 35.66150
649.4455, 31.63313
649.9276, 28.42606
650.4097, 27.14372
650.8918, 24.97779
651.3740, 18.12996
651.8561, 10.89542
652.3382, 9.853508
652.8203, 17.01338
653.3024, 22.49800
653.7845, 20.67514
654.2667, 16.29947
654.7488, 12.91268
655.2309, 11.21461
655.7130, 13.39684
656.1951, 20.46990
656.6772, 27.01253
657.1594, 21.92401
657.6415, 2.722546
658.1236, 2.819031
658.6057, 15.06713
659.0878, 28.76027
659.5699, 20.52522
660.0521, 4.196220
660.5342, 4.848778
661.0163, 5.424442
661.4984, 0.6033590
661.9805, 16.87700
662.4626, 32.45748
662.9448, 30.00550
663.4269, 16.24063
663.9090, 7.988956
664.3911, 11.82708
664.8732, 20.53360
665.3553, 25.42740
665.8375, 26.52985
666.3196, 23.13585
666.8017, 12.91401
667.2838, 4.658997
667.7659, 2.372051
668.2480, 3.937553
668.7302, 6.258404
669.2123, 9.373257
669.6944, 12.88332
670.1765, 18.49462
670.6586, 22.70525
671.1407, 22.58660
671.6229, 19.81177
672.1050, 17.90614
672.5870, 17.69514
673.0692, 15.87668
673.5513, 5.705051
674.0334, 9.540943
674.5155, 9.922838
674.9976, 7.304779
675.4797, 20.63276
675.9619, 21.91959
676.4440, 16.17849
676.9261, 8.473206
677.4082, 2.173777
677.8903, 6.572216
678.3724, 4.7233999E-02
678.8546, 7.704250
679.3367, 15.26064
679.8188, 20.34737
680.3009, 18.86055
680.7830, 11.05962
681.2651, 3.277420
681.7473, 0.4921230
682.2294, 1.239910
682.7115, 2.683826
683.1936, 4.818489
683.6757, 7.868351
684.1578, 12.13464
684.6400, 16.35347
685.1221, 19.04806
685.6042, 20.19555
686.0863, 21.69305
686.5684, 26.37430
687.0505, 27.67868
687.5327, 21.21458
688.0148, 13.62426
688.4969, 10.87594
688.9790, 12.53251
689.4611, 13.74284
689.9432, 11.27295
690.4254, 8.295094
690.9075, 7.739323
691.3896, 9.427292
691.8717, 13.67960
692.3538, 20.38901
692.8359, 26.84338
693.3181, 30.96745
693.8002, 32.82336
694.2823, 32.61755
694.7644, 29.60442
695.2465, 26.21202
695.7286, 21.21903
696.2108, 17.44472
696.6929, 18.46263
697.1750, 21.81190
697.6571, 20.17934
698.1392, 6.863266
698.6213, 1.151794
699.1035, 12.40390
699.5856, 31.66525
700.0677, 36.62630
700.5498, 28.11283
701.0319, 18.20517
701.5140, 13.47035
701.9962, 12.20470
702.4783, 11.96568
702.9604, 12.89233
703.4425, 11.23743
703.9246, 5.102245
704.4067, 0.6993160
704.8889, 2.399063
705.3710, 7.609306
705.8531, 10.48912
706.3352, 10.09919
706.8173, 10.57819
707.2994, 12.51735
707.7816, 15.45926
708.2637, 19.48117
708.7458, 24.64242
709.2279, 31.54343
709.7100, 39.29097
710.1921, 43.29272
710.6743, 37.07838
711.1564, 25.10191
711.6385, 19.44738
712.1206, 20.00461
712.6027, 19.13444
713.0848, 13.50525
713.5670, 7.461227
714.0491, 7.376747
714.5312, 13.78098
715.0133, 20.34329
715.4954, 33.98039
715.9775, 38.09252
716.4597, 20.49368
716.9418, 0.8168890
717.4239, 9.656326
717.9060, 6.080444
718.3881, 0.8863410
718.8702, 1.235680
719.3524, 4.206974
719.8345, 13.79788
720.3166, 24.97722
720.7987, 26.79544
721.2808, 18.58435
721.7629, 10.81926
722.2451, 11.80710
722.7272, 18.89867
723.2093, 25.47534
723.6914, 32.51693
724.1735, 31.64057
724.6556, 16.33334
725.1378, 2.752649
725.6199, 4.349154
726.1020, 16.29559
726.5841, 22.28587
727.0662, 18.01302
727.5483, 16.15013
728.0305, 21.32940
728.5126, 27.53369
728.9947, 31.32477
729.4768, 32.71761
729.9589, 32.91177
730.4410, 32.39325
730.9232, 29.50650
731.4053, 19.09704
731.8874, 5.237976
732.3695, 0.9447350
732.8516, 6.859108
733.3337, 16.02292
733.8159, 26.62694
734.2980, 35.46048
734.7801, 37.56924
735.2622, 32.21117
735.7443, 25.92155
736.2264, 17.49823
736.7086, 11.25197
737.1907, 9.423601
737.6728, 9.355759
738.1549, 7.712715
738.6370, 4.947666
739.1191, 6.404600
739.6013, 18.84130
740.0834, 30.51117
740.5655, 34.53863
741.0476, 34.12351
741.5297, 33.73895
742.0118, 33.79449
742.4940, 31.50497
742.9761, 24.23584
743.4582, 15.57737
743.9403, 14.51062
744.4224, 20.13125
744.9045, 20.13650
745.3867, 11.03101
745.8688, 5.208797
746.3509, 12.43909
746.8330, 27.50526
747.3151, 35.31518
747.7972, 31.68178
748.2794, 29.15099
748.7615, 27.60126
749.2436, 27.23029
749.7257, 30.74413
750.2078, 34.37844
750.6899, 31.53732
751.1721, 21.13607
751.6542, 11.90515
752.1363, 8.823833
752.6184, 10.85339
753.1005, 20.38052
753.5826, 33.65891
754.0648, 41.73471
754.5469, 42.08130
755.0290, 37.82001
755.5111, 30.81117
755.9932, 22.58913
756.4753, 21.07089
756.9575, 27.74082
757.4396, 31.92873
757.9217, 30.32618
758.4038, 27.86544
758.8859, 29.47775
759.3680, 34.32467
759.8502, 36.55970
760.3323, 33.98209
760.8144, 32.18130
761.2965, 31.54818
761.7786, 31.91503
762.2607, 34.51745
762.7428, 37.74095
763.2249, 38.38998
763.7070, 35.25103
764.1891, 30.51318
764.6713, 26.49520
765.1534, 21.47824
765.6355, 9.721325
766.1176, 5.771851
766.5997, 13.02292
767.0818, 7.436491
767.5640, 4.272537
768.0461, 15.54269
768.5282, 25.70658
769.0103, 25.28452
769.4924, 11.07404
769.9745, 0.4809210
770.4567, 1.593580
770.9388, 1.792755
771.4209, 9.963501
771.9030, 22.34138
772.3851, 27.66837
772.8672, 20.07250
773.3494, 13.88435
773.8315, 10.29286
774.3136, 9.844341
774.7957, 15.82397
775.2778, 24.38540
775.7599, 27.50645
776.2421, 20.58877
776.7242, 13.53961
777.2063, 15.84374
777.6884, 21.67924
778.1705, 22.07827
778.6526, 17.82890
779.1348, 14.60692
779.6169, 14.82122
780.0990, 16.99571
780.5811, 19.42299
781.0632, 22.18239
781.5453, 25.18757
782.0275, 28.80300
782.5096, 29.58808
782.9917, 25.15863
783.4738, 19.88845
783.9559, 18.84674
784.4380, 21.88444
784.9202, 22.85985
785.4023, 18.99735
785.8844, 17.02334
786.3665, 19.52264
786.8486, 22.51111
787.3307, 23.17050
787.8129, 22.06930
788.2950, 21.09310
788.7771, 20.78396
789.2592, 20.80655
789.7413, 20.93773
790.2234, 21.29791
790.7056, 22.80333
791.1877, 24.63969
791.6698, 23.44316
792.1519, 18.21515
792.6340, 14.65196
793.1161, 22.24745
793.5983, 36.96879
794.0804, 39.07434
794.5625, 28.31917
795.0446, 21.78373
795.5267, 25.40478
796.0089, 29.95789
796.4910, 25.13037
796.9731, 3.191132
797.4552, 16.64401
797.9373, 27.77802
798.4194, 30.67844
798.9016, 0.6852250
799.3837, 13.16679
799.8658, 8.626099
800.3479, 3.503317
800.8300, 22.22456
801.3121, 2.855267
801.7943, 15.22930
802.2764, 16.09641
802.7585, 25.12011
803.2406, 16.79392
803.7227, 13.66618
804.2048, 27.67088
804.6870, 32.18884
805.1691, 13.04898
805.6512, 7.396982
806.1333, 1.536472
806.6154, 9.187073
807.0975, 25.34937
807.5797, 26.56485
808.0618, 8.517918
808.5439, 6.332069
809.0260, 0.3827060
809.5081, 21.37393
809.9902, 34.65245
810.4724, 39.67256
810.9545, 40.09385
811.4366, 34.92163
811.9187, 27.76144
812.4008, 18.75994
812.8829, 9.990606
813.3651, 5.996983
813.8472, 8.381382
814.3293, 8.667534
814.8114, 2.363609
815.2935, 0.1636770
815.7756, 5.565834
816.2578, 14.82231
816.7399, 23.60358
817.2220, 30.72375
817.7041, 33.93023
818.1862, 29.46482
818.6683, 24.90207
819.1505, 27.34066
819.6326, 31.89020
820.1147, 30.20986
820.5968, 23.91216
821.0789, 22.93735
821.5610, 32.54979
822.0432, 43.12081
822.5253, 40.31866
823.0074, 27.51778
823.4895, 17.52290
823.9716, 10.34788
824.4537, 5.384880
824.9359, 3.082766
825.4180, 5.398069
825.9001, 15.41176
826.3822, 31.87309
826.8643, 37.23986
827.3464, 26.73994
827.8286, 17.43189
828.3107, 8.480206
828.7928, 6.302753
829.2749, 22.29062
829.7570, 47.79622
830.2391, 56.09006
830.7213, 36.96058
831.2034, 23.46107
831.6855, 24.49233
832.1676, 27.07069
832.6497, 23.38994
833.1318, 17.70991
833.6140, 16.66524
834.0961, 21.21373
834.5782, 26.63183
835.0603, 32.49762
835.5424, 36.03573
836.0245, 34.44672
836.5067, 29.17726
836.9888, 20.90495
837.4709, 10.93840
837.9530, 2.884993
838.4351, 1.224876
838.9172, 1.310022
839.3994, 5.467236
839.8815, 16.62971
840.3636, 20.13820
840.8457, 15.55134
841.3278, 13.20365
841.8099, 17.79207
842.2921, 24.30188
842.7742, 25.78684
843.2563, 22.47034
843.7384, 21.39162
844.2205, 23.57435
844.7026, 24.78864
845.1848, 23.94829
845.6669, 22.15575
846.1490, 19.68531
846.6311, 16.95823
847.1132, 15.85336
847.5953, 17.47353
848.0775, 18.60516
848.5596, 19.16531
849.0417, 19.15279
849.5238, 16.55857
850.0059, 14.40744
850.4880, 19.34472
850.9702, 31.86345
851.4523, 36.99780
851.9343, 19.67504
852.4164, 3.105280
852.8986, 4.655302
853.3807, 13.71319
853.8628, 15.79325
854.3449, 11.30248
854.8270, 11.08936
855.3091, 22.75120
855.7913, 34.07208
856.2734, 29.53011
856.7555, 15.70171
857.2376, 5.017193
857.7197, 1.599667
858.2018, 3.924578
858.6840, 1.660677
859.1661, 0.7924080
859.6482, 0.7378770
860.1303, 4.679922
860.6124, 1.137739
861.0945, 10.48505
861.5767, 14.36142
862.0588, 5.400032
862.5409, 2.193905
863.0230, 2.511715
863.5051, 14.68215
863.9872, 20.96131
864.4694, 19.28879
864.9515, 18.33355
865.4336, 19.70443
865.9157, 19.15536
866.3978, 11.73436
866.8799, 4.186844
867.3621, 3.432549
867.8442, 9.253368
868.3263, 14.58661
868.8084, 21.17212
869.2905, 24.23848
869.7726, 19.79983
870.2548, 14.16334
870.7369, 13.06385
871.2190, 14.14462
871.7011, 9.816170
872.1832, 3.707199
872.6653, 10.26589
873.1475, 7.199858
873.6296, 26.54768
874.1117, 26.52938
874.5938, 16.36623
875.0759, 12.28992
875.5580, 16.17735
876.0402, 20.98960
876.5223, 22.04905
877.0044, 22.90364
877.4865, 30.78658
877.9686, 41.04257
878.4507, 42.86638
878.9329, 36.19160
879.4150, 25.24497
879.8971, 11.88924
880.3792, 2.352983
880.8613, 7.716263
881.3434, 23.74868
881.8256, 26.97516
882.3077, 17.48324
882.7898, 10.90386
883.2719, 10.88869
883.7540, 15.07474
884.2361, 22.65297
884.7183, 31.35939
885.2004, 33.68159
885.6825, 27.83615
886.1646, 23.05751
886.6467, 19.76158
887.1288, 16.97361
887.6110, 13.33477
888.0931, 11.13035
888.5752, 14.95373
889.0573, 25.28160
889.5394, 28.41482
890.0215, 14.29031
890.5037, 7.184395
890.9858, 15.83267
891.4679, 25.98435
891.9500, 27.58357
892.4321, 24.67528
892.9142, 26.98325
893.3964, 38.26838
893.8785, 44.07848
894.3606, 37.39507
894.8427, 28.28532
895.3248, 19.74571
895.8069, 12.88116
896.2891, 7.499142
896.7712, 4.444387
897.2533, 7.555073
897.7354, 23.25893
898.2175, 34.74516
898.6996, 25.34995
899.1818, 9.804440
899.6639, 1.694540
900.1460, 1.829510
900.6281, 12.12351
901.1102, 31.65397
901.5923, 45.09328
902.0745, 34.34772
902.5566, 14.46064
903.0387, 6.847908
903.5208, 8.696640
904.0029, 15.67857
904.4850, 25.43448
904.9672, 29.48035
905.4493, 22.43308
905.9314, 12.74931
906.4135, 14.85347
906.8956, 24.98983
907.3777, 23.91438
907.8599, 12.26446
908.3420, 7.552956
908.8241, 15.22996
909.3062, 25.93211
909.7883, 31.59468
910.2704, 32.90380
910.7526, 31.94652
911.2347, 28.65859
911.7168, 22.87828
912.1989, 13.19577
912.6810, 7.380871
913.1631, 10.19852
913.6453, 16.34728
914.1274, 18.76713
914.6095, 17.44316
915.0916, 12.96169
915.5737, 1.601532
916.0558, 4.468540
916.5380, 0.5208090
917.0201, 5.760197
917.5022, 10.12916
917.9843, 12.46609
918.4664, 12.69562
918.9485, 8.052570
919.4307, 9.367874
919.9128, 26.87793
920.3949, 36.97975
920.8770, 27.81225
921.3591, 13.60329
921.8412, 4.872452
922.3234, 2.133720
922.8055, 5.361233
923.2876, 21.75961
923.7697, 29.89164
924.2518, 17.18576
924.7339, 3.386814
925.2161, 0.7917520
925.6982, 1.326054
926.1803, 5.982948
926.6624, 11.92487
927.1445, 14.67383
927.6266, 8.792576
928.1088, 3.839039
928.5909, 5.875000
929.0730, 10.18099
929.5551, 12.75755
930.0372, 13.41970
930.5193, 13.80629
931.0015, 15.49897
931.4836, 14.31210
931.9657, 2.445644
932.4478, 8.194447
932.9299, 4.698507
933.4120, 6.862106
933.8942, 19.84686
934.3763, 31.24634
934.8584, 35.47034
935.3405, 29.08995
935.8226, 20.95275
936.3047, 21.92828
936.7869, 26.07763
937.2690, 21.13739
937.7511, 11.05052
938.2332, 9.941856
938.7153, 19.55883
939.1974, 26.60726
939.6796, 20.74759
940.1617, 9.156662
940.6438, 2.385010
941.1259, 0.2585110
941.6080, 0.1138760
942.0901, 2.281998
942.5722, 3.851105
943.0543, 3.562000
943.5364, 5.911160
944.0186, 17.49393
944.5007, 32.37067
944.9828, 29.86171
945.4649, 12.32065
945.9470, 2.901218
946.4291, 4.457207
946.9113, 11.41833
947.3934, 21.90781
947.8755, 29.82166
948.3576, 24.93101
948.8397, 9.320301
949.3218, 0.3276330
949.8040, 1.972443
950.2861, 3.201122
950.7682, 18.00578
951.2503, 28.79140
951.7324, 26.12505
952.2145, 15.64736
952.6967, 8.357948
953.1788, 4.328285
953.6609, 2.677986
954.1430, 4.152836
954.6251, 4.860107
955.1072, 2.841091
955.5894, 1.997433
956.0715, 7.107800
956.5536, 15.80852
957.0357, 20.27191
957.5178, 19.24127
957.9999, 18.64247
958.4821, 19.72084
958.9642, 18.22399
959.4463, 11.19359
959.9284, 3.188206
960.4105, 2.021107
960.8926, 4.252296
961.3748, 1.647049
961.8569, 11.11408
962.3390, 15.77631
962.8211, 5.179142
963.3032, 3.515459
963.7853, 2.668613
964.2675, 2.930069
964.7496, 7.817986
965.2317, 12.02942
965.7138, 17.31141
966.1959, 29.04484
966.6780, 33.46764
967.1602, 21.14838
967.6423, 11.03204
968.1244, 16.07938
968.6065, 26.66344
969.0886, 27.59224
969.5707, 17.71320
970.0529, 12.55041
970.5350, 16.50080
971.0171, 20.45591
971.4992, 23.39764
971.9813, 25.72961
972.4634, 27.42176
972.9456, 28.78612
973.4277, 31.17202
973.9098, 35.07581
974.3919, 34.51174
974.8740, 21.44570
975.3561, 12.88008
975.8383, 15.97781
976.3204, 23.05566
976.8025, 29.30184
977.2846, 34.57068
977.7667, 39.68871
978.2488, 44.93185
978.7310, 49.10345
979.2131, 47.81376
979.6952, 50.60940
980.1773, 68.54127
980.6594, 86.22417
981.1415, 85.60245
981.6237, 73.06055
982.1058, 70.39457
982.5879, 85.27240
983.0700, 97.76261
983.5521, 95.37991
984.0342, 95.95271
984.5164, 110.7322
984.9985, 131.1430
985.4806, 147.6061
985.9627, 160.8963
986.4448, 178.9477
986.9269, 209.3486
987.4091, 227.5806
987.8912, 213.9763
988.3733, 197.5657
988.8554, 197.7472
989.3375, 203.5589
989.8196, 198.8958
990.3018, 184.4640
990.7839, 175.0383
991.2660, 177.5866
991.7481, 178.6920
992.2302, 173.2849
992.7123, 164.1443
993.1945, 150.6528
993.6766, 136.0715
994.1587, 123.4864
994.6408, 113.7036
995.1229, 107.9557
995.6050, 108.4756
996.0872, 109.0639
996.5693, 108.9190
997.0514, 105.7582
997.5335, 95.17101
998.0156, 81.99160
998.4977, 74.13071
998.9799, 72.20960
999.4620, 67.01082
999.9441, 50.29456
1000.426, 36.93602
1000.908, 37.28113
1001.390, 41.04126
1001.873, 43.09539
1002.355, 41.63190
1002.837, 31.29963
1003.319, 14.27978
1003.801, 6.352564
1004.283, 22.02343
1004.765, 34.38266
1005.247, 25.20674
1005.729, 12.67798
1006.212, 10.72540
1006.694, 15.72252
1007.176, 21.69694
1007.658, 26.99819
1008.140, 29.87391
1008.622, 27.56609
1009.104, 25.56775
1009.586, 28.99982
1010.069, 31.29389
1010.551, 26.05916
1011.033, 16.61640
1011.515, 7.092152
1011.997, 1.118134
1012.479, 3.975893
1012.961, 4.097240
1013.443, 11.94376
1013.925, 15.00403
1014.408, 15.69930
1014.890, 13.98436
1015.372, 12.10648
1015.854, 14.57140
1016.336, 21.35829
1016.818, 24.68179
1017.300, 20.28459
1017.782, 14.09203
1018.265, 3.825588
1018.747, 3.043739
1019.229, 3.220776
1019.711, 14.85131
1020.193, 19.07711
1020.675, 14.69835
1021.157, 11.09007
1021.639, 12.75894
1022.121, 14.32819
1022.604, 14.42173
1023.086, 13.03762
1023.568, 8.155388
1024.050, 2.885529
1024.532, 1.705490
1025.014, 5.001926
1025.496, 9.666706
1025.978, 20.05593
1026.460, 24.23470
1026.943, 12.74293
1027.425, 1.007915
1027.907, 2.100805
1028.389, 0.4878120
1028.871, 4.599777
1029.353, 9.777325
1029.835, 16.00865
1030.317, 29.85143
1030.800, 34.98578
1031.282, 20.44508
1031.764, 5.494175
1032.246, 1.108475
1032.728, 1.491608
1033.210, 2.959068
1033.692, 11.51546
1034.174, 17.32638
1034.656, 19.57213
1035.139, 19.21200
1035.621, 14.03481
1036.103, 8.973248
1036.585, 4.851528
1037.067, 2.918297
1037.549, 4.922333
1038.031, 10.64977
1038.513, 17.48932
1038.995, 33.77428
1039.478, 37.35905
1039.960, 12.60949
1040.442, 4.218916
1040.924, 6.513012
1041.406, 24.93647
1041.888, 31.14256
1042.370, 26.83826
1042.852, 22.55391
1043.335, 18.48318
1043.817, 13.72050
1044.299, 5.666519
1044.781, 2.132927
1045.263, 9.490345
1045.745, 16.73689
1046.227, 10.55303
1046.709, 3.558113
1047.192, 1.443787
1047.674, 25.45153
1048.156, 39.09967
1048.638, 35.24397
1049.120, 29.63330
1049.602, 26.35204
1050.084, 23.70218
1050.566, 19.54940
1051.048, 15.76402
1051.531, 19.47521
1052.013, 33.27595
1052.495, 32.67765
1052.977, 13.60395
1053.459, 3.251545
1053.941, 10.20740
1054.423, 19.55849
1054.905, 21.00330
1055.387, 15.97244
1055.870, 5.074806
1056.352, 11.27042
1056.834, 15.02988
1057.316, 5.977062
1057.798, 4.327065
1058.280, 13.66865
1058.762, 18.69099
1059.244, 17.17079
1059.727, 11.26634
1060.209, 1.948257
1060.691, 8.388704
1061.173, 6.021107
1061.655, 6.868561
1062.137, 16.08795
1062.619, 19.40399
1063.101, 18.89911
1063.583, 15.49134
1064.066, 14.68713
1064.548, 27.07094
1065.030, 43.23974
1065.512, 37.11348
1065.994, 17.85343
1066.476, 13.66823
1066.958, 24.04167
1067.440, 30.16644
1067.922, 25.01725
1068.405, 17.10627
1068.887, 13.15475
1069.369, 11.68462
1069.851, 10.57914
1070.333, 10.37160
1070.815, 13.95124
1071.297, 19.17408
1071.779, 21.04840
1072.262, 18.49189
1072.744, 14.71191
1073.226, 11.08346
1073.708, 8.307705
1074.190, 7.683994
1074.672, 7.616642
1075.154, 5.516743
1075.636, 3.194408
1076.118, 4.121910
1076.601, 8.112514
1077.083, 12.74804
1077.565, 17.36776
1078.047, 20.17310
1078.529, 19.48129
1079.011, 17.62096
1079.493, 14.72217
1079.975, 12.51279
1080.458, 13.67927
1080.940, 17.27177
1081.422, 19.24963
1081.904, 18.28307
1082.386, 17.53516
1082.868, 16.63225
1083.350, 17.45291
1083.832, 23.47041
1084.314, 28.87057
1084.797, 28.21243
1085.279, 23.60246
1085.761, 19.99092
1086.243, 17.79098
1086.725, 17.14863
1087.207, 18.27875
1087.689, 20.72078
1088.171, 26.44643
1088.653, 30.24775
1089.136, 28.41386
1089.618, 23.89936
1090.100, 20.89096
1090.582, 19.45479
1091.064, 19.74524
1091.546, 22.85326
1092.028, 21.60629
1092.510, 13.76223
1092.993, 7.984970
1093.475, 7.942352
1093.957, 11.65988
1094.439, 17.75265
1094.921, 24.75516
1095.403, 27.65456
1095.885, 26.57277
1096.367, 20.21672
1096.849, 9.096203
1097.332, 3.222855
1097.814, 5.538979
1098.296, 11.52522
1098.778, 19.12685
1099.260, 25.92872
1099.742, 28.50161
1100.224, 27.48802
1100.706, 23.12247
1101.188, 16.93791
1101.671, 12.29599
1102.153, 10.57773
1102.635, 15.90155
1103.117, 30.63798
1103.599, 42.72303
1104.081, 38.76096
1104.563, 27.88289
1105.045, 18.14582
1105.528, 11.58906
1106.010, 12.62894
1106.492, 18.77667
1106.974, 21.42105
1107.456, 18.38425
1107.938, 15.15764
1108.420, 14.92308
1108.902, 14.81939
1109.385, 13.24240
1109.867, 11.37431
1110.349, 8.250950
1110.831, 6.525627
1111.313, 12.56560
1111.795, 24.90763
1112.277, 28.90404
1112.759, 13.62689
1113.241, 6.552124
1113.724, 20.69222
1114.206, 30.78386
1114.688, 25.69844
1115.170, 16.84315
1115.652, 9.675812
1116.134, 5.879398
1116.616, 13.03640
1117.098, 35.75282
1117.580, 43.10922
1118.063, 29.35098
1118.545, 17.02242
1119.027, 10.01026
1119.509, 9.809605
1119.991, 18.10381
1120.473, 29.51486
1120.955, 36.43038
1121.437, 39.07692
1121.920, 38.81674
1122.402, 35.65705
1122.884, 28.05492
1123.366, 15.87254
1123.848, 8.117638
1124.330, 8.091396
1124.812, 16.95255
1125.294, 38.88906
1125.776, 60.27788
1126.259, 53.01743
1126.741, 31.19468
1127.223, 22.05887
1127.705, 24.74205
1128.187, 36.24716
1128.669, 52.92471
1129.151, 64.83896
1129.633, 67.44486
1130.115, 63.39132
1130.598, 48.11921
1131.080, 34.39880
1131.562, 35.18975
1132.044, 41.10443
1132.526, 42.49318
1133.008, 39.80105
1133.490, 35.33603
1133.972, 29.66153
1134.455, 27.99691
1134.937, 34.90261
1135.419, 41.39035
1135.901, 47.90492
1136.383, 50.50599
1136.865, 42.36835
1137.347, 32.86079
1137.829, 34.65713
1138.312, 44.63821
1138.794, 47.04642
1139.276, 39.04856
1139.758, 32.19498
1140.240, 25.70828
1140.722, 23.62235
1141.204, 28.84266
1141.686, 31.24127
1142.168, 22.76090
1142.651, 11.28494
1143.133, 10.81715
1143.615, 19.34198
1144.097, 24.85993
1144.579, 27.66053
1145.061, 30.47035
1145.543, 33.69745
1146.025, 37.58759
1146.507, 42.18061
1146.990, 42.22110
1147.472, 31.20083
1147.954, 17.58296
1148.436, 13.77051
1148.918, 14.61626
1149.400, 12.23915
1149.882, 8.263237
1150.364, 7.116302
1150.847, 8.815285
1151.329, 10.28857
1151.811, 10.59432
1152.293, 9.446369
1152.775, 1.397038
1153.257, 2.979897
1153.739, 5.218632
1154.221, 15.90841
1154.703, 21.51391
1155.186, 23.08791
1155.668, 23.35816
1156.150, 22.53630
1156.632, 20.27008
1157.114, 15.06795
1157.596, 11.17570
1158.078, 7.330257
1158.560, 8.085236
1159.042, 16.68951
1159.525, 27.31299
1160.007, 36.09559
1160.489, 41.18725
1160.971, 36.89362
1161.453, 23.42007
1161.935, 8.037525
1162.417, 8.824739
1162.899, 12.19173
1163.382, 0.5044420
1163.864, 11.79572
1164.346, 17.87913
1164.828, 19.12060
1165.310, 14.32635
1165.792, 9.759338
1166.274, 18.57921
1166.756, 31.97080
1167.238, 35.18861
1167.721, 30.70468
1168.203, 24.90212
1168.685, 19.92500
1169.167, 17.61447
1169.649, 18.78687
1170.131, 21.68918
1170.613, 31.30423
1171.095, 35.00654
1171.578, 17.24273
1172.060, 0.6237660
1172.542, 3.556456
1173.024, 19.62290
1173.506, 25.25019
1173.988, 19.37645
1174.470, 14.61691
1174.952, 10.59750
1175.434, 8.448862
1175.917, 7.642366
1176.399, 11.16806
1176.881, 21.67324
1177.363, 31.51031
1177.845, 34.39148
1178.327, 31.33724
1178.809, 22.72802
1179.291, 9.865147
1179.773, 0.2212350
1180.256, 5.572824
1180.738, 1.977146
1181.220, 9.769625
1181.702, 16.66554
1182.184, 13.14026
1182.666, 9.695667
1183.148, 15.96460
1183.630, 23.78434
1184.113, 24.41770
1184.595, 24.11841
1185.077, 33.47582
1185.559, 44.08213
1186.041, 38.87712
1186.523, 21.71779
1187.005, 16.37711
1187.487, 33.12466
1187.969, 40.33421
1188.452, 22.58932
1188.934, 8.035133
1189.416, 2.622917
1189.898, 2.853661
1190.380, 9.531185
1190.862, 17.80559
1191.344, 21.22240
1191.826, 20.65049
1192.308, 21.03580
1192.791, 22.50231
1193.273, 22.77166
1193.755, 21.74760
1194.237, 19.29353
1194.719, 15.56181
1195.201, 15.55079
1195.683, 22.51599
1196.165, 29.92366
1196.648, 29.32323
1197.130, 24.76760
1197.612, 22.30383
1198.094, 20.38858
1198.576, 15.12727
1199.058, 8.932426
1199.540, 7.147066
1200.022, 10.72198
1200.505, 18.78163
1200.987, 36.59330
1201.469, 43.56158
1201.951, 22.37800
1202.433, 2.955053
1202.915, 1.135502
1203.397, 0.2023600
1203.879, 1.880442
1204.361, 3.785694
1204.844, 1.239773
1205.326, 5.486269
1205.808, 7.930729
1206.290, 5.136040
1206.772, 5.444172
1207.254, 9.605225
1207.736, 14.68123
1208.218, 19.75251
1208.700, 18.86317
1209.183, 6.430174
1209.665, 4.396252
1210.147, 11.17013
1210.629, 35.72554
1211.111, 37.39449
1211.593, 26.98268
1212.075, 21.58251
1212.557, 21.06579
1213.040, 21.62730
1213.522, 23.06982
1214.004, 23.81856
1214.486, 23.81712
1214.968, 22.51242
1215.450, 16.79831
1215.932, 13.55518
1216.414, 17.78155
1216.896, 23.53292
1217.379, 28.50093
1217.861, 30.20235
1218.343, 21.83922
1218.825, 4.805990
1219.307, 5.251097
1219.789, 25.59502
1220.271, 30.19468
1220.753, 16.32552
1221.235, 6.963266
1221.718, 8.305702
1222.200, 16.62332
1222.682, 29.11519
1223.164, 37.63799
1223.646, 25.68154
1224.128, 9.666830
1224.610, 17.22251
1225.092, 31.59012
1225.575, 25.62163
1226.057, 7.992821
1226.539, 1.036840
1227.021, 7.850998
1227.503, 16.56195
1227.985, 27.34217
1228.467, 32.10883
1228.949, 23.66595
1229.432, 17.44312
1229.914, 18.56225
1230.396, 20.80398
1230.878, 19.78954
1231.360, 18.98824
1231.842, 24.58129
1232.324, 34.22273
1232.806, 35.23384
1233.288, 28.49254
1233.771, 21.56336
1234.253, 16.24422
1234.735, 10.68505
1235.217, 5.287937
1235.699, 3.096575
1236.181, 4.849531
1236.663, 11.34311
1237.145, 29.46914
1237.627, 40.92660
1238.110, 22.01457
1238.592, 1.610975
1239.074, 6.221026
1239.556, 0.2010770
1240.038, 0.8253920
1240.520, 1.847944
1241.002, 8.893610
1241.484, 43.04546
1241.967, 52.90863
1242.449, 26.35301
1242.931, 14.41391
1243.413, 28.75821
1243.895, 40.08032
1244.377, 34.43423
1244.859, 24.73737
1245.341, 25.02910
1245.823, 30.27708
1246.306, 33.27668
1246.788, 33.40297
1247.270, 25.94961
1247.752, 16.02797
1248.234, 15.36335
1248.716, 22.47938
1249.198, 28.87785
1249.680, 32.83908
1250.162, 33.32168
1250.645, 25.22848
1251.127, 16.24526
1251.609, 10.50416
1252.091, 11.74786
1252.573, 24.68280
1253.055, 35.94706
1253.537, 35.16874
1254.019, 27.37673
1254.502, 21.21165
1254.984, 16.65955
1255.466, 13.37010
1255.948, 11.51109
1256.430, 15.25581
1256.912, 23.41006
1257.394, 25.08866
1257.876, 18.06649
1258.358, 9.315845
1258.841, 2.244640
1259.323, 0.4825330
1259.805, 7.239468
1260.287, 15.20114
1260.769, 15.16488
1261.251, 8.521557
1261.733, 3.929321
1262.215, 0.0000000E+00
##END=



