##NAMES=Paramontroseite
##RRUFFID=R050391
##IDEAL CHEMISTRY=V^4+^O_2_
##LOCALITY=J.J. mine, Buell Canyon District, Montrose County, Colorado, USA
##OWNER=RRUFF
##SOURCE=University of Arizona Mineral Museum
##DESCRIPTION=Black massive, radioactive
##STATUS=The identification of this mineral has been confirmed by X-ray diffraction and chemical analysis
##URL=rruff.info/R050391
##MEASURED CHEMISTRY=gray phase: (V^4+^_0.82_Fe^3+^_0.09_U^6+^_0.04_V^5+^_0.03_Al_0.02_)_Σ=1_O_2_; lightest phase is uranophane
128.7333, 0.0000000E+00
129.2154, 2.237366
129.6975, 6.904968
130.1796, 37.47052
130.6617, 81.56085
131.1439, 133.1837
131.6260, 189.5642
132.1081, 248.5966
132.5902, 300.0176
133.0723, 346.5046
133.5544, 380.1516
134.0366, 395.6488
134.5187, 396.6060
135.0008, 387.1359
135.4829, 368.3002
135.9650, 341.0839
136.4471, 330.7001
136.9293, 351.4777
137.4114, 372.4808
137.8935, 383.0294
138.3756, 386.0784
138.8577, 389.3817
139.3398, 397.5798
139.8220, 410.7692
140.3041, 438.4252
140.7862, 484.9905
141.2683, 537.6587
141.7504, 591.2235
142.2325, 645.7736
142.7147, 704.5894
143.1968, 772.8470
143.6789, 850.0498
144.1610, 909.3887
144.6431, 941.1167
145.1252, 965.3557
145.6074, 994.4048
146.0895, 1027.670
146.5716, 1057.148
147.0537, 1078.970
147.5358, 1091.105
148.0179, 1083.334
148.5001, 1042.806
148.9822, 992.3252
149.4643, 948.4972
149.9464, 911.4938
150.4285, 872.3241
150.9106, 823.4277
151.3928, 764.3020
151.8749, 703.8329
152.3570, 642.8784
152.8391, 583.8027
153.3212, 528.4370
153.8033, 477.0793
154.2855, 426.8511
154.7676, 373.3579
155.2497, 318.4762
155.7318, 270.8894
156.2139, 238.8071
156.6960, 211.3229
157.1782, 171.8972
157.6603, 117.1040
158.1424, 68.74744
158.6245, 49.96362
159.1066, 51.46545
159.5887, 52.56140
160.0709, 48.80188
160.5530, 41.53357
161.0351, 30.83313
161.5172, 14.91870
161.9993, 2.548950
162.4814, 3.381958
162.9636, 12.18152
163.4457, 20.06665
163.9278, 25.60535
164.4099, 27.91400
164.8920, 23.88574
165.3741, 10.98761
165.8563, 1.080505
166.3384, 5.654419
166.8205, 5.415344
167.3026, 4.404541
167.7847, 3.153442
168.2668, 1.854553
168.7490, 1.896240
169.2311, 3.359558
169.7132, 5.265259
170.1953, 2.069397
170.6774, 4.705505
171.1595, 8.030212
171.6417, 2.655457
172.1238, 7.101440
172.6059, 13.95386
173.0880, 19.99335
173.5701, 22.53674
174.0522, 18.67145
174.5344, 10.29846
175.0165, 0.4121700
175.4986, 10.26917
175.9807, 19.87146
176.4628, 27.02380
176.9449, 33.59741
177.4271, 35.33215
177.9092, 28.10272
178.3913, 17.19666
178.8734, 9.526611
179.3555, 8.771667
179.8376, 12.90332
180.3197, 18.61401
180.8019, 28.59015
181.2840, 36.79718
181.7661, 38.11871
182.2482, 35.71686
182.7303, 35.26697
183.2124, 40.30792
183.6946, 48.86884
184.1767, 54.58221
184.6588, 53.88361
185.1409, 53.98065
185.6230, 58.27100
186.1051, 64.42621
186.5873, 68.88885
187.0694, 71.49524
187.5515, 73.05322
188.0336, 74.93524
188.5157, 75.45496
188.9978, 79.51544
189.4800, 91.01947
189.9621, 104.5801
190.4442, 114.6659
190.9263, 118.5950
191.4084, 118.6132
191.8905, 120.0294
192.3727, 123.2435
192.8548, 127.2908
193.3369, 132.1366
193.8190, 137.5092
194.3011, 144.0671
194.7832, 152.1425
195.2654, 159.3831
195.7475, 160.6182
196.2296, 154.0449
196.7117, 144.1613
197.1938, 128.3192
197.6759, 111.7761
198.1581, 99.48938
198.6402, 93.02606
199.1223, 89.79169
199.6044, 85.24139
200.0865, 79.56549
200.5686, 71.89594
201.0508, 60.34918
201.5329, 48.25977
202.0150, 37.72345
202.4971, 29.42822
202.9792, 23.74146
203.4613, 22.02014
203.9435, 27.78662
204.4256, 29.46722
204.9077, 24.37335
205.3898, 17.21796
205.8719, 10.50415
206.3540, 5.008606
206.8362, 0.7756350
207.3183, 1.724609
207.8004, 0.9111940
208.2825, 2.419922
208.7646, 9.708801
209.2467, 16.45227
209.7289, 17.71881
210.2110, 13.65717
210.6931, 9.045593
211.1752, 10.01953
211.6573, 18.93866
212.1395, 24.69086
212.6216, 26.68518
213.1037, 26.28943
213.5858, 22.52600
214.0679, 16.40002
214.5500, 10.93280
215.0322, 9.572571
215.5143, 13.29547
215.9964, 14.59949
216.4785, 11.62769
216.9606, 8.010559
217.4427, 4.433716
217.9249, 1.289612
218.4070, 0.9191890
218.8891, 1.643738
219.3712, 0.8377690
219.8533, 0.2220460
220.3354, 0.3165890
220.8176, 0.5338130
221.2997, 0.7928470
221.7818, 0.6655270
222.2639, 0.9876710
222.7460, 5.445618
223.2281, 12.15302
223.7103, 14.76324
224.1924, 7.260010
224.6745, 2.052734
225.1566, 2.251160
225.6387, 6.229919
226.1208, 11.65326
226.6030, 17.32208
227.0851, 23.01068
227.5672, 27.99701
228.0493, 34.10132
228.5314, 36.78894
229.0135, 31.70459
229.4957, 24.33447
229.9778, 21.29883
230.4599, 25.67908
230.9420, 34.21143
231.4241, 39.34131
231.9062, 41.56482
232.3884, 39.55450
232.8705, 28.67926
233.3526, 16.37213
233.8347, 9.100403
234.3168, 9.029236
234.7989, 13.73181
235.2811, 19.85156
235.7632, 29.51459
236.2453, 35.39954
236.7274, 35.56659
237.2095, 33.26147
237.6916, 29.84161
238.1738, 25.88672
238.6559, 22.27454
239.1380, 18.98407
239.6201, 14.22083
240.1022, 16.73303
240.5843, 36.53937
241.0665, 55.73346
241.5486, 65.81323
242.0307, 66.58887
242.5128, 62.77606
242.9949, 57.41241
243.4770, 50.02747
243.9592, 46.86505
244.4413, 54.48132
244.9234, 60.18500
245.4055, 56.87439
245.8876, 47.43909
246.3697, 39.83051
246.8519, 40.10944
247.3340, 47.44409
247.8161, 54.37781
248.2982, 61.06024
248.7803, 67.08667
249.2624, 71.93243
249.7446, 76.18903
250.2267, 81.11255
250.7088, 88.12109
251.1909, 95.45905
251.6730, 97.57819
252.1551, 91.80975
252.6373, 86.12799
253.1194, 81.30365
253.6015, 78.57208
254.0836, 79.94263
254.5657, 86.63702
255.0478, 95.74335
255.5300, 101.9276
256.0121, 103.5500
256.4942, 108.4879
256.9763, 124.3680
257.4584, 141.3463
257.9406, 151.8585
258.4227, 154.1782
258.9048, 153.5052
259.3869, 154.6487
259.8690, 157.6442
260.3511, 161.7114
260.8333, 166.1506
261.3154, 172.3824
261.7975, 182.7434
262.2796, 196.8594
262.7617, 209.5772
263.2438, 214.9515
263.7260, 214.8499
264.2081, 220.5082
264.6902, 235.2260
265.1723, 252.3619
265.6544, 268.4998
266.1365, 283.2761
266.6187, 295.0536
267.1008, 300.5254
267.5829, 303.4271
268.0650, 312.5116
268.5471, 330.1299
269.0292, 346.6229
269.5114, 350.9792
269.9935, 349.7511
270.4756, 354.5660
270.9577, 372.2975
271.4398, 394.5154
271.9219, 411.0338
272.4041, 421.6295
272.8862, 433.5763
273.3683, 450.3455
273.8504, 470.8242
274.3325, 492.1336
274.8146, 513.8924
275.2968, 537.1292
275.7789, 565.5583
276.2610, 596.8549
276.7431, 621.0865
277.2252, 632.7980
277.7073, 638.2455
278.1895, 646.8546
278.6716, 657.7559
279.1537, 673.8832
279.6358, 703.1609
280.1179, 736.9481
280.6000, 759.2476
281.0822, 765.8575
281.5643, 765.4228
282.0464, 767.5865
282.5285, 772.7805
283.0106, 775.3968
283.4927, 776.0047
283.9749, 773.3044
284.4570, 765.5766
284.9391, 752.8251
285.4212, 736.9167
285.9033, 719.1138
286.3854, 699.3210
286.8676, 678.2557
287.3497, 651.7168
287.8318, 627.8530
288.3139, 615.5098
288.7960, 609.6720
289.2781, 596.4669
289.7603, 566.4355
290.2424, 524.1990
290.7245, 490.2568
291.2066, 469.3777
291.6887, 449.7288
292.1708, 430.4954
292.6530, 411.7361
293.1351, 392.6886
293.6172, 373.1824
294.0993, 354.9343
294.5814, 341.4887
295.0635, 336.3576
295.5457, 329.4553
296.0278, 317.4700
296.5099, 306.2025
296.9920, 300.8738
297.4741, 301.2656
297.9562, 302.9729
298.4384, 301.6432
298.9205, 296.5674
299.4026, 290.3195
299.8847, 282.7051
300.3668, 275.0678
300.8489, 265.6973
301.3311, 255.8435
301.8131, 249.2853
302.2953, 249.1199
302.7774, 253.7754
303.2595, 252.4059
303.7416, 238.6836
304.2237, 228.1455
304.7058, 228.6614
305.1880, 232.2874
305.6701, 228.7631
306.1522, 213.7055
306.6343, 193.7311
307.1164, 179.3380
307.5985, 171.5217
308.0807, 165.8187
308.5628, 161.6845
309.0449, 159.4965
309.5270, 161.6194
310.0091, 167.2296
310.4912, 170.4303
310.9734, 164.8162
311.4555, 151.2635
311.9376, 139.3051
312.4197, 129.3877
312.9018, 122.0654
313.3839, 118.8589
313.8661, 118.1486
314.3482, 115.6613
314.8303, 107.6480
315.3124, 97.47980
315.7945, 91.68591
316.2766, 91.16418
316.7588, 90.39301
317.2409, 84.93549
317.7230, 77.83081
318.2051, 74.52838
318.6872, 78.86621
319.1693, 81.47144
319.6515, 70.71118
320.1336, 50.69421
320.6157, 41.47711
321.0978, 54.14294
321.5799, 74.51471
322.0620, 77.30750
322.5442, 60.61597
323.0263, 47.15851
323.5084, 44.90967
323.9905, 48.77069
324.4726, 53.63354
324.9547, 58.63757
325.4369, 60.77917
325.9190, 55.87115
326.4011, 42.96149
326.8832, 36.48114
327.3653, 41.85309
327.8474, 48.38495
328.3296, 50.38892
328.8117, 48.50385
329.2938, 45.31006
329.7759, 41.99677
330.2580, 39.07886
330.7401, 39.01617
331.2223, 49.46478
331.7044, 53.24249
332.1865, 41.82220
332.6686, 25.94342
333.1507, 17.52148
333.6328, 20.03680
334.1150, 28.00763
334.5971, 33.88910
335.0792, 38.41522
335.5613, 38.45428
336.0434, 28.67310
336.5255, 19.65430
337.0077, 18.44434
337.4898, 23.31879
337.9719, 27.18158
338.4540, 23.76221
338.9361, 14.19629
339.4182, 8.878601
339.9004, 10.40546
340.3825, 12.62500
340.8646, 14.36603
341.3467, 15.43597
341.8288, 15.21753
342.3109, 13.18579
342.7931, 11.20258
343.2752, 12.62286
343.7573, 18.08026
344.2394, 22.60278
344.7215, 26.94537
345.2036, 28.11914
345.6858, 21.18036
346.1679, 6.328186
346.6500, 4.911438
347.1321, 2.181274
347.6142, 9.652039
348.0963, 17.29919
348.5785, 19.14252
349.0606, 17.79315
349.5427, 13.30658
350.0248, 6.995178
350.5069, 2.929810
350.9890, 2.264404
351.4712, 3.737793
351.9533, 7.970947
352.4354, 14.10083
352.9175, 17.40564
353.3996, 15.03058
353.8817, 9.190063
354.3639, 5.655701
354.8460, 5.056702
355.3281, 4.835938
355.8102, 6.012146
356.2923, 6.562988
356.7744, 2.725830
357.2566, 5.939453
357.7387, 14.36871
358.2208, 16.82458
358.7029, 12.28778
359.1850, 6.956360
359.6671, 1.787781
360.1493, 8.638733
360.6314, 11.09845
361.1135, 9.800903
361.5956, 5.742004
362.0777, 0.9166260
362.5598, 8.502930
363.0420, 10.69897
363.5241, 3.594421
364.0062, 2.862183
364.4883, 9.325195
364.9704, 13.62384
365.4525, 12.65686
365.9347, 6.302307
366.4168, 0.8320310
366.8989, 2.721008
367.3810, 1.107666
367.8631, 1.608826
368.3452, 6.489929
368.8274, 11.90570
369.3095, 6.210205
369.7916, 6.448914
370.2737, 15.83948
370.7558, 15.61835
371.2379, 10.68774
371.7201, 10.01001
372.2022, 14.27100
372.6843, 15.85046
373.1664, 8.069092
373.6485, 2.013428
374.1306, 2.948853
374.6128, 8.334900
375.0949, 18.89795
375.5770, 21.05353
376.0591, 17.87921
376.5412, 15.84589
377.0233, 16.51807
377.5055, 16.12842
377.9876, 9.023193
378.4697, 5.795410
378.9518, 11.33112
379.4339, 3.077942
379.9160, 17.43109
380.3982, 17.30823
380.8803, 6.993591
381.3624, 9.4910003E-02
381.8445, 4.390198
382.3266, 15.64722
382.8087, 21.07208
383.2909, 14.79810
383.7730, 10.16241
384.2551, 4.673462
384.7372, 2.449890
385.2193, 9.239258
385.7014, 24.50342
386.1836, 40.49146
386.6657, 48.89398
387.1478, 49.31696
387.6299, 49.18311
388.1120, 47.42047
388.5941, 46.37030
389.0763, 47.33197
389.5584, 49.34961
390.0405, 50.63763
390.5226, 50.08496
391.0047, 49.55975
391.4868, 52.52136
391.9690, 59.37396
392.4511, 65.88727
392.9332, 72.06775
393.4153, 76.30914
393.8974, 75.81134
394.3795, 70.68463
394.8617, 68.00330
395.3438, 70.97382
395.8259, 78.65857
396.3080, 91.76666
396.7901, 110.8046
397.2722, 126.8712
397.7544, 132.9700
398.2365, 130.5780
398.7186, 129.6039
399.2007, 131.7584
399.6828, 133.3943
400.1649, 130.8785
400.6471, 127.4282
401.1292, 129.0178
401.6113, 137.6572
402.0934, 149.6356
402.5755, 160.0700
403.0576, 170.0849
403.5398, 174.3387
404.0219, 168.9089
404.5040, 161.8454
404.9861, 157.3450
405.4682, 155.5103
405.9503, 155.6585
406.4325, 158.1143
406.9146, 160.9702
407.3967, 156.4490
407.8788, 138.8687
408.3609, 125.6547
408.8430, 123.6605
409.3252, 124.6183
409.8073, 122.5889
410.2894, 116.5308
410.7715, 108.1139
411.2536, 96.88336
411.7357, 83.94232
412.2179, 75.76129
412.7000, 73.99921
413.1821, 74.08215
413.6642, 73.67889
414.1463, 72.83118
414.6284, 71.60254
415.1106, 70.26337
415.5927, 67.22394
416.0748, 61.48444
416.5569, 53.90356
417.0390, 44.87042
417.5211, 33.85718
418.0033, 24.19464
418.4854, 22.30518
418.9675, 31.48053
419.4496, 37.41223
419.9317, 38.72150
420.4138, 36.85126
420.8960, 31.36108
421.3781, 24.33380
421.8602, 19.92255
422.3423, 21.03784
422.8244, 25.90332
423.3065, 26.81171
423.7887, 21.57202
424.2708, 15.46509
424.7529, 6.378967
425.2350, 1.279358
425.7171, 3.950317
426.1992, 1.695984
426.6814, 2.759460
427.1635, 9.276917
427.6456, 17.37372
428.1277, 19.36975
428.6098, 12.04370
429.0919, 4.777649
429.5741, 2.523865
430.0562, 3.348450
430.5383, 4.475586
431.0204, 4.762573
431.5025, 6.182373
431.9846, 13.13043
432.4668, 23.34961
432.9489, 26.82867
433.4310, 19.73022
433.9131, 9.812744
434.3952, 6.817749
434.8773, 11.74817
435.3595, 12.95044
435.8416, 5.660461
436.3237, 2.047546
436.8058, 5.735535
437.2879, 4.801331
437.7701, 0.2872920
438.2522, 7.959534
438.7343, 16.99359
439.2164, 18.92999
439.6985, 8.213257
440.1806, 0.2255250
440.6628, 6.035645
441.1449, 8.845886
441.6270, 4.304871
442.1091, 5.400574
442.5912, 12.25116
443.0733, 7.980042
443.5555, 3.000793
444.0376, 1.567444
444.5197, 18.30908
445.0018, 33.65381
445.4839, 28.32117
445.9660, 17.99445
446.4482, 20.47314
446.9303, 40.00757
447.4124, 55.58295
447.8945, 48.70935
448.3766, 29.85394
448.8587, 21.89172
449.3409, 28.39026
449.8230, 37.40106
450.3051, 39.33856
450.7872, 35.19110
451.2693, 35.39648
451.7514, 45.06171
452.2336, 52.79724
452.7157, 52.37073
453.1978, 48.66388
453.6799, 49.84460
454.1620, 57.84100
454.6441, 65.82709
455.1263, 64.04718
455.6084, 49.79498
456.0905, 41.14996
456.5726, 42.73730
457.0547, 45.55261
457.5368, 46.20654
458.0190, 46.50543
458.5011, 50.12476
458.9832, 59.11621
459.4653, 69.54095
459.9474, 76.63159
460.4295, 80.37469
460.9117, 79.18085
461.3938, 68.38879
461.8759, 58.55127
462.3580, 62.18561
462.8401, 76.26740
463.3222, 84.57031
463.8044, 75.71460
464.2865, 64.75171
464.7686, 67.03839
465.2507, 79.50116
465.7328, 88.57214
466.2149, 87.80511
466.6971, 82.56573
467.1792, 83.25299
467.6613, 92.84723
468.1434, 102.6017
468.6255, 115.6816
469.1076, 126.2190
469.5898, 129.9293
470.0719, 127.7475
470.5540, 122.6501
471.0361, 116.0635
471.5182, 109.0300
472.0003, 103.9376
472.4825, 99.69220
472.9646, 100.5218
473.4467, 117.3615
473.9288, 132.3041
474.4109, 131.1458
474.8930, 114.6765
475.3752, 97.80438
475.8573, 86.51074
476.3394, 81.24915
476.8215, 85.63617
477.3036, 99.81793
477.7857, 111.4918
478.2679, 114.8228
478.7500, 111.5016
479.2321, 104.5136
479.7142, 91.07410
480.1963, 81.48956
480.6784, 79.69556
481.1606, 81.26550
481.6427, 83.58423
482.1248, 85.59766
482.6069, 85.26764
483.0890, 80.63489
483.5711, 72.79456
484.0533, 68.03577
484.5354, 67.45459
485.0175, 68.26349
485.4996, 71.99554
485.9817, 75.42273
486.4638, 75.01263
486.9460, 70.91858
487.4281, 67.50043
487.9102, 70.82965
488.3923, 77.33478
488.8744, 74.30847
489.3565, 59.69635
489.8387, 46.91956
490.3208, 42.47894
490.8029, 44.52423
491.2850, 49.13171
491.7671, 58.32422
492.2492, 64.27063
492.7314, 61.73761
493.2135, 55.99109
493.6956, 52.80072
494.1777, 52.71448
494.6598, 53.61023
495.1419, 54.30505
495.6241, 54.48157
496.1062, 53.09430
496.5883, 49.86450
497.0704, 45.66248
497.5525, 38.24542
498.0346, 30.81342
498.5168, 25.79675
498.9989, 23.44263
499.4810, 22.58673
499.9631, 22.86719
500.4452, 23.86768
500.9273, 24.19934
501.4095, 23.43787
501.8916, 21.46759
502.3737, 17.06793
502.8558, 12.36279
503.3379, 9.975525
503.8200, 9.663391
504.3022, 14.35229
504.7843, 29.96759
505.2664, 47.26715
505.7485, 53.53455
506.2306, 48.95264
506.7127, 43.05103
507.1949, 42.43982
507.6770, 45.81909
508.1591, 46.76636
508.6412, 41.06372
509.1233, 38.56360
509.6054, 43.01495
510.0876, 48.43353
510.5697, 49.12866
511.0518, 45.70721
511.5339, 44.37793
512.0161, 51.19727
512.4982, 62.45184
512.9803, 67.15234
513.4624, 64.21521
513.9445, 61.21356
514.4266, 60.36090
514.9088, 61.07996
515.3909, 63.09216
515.8730, 66.69318
516.3551, 68.77802
516.8372, 67.91193
517.3193, 65.19659
517.8015, 58.81934
518.2836, 50.95343
518.7657, 50.44617
519.2478, 62.93835
519.7299, 81.29877
520.2120, 87.94702
520.6942, 73.77368
521.1763, 65.41980
521.6584, 66.04688
522.1405, 68.45227
522.6226, 70.03973
523.1047, 70.22382
523.5869, 68.34821
524.0690, 63.50720
524.5511, 57.66394
525.0332, 53.00964
525.5153, 49.59802
525.9974, 51.59137
526.4796, 63.41705
526.9617, 75.20459
527.4438, 73.37585
527.9259, 59.94812
528.4080, 52.92743
528.8901, 61.95258
529.3723, 71.00391
529.8544, 69.54474
530.3365, 61.45618
530.8186, 54.73499
531.3007, 52.07068
531.7828, 50.38068
532.2650, 44.46649
532.7471, 32.30127
533.2292, 28.88293
533.7113, 48.37939
534.1934, 60.52887
534.6755, 49.56915
535.1577, 29.15747
535.6398, 16.22803
536.1219, 15.26758
536.6040, 20.92310
537.0861, 32.46295
537.5682, 46.90753
538.0504, 53.46918
538.5325, 50.32465
539.0146, 44.25897
539.4967, 39.20215
539.9788, 35.12811
540.4609, 31.86823
540.9431, 31.11914
541.4252, 28.50592
541.9073, 21.13702
542.3894, 13.05206
542.8715, 6.383850
543.3536, 2.407471
543.8358, 3.862549
544.3179, 14.31073
544.8000, 30.39301
545.2821, 36.55457
545.7642, 29.62256
546.2463, 21.66632
546.7285, 12.28113
547.2106, 5.701233
547.6927, 7.280579
548.1748, 16.19843
548.6569, 22.61194
549.1390, 19.04254
549.6211, 12.94415
550.1032, 14.42651
550.5853, 21.39563
551.0674, 23.19714
551.5496, 14.91516
552.0317, 3.128784
552.5138, 1.203552
552.9959, 5.351929
553.4780, 8.141785
553.9601, 1.333557
554.4423, 3.268860
554.9244, 2.843933
555.4065, 13.49561
555.8886, 18.04443
556.3707, 12.47156
556.8528, 3.036377
557.3350, 4.310303
557.8171, 9.308533
558.2992, 9.091980
558.7813, 1.917664
559.2634, 5.738953
559.7455, 11.03882
560.2277, 13.52185
560.7098, 11.54425
561.1919, 0.7006230
561.6740, 7.261169
562.1561, 3.519043
562.6382, 18.37982
563.1204, 22.73871
563.6025, 16.02191
564.0846, 6.116882
564.5667, 2.037659
565.0488, 7.576050
565.5309, 5.928284
566.0131, 8.426025
566.4952, 17.27576
566.9773, 11.15002
567.4594, 2.317566
567.9415, 2.218872
568.4236, 2.127686
568.9058, 0.3536990
569.3879, 4.980164
569.8700, 10.27625
570.3521, 16.04041
570.8342, 21.64734
571.3163, 25.06488
571.7985, 25.68805
572.2806, 23.60590
572.7627, 18.23645
573.2448, 8.773865
573.7269, 4.559875
574.2090, 6.477173
574.6912, 9.354858
575.1733, 16.08417
575.6554, 22.82471
576.1375, 24.91467
576.6196, 21.48828
577.1017, 15.87610
577.5839, 9.306030
578.0660, 2.980591
578.5481, 1.901428
579.0302, 6.768005
579.5123, 11.52045
579.9944, 13.09576
580.4766, 12.95618
580.9587, 14.68237
581.4408, 19.05536
581.9229, 20.69781
582.4050, 16.10321
582.8871, 11.22919
583.3693, 10.12311
583.8514, 11.88922
584.3335, 14.20856
584.8156, 16.03076
585.2977, 17.15417
585.7798, 16.65503
586.2620, 14.20312
586.7441, 14.31000
587.2262, 18.80206
587.7083, 23.22046
588.1904, 26.04767
588.6725, 26.87604
589.1547, 23.86810
589.6368, 13.97845
590.1189, 7.696838
590.6010, 15.94049
591.0831, 27.44708
591.5652, 25.10034
592.0474, 9.839111
592.5295, 3.387146
593.0116, 4.686096
593.4937, 3.164978
593.9758, 12.78735
594.4579, 28.54962
594.9401, 35.57605
595.4222, 23.37677
595.9043, 10.46240
596.3864, 7.424194
596.8685, 11.00537
597.3506, 11.45367
597.8328, 2.714417
598.3149, 5.420715
598.7970, 1.182312
599.2791, 10.31549
599.7612, 15.02051
600.2433, 10.22247
600.7255, 3.743408
601.2076, 2.053894
601.6897, 4.602173
602.1718, 6.914734
602.6539, 10.17169
603.1360, 11.47546
603.6182, 8.862549
604.1003, 5.630249
604.5824, 4.065369
605.0645, 4.222900
605.5466, 4.967102
606.0287, 5.197632
606.5109, 6.272766
606.9930, 12.24255
607.4751, 22.00574
607.9572, 26.14386
608.4393, 21.57184
608.9214, 13.76196
609.4036, 7.767090
609.8857, 3.580933
610.3678, 0.1929320
610.8499, 5.536072
611.3320, 7.675659
611.8141, 2.715820
612.2963, 3.939087
612.7784, 7.566101
613.2605, 7.487610
613.7426, 6.687500
614.2247, 7.739929
614.7068, 9.400330
615.1890, 7.524170
615.6711, 1.918884
616.1532, 1.223938
616.6353, 0.6016850
617.1174, 5.100891
617.5995, 11.15613
618.0817, 18.79529
618.5638, 21.07098
619.0459, 11.18610
619.5280, 2.778625
620.0101, 4.416809
620.4922, 9.910339
620.9744, 11.97870
621.4565, 9.304810
621.9386, 5.244690
