##NAMES=Plattnerite
##RRUFFID=R080019
##IDEAL CHEMISTRY=Pb^4+^O_2_
##LOCALITY=Snake Pit, lower Mex-Tex mine, Hansonburg District, Socorro County, New Mexico, USA
##OWNER=RRUFF
##SOURCE=William W. Pinch
##DESCRIPTION=Black twinned crystals associated with red scrutinyite, R080018, on the surface of a quartz crystal
##STATUS=The identification of this mineral has been confirmed by single-crystal X-ray diffraction.
##URL=rruff.info/R080019
145.7834, 0.0000000E+00
146.2655, 0.4773640
146.7477, 1.012505
147.2298, 1.378838
147.7119, 1.586067
148.1940, 1.542984
148.6761, 1.064873
149.1582, 0.3778230
149.6404, 2.1660000E-02
150.1225, 6.8542004E-02
150.6046, 0.2326890
151.0867, 0.3226090
151.5688, 0.2522430
152.0509, 0.2343520
152.5331, 0.2529530
153.0152, 0.2966770
153.4973, 0.4636230
153.9794, 0.8880000
154.4615, 1.330757
154.9436, 1.698235
155.4258, 2.134293
155.9079, 2.311127
156.3900, 2.078117
156.8721, 1.513573
157.3542, 0.9941250
157.8363, 0.4470830
158.3185, 5.6754999E-02
158.8006, 6.8168998E-02
159.2827, 0.4073720
159.7648, 0.8429180
160.2469, 1.048653
160.7290, 1.066200
161.2112, 1.106384
161.6933, 1.204765
162.1754, 1.297630
162.6575, 1.435959
163.1396, 1.895164
163.6217, 2.222046
164.1039, 2.120140
164.5860, 1.598305
165.0681, 1.183868
165.5502, 1.206573
166.0323, 1.438171
166.5145, 1.618401
166.9966, 1.567085
167.4787, 1.499268
167.9608, 1.553047
168.4429, 1.739204
168.9250, 1.947426
169.4072, 2.174782
169.8893, 2.372650
170.3714, 2.466599
170.8535, 2.495331
171.3356, 2.368790
171.8177, 1.913986
172.2999, 1.067291
172.7820, 0.2903440
173.2641, 1.1658000E-02
173.7462, 2.3682000E-02
174.2283, 9.6488997E-02
174.7104, 6.7374997E-02
175.1926, 7.3170001E-03
175.6747, 6.6528000E-02
176.1568, 0.1063080
176.6389, 0.1271130
177.1210, 0.2033620
177.6031, 0.2797240
178.0853, 0.1845930
178.5674, 0.4530180
179.0495, 1.255424
179.5316, 1.561348
180.0137, 1.167587
180.4958, 0.6046370
180.9780, 0.5340040
181.4601, 0.8746490
181.9422, 1.220131
182.4243, 1.276642
182.9064, 1.156029
183.3885, 1.098808
183.8707, 1.135712
184.3528, 1.254944
184.8349, 1.517853
185.3170, 1.899551
185.7991, 2.182037
186.2812, 2.112450
186.7633, 1.794785
187.2455, 1.602852
187.7276, 1.614838
188.2097, 1.752159
188.6918, 1.906677
189.1739, 2.077278
189.6560, 2.199471
190.1382, 2.180534
190.6203, 2.049194
191.1024, 1.998177
191.5845, 2.094360
192.0666, 2.265854
192.5487, 2.333511
193.0309, 2.291542
193.5130, 2.229713
193.9951, 2.267784
194.4772, 2.394501
194.9593, 2.348434
195.4414, 1.979317
195.9236, 1.449242
196.4057, 1.396538
196.8878, 1.899025
197.3699, 2.418938
197.8520, 2.351135
198.3341, 1.667816
198.8163, 1.329842
199.2984, 1.682365
199.7805, 2.513420
200.2626, 2.797234
200.7447, 2.425354
201.2268, 1.916336
201.7090, 1.816681
202.1911, 2.182358
202.6732, 2.413803
203.1553, 2.319839
203.6374, 1.964172
204.1195, 1.800858
204.6017, 1.863144
205.0838, 2.028687
205.5659, 2.201942
206.0480, 2.394279
206.5301, 2.524834
207.0122, 2.538506
207.4944, 2.455139
207.9765, 2.537529
208.4586, 2.870728
208.9407, 3.194550
209.4228, 3.190620
209.9049, 2.767548
210.3871, 2.413109
210.8692, 2.280579
211.3513, 2.361641
211.8334, 2.434090
212.3155, 2.532051
212.7976, 2.560173
213.2798, 2.357925
213.7619, 1.788788
214.2440, 1.401558
214.7261, 1.368195
215.2082, 1.693268
215.6903, 2.008980
216.1725, 2.370239
216.6546, 2.638916
217.1367, 2.606972
217.6188, 2.094704
218.1009, 1.745033
218.5830, 1.767876
219.0652, 2.192749
219.5473, 2.413818
220.0294, 2.332626
220.5115, 2.171059
220.9936, 2.221024
221.4757, 2.642326
221.9579, 2.895927
222.4400, 2.788582
222.9221, 2.274445
223.4042, 2.005714
223.8863, 2.034653
224.3684, 2.182236
224.8506, 2.287926
225.3327, 2.336273
225.8148, 2.378769
226.2969, 2.431999
226.7790, 2.500961
227.2611, 2.546150
227.7433, 2.586456
228.2254, 2.592529
228.7075, 2.532494
229.1896, 2.313889
229.6717, 2.104897
230.1538, 1.918480
230.6360, 1.741066
231.1181, 1.780342
231.6002, 2.215767
232.0823, 2.702415
232.5644, 2.831001
233.0465, 2.287010
233.5287, 1.884285
234.0108, 1.898209
234.4929, 2.388756
234.9750, 2.603607
235.4571, 2.381660
235.9392, 2.032578
236.4214, 1.903389
236.9035, 2.130089
237.3856, 2.305252
237.8677, 2.305656
238.3498, 2.107414
238.8319, 2.075974
239.3141, 2.323929
239.7962, 2.635422
240.2783, 2.791969
240.7604, 2.753662
241.2425, 2.628181
241.7246, 2.372772
242.2068, 1.964874
242.6889, 1.835533
243.1710, 2.169479
243.6531, 2.603706
244.1352, 2.765457
244.6173, 2.479408
245.0995, 2.257133
245.5816, 2.231384
246.0637, 2.407524
246.5458, 2.454521
247.0279, 2.322098
247.5100, 2.111679
247.9922, 1.907906
248.4743, 1.673996
248.9564, 1.524796
249.4385, 1.526329
249.9206, 1.673004
250.4027, 1.660179
250.8848, 1.397278
251.3670, 1.078362
251.8491, 0.8650510
252.3312, 0.7531050
252.8133, 0.7613220
253.2954, 0.9558720
253.7775, 1.315483
254.2597, 1.476639
254.7418, 1.352776
255.2239, 1.137863
255.7060, 0.9619520
256.1881, 0.7741170
256.6703, 0.7569960
257.1524, 1.030861
257.6345, 1.537552
258.1166, 1.744926
258.5987, 1.542206
259.0808, 1.197365
259.5630, 0.8647230
260.0451, 0.4917980
260.5272, 0.3173750
261.0093, 0.4357380
261.4914, 0.7849580
261.9735, 1.027107
262.4557, 1.141785
262.9378, 1.182549
263.4199, 1.158936
263.9020, 1.021362
264.3841, 1.004494
264.8662, 1.232941
265.3484, 1.602539
265.8305, 1.557076
266.3126, 0.8712160
266.7947, 0.1696930
267.2768, 0.1343990
267.7589, 8.6754002E-02
268.2411, 0.2030640
268.7232, 0.1382140
269.2053, 4.0863000E-02
269.6874, 0.1408460
270.1695, 0.1511760
270.6516, 0.1073610
271.1338, 1.0605000E-02
271.6159, 0.1600270
272.0980, 0.2674180
272.5801, 0.2907640
273.0622, 0.2794650
273.5443, 0.3323590
274.0265, 0.4667280
274.5086, 0.6258390
274.9907, 0.8182140
275.4728, 1.068222
275.9549, 1.092087
276.4370, 0.7923280
276.9192, 0.3863750
277.4013, 0.3225860
277.8834, 0.6730350
278.3655, 0.9872970
278.8476, 1.045784
279.3297, 0.8511660
279.8118, 0.5700450
280.2939, 0.1439130
280.7761, 0.2368160
281.2582, 0.2116850
281.7403, 0.2601170
282.2224, 0.6821900
282.7045, 0.8364720
283.1866, 0.7481230
283.6688, 0.7436750
284.1509, 0.8595280
284.6330, 0.9397510
285.1151, 0.6703950
285.5972, 5.2025001E-02
286.0793, 0.2951430
286.5615, 3.1509001E-02
287.0436, 0.6846080
287.5257, 1.138496
288.0078, 1.324944
288.4899, 1.276550
288.9720, 0.8681950
289.4542, 0.1524510
289.9363, 0.3003160
290.4184, 0.2130280
290.9005, 0.2051850
291.3826, 0.3504260
291.8647, 0.2093580
292.3469, 1.4900000E-02
292.8290, 1.8767999E-02
293.3111, 7.5737000E-02
293.7932, 0.1441500
294.2753, 0.1384890
294.7574, 9.8494999E-02
295.2396, 9.2331000E-02
295.7217, 0.1197590
296.2038, 0.1833270
296.6859, 0.3075260
297.1680, 0.4703450
297.6501, 0.6253050
298.1323, 0.7884980
298.6144, 0.8976440
299.0965, 0.8102190
299.5786, 0.5564650
300.0607, 0.3389360
300.5428, 0.2851410
301.0250, 0.3526920
301.5071, 0.4730910
301.9892, 0.6492770
302.4713, 0.8386840
302.9534, 1.035233
303.4355, 1.215332
303.9177, 1.309242
304.3998, 1.219490
304.8819, 1.039902
305.3640, 0.8613660
305.8461, 0.6740570
306.3282, 0.5865020
306.8104, 0.8322220
307.2925, 1.250221
307.7746, 1.500153
308.2567, 1.233284
308.7388, 0.8406370
309.2209, 0.7218860
309.7031, 0.9102710
310.1852, 1.079803
310.6673, 0.9559710
311.1494, 0.6843640
311.6315, 0.4725880
312.1136, 0.4438400
312.5958, 0.4658430
313.0779, 0.4636990
313.5600, 0.4350740
314.0421, 0.3760220
314.5242, 0.2378080
315.0063, 8.5205004E-02
315.4885, 1.7844999E-02
315.9706, 6.4873002E-02
316.4527, 4.8904002E-02
316.9348, 7.0029996E-02
317.4169, 0.2677080
317.8990, 0.4361880
318.3812, 0.5143360
318.8633, 0.5598140
319.3454, 0.6152950
319.8275, 0.7246170
320.3096, 0.7941970
320.7917, 0.8353580
321.2739, 0.8217160
321.7560, 0.6845780
322.2381, 0.1517410
322.7202, 0.3096690
323.2023, 0.4397810
323.6844, 3.0113000E-02
324.1666, 0.2779390
324.6487, 0.2963640
325.1308, 0.1448970
325.6129, 5.2138999E-02
326.0950, 1.7639000E-02
326.5771, 4.6165001E-02
327.0593, 0.1699680
327.5414, 0.4435040
328.0235, 0.5892490
328.5056, 0.5299760
328.9877, 0.3664780
329.4698, 0.1962970
329.9520, 0.1610790
330.4341, 0.3221660
330.9162, 0.1066210
331.3983, 0.5078810
331.8804, 0.8068620
332.3625, 0.5546110
332.8447, 0.1899800
333.3268, 4.9484000E-02
333.8089, 0.3321150
334.2910, 0.4742740
334.7731, 0.3376850
335.2552, 1.3200000E-03
335.7374, 0.1211620
336.2195, 5.6519002E-02
336.7016, 0.3247600
337.1837, 0.6029740
337.6658, 0.9445190
338.1479, 1.081108
338.6301, 0.8927840
339.1122, 0.5580370
339.5943, 0.4758680
340.0764, 0.6902620
340.5585, 0.9304960
341.0406, 1.090149
341.5228, 1.171883
342.0049, 1.145073
342.4870, 0.9802170
342.9691, 0.7676090
343.4512, 0.6184390
343.9333, 0.5142970
344.4155, 0.5102390
344.8976, 0.6424480
345.3797, 0.8675460
345.8618, 1.005714
346.3439, 1.053284
346.8260, 1.050110
347.3082, 1.046791
347.7903, 1.012131
348.2724, 0.8919830
348.7545, 0.6116640
349.2366, 0.2961040
349.7188, 0.2907100
350.2009, 0.5710980
350.6830, 0.8222580
351.1651, 0.7440800
351.6472, 0.4702000
352.1293, 0.3261720
352.6115, 0.3888170
353.0936, 0.5344850
353.5757, 0.6427610
354.0578, 0.7198720
354.5399, 0.7885360
355.0220, 0.8799820
355.5042, 0.9603270
355.9863, 0.9694290
356.4684, 0.8910680
356.9505, 0.8229290
357.4326, 0.8199010
357.9147, 0.8800810
358.3969, 0.9998170
358.8790, 1.300911
359.3611, 1.569778
359.8432, 1.588852
360.3253, 1.370331
360.8074, 1.248032
361.2896, 1.578606
361.7717, 1.997711
362.2538, 2.166367
362.7359, 1.357300
363.2180, 1.883621
363.7001, 2.203804
364.1823, 2.328957
364.6644, 1.674881
365.1465, 2.027008
365.6286, 1.975883
366.1107, 1.908241
366.5928, 2.401978
367.0750, 1.861252
367.5571, 2.346085
368.0392, 2.421539
368.5213, 2.684349
369.0034, 2.541451
369.4855, 2.523857
369.9677, 2.912155
370.4498, 3.075706
370.9319, 2.886108
371.4140, 3.160858
371.8961, 2.605980
372.3782, 2.778847
372.8604, 3.263924
373.3425, 3.088760
373.8246, 3.362068
374.3067, 3.464516
374.7888, 2.791237
375.2709, 3.478920
375.7531, 3.579109
376.2352, 3.075989
376.7173, 3.717178
377.1994, 3.544220
377.6815, 3.736694
378.1636, 3.801781
378.6458, 3.415321
379.1279, 3.898163
379.6100, 4.180733
380.0921, 4.258949
380.5742, 3.524460
381.0563, 3.788048
381.5385, 3.674194
382.0206, 3.557487
382.5027, 4.001999
382.9848, 3.403984
383.4669, 3.830231
383.9490, 3.846367
384.4312, 4.050575
384.9133, 3.616638
385.3954, 3.642578
385.8775, 3.690132
386.3596, 3.747086
386.8417, 3.799110
387.3239, 3.802582
387.8060, 3.708900
388.2881, 3.610725
388.7702, 3.695694
389.2523, 3.890594
389.7344, 3.984222
390.2166, 3.783714
390.6987, 3.481819
391.1808, 3.250328
391.6629, 3.104393
392.1450, 3.036758
392.6271, 3.088264
393.1093, 3.202362
393.5914, 3.305771
394.0735, 3.370010
394.5556, 3.458244
395.0377, 3.659782
395.5198, 3.948692
396.0020, 4.049202
396.4841, 3.656868
396.9662, 3.176636
397.4483, 2.876732
397.9304, 2.892998
398.4125, 2.961426
398.8947, 3.119286
399.3768, 3.304146
399.8589, 3.362617
400.3410, 3.145432
400.8231, 2.927063
401.3052, 2.784554
401.7874, 2.728500
402.2695, 2.703629
402.7516, 2.704895
403.2337, 2.742126
403.7158, 2.853531
404.1979, 3.135986
404.6800, 3.251366
405.1621, 3.066582
405.6443, 2.647484
406.1264, 2.412811
406.6085, 2.396049
407.0906, 2.472351
407.5727, 2.594948
408.0548, 2.800140
408.5370, 2.887558
409.0191, 2.773407
409.5012, 2.579765
409.9833, 2.554390
410.4654, 2.694229
410.9475, 2.721001
411.4297, 1.849625
411.9118, 2.380669
412.3939, 2.655785
412.8760, 2.688766
413.3581, 1.754242
413.8402, 2.069115
414.3224, 1.883324
414.8045, 1.677040
415.2866, 2.167847
415.7687, 1.374207
416.2508, 1.854042
416.7329, 1.825569
417.2151, 2.029762
417.6972, 1.730225
418.1793, 1.586334
418.6614, 1.946404
419.1435, 2.027473
419.6256, 1.670082
420.1078, 1.889282
420.5899, 1.078384
421.0720, 1.171494
421.5541, 1.654648
422.0362, 1.322769
422.5183, 1.551369
423.0005, 1.566544
423.4826, 1.127029
423.9647, 1.378914
424.4468, 1.585899
424.9289, 1.592255
425.4110, 0.9913940
425.8932, 0.6785430
426.3753, 0.8825990
426.8574, 1.378845
427.3395, 1.631889
427.8216, 1.455612
428.3037, 1.280472
428.7859, 1.261932
429.2680, 1.432343
429.7501, 1.537987
430.2322, 1.594711
430.7143, 1.563118
431.1964, 1.355637
431.6786, 0.9181670
432.1607, 0.5977480
432.6428, 0.4934840
433.1249, 0.5348050
433.6070, 0.4951480
434.0891, 0.3700870
434.5713, 0.2287600
435.0534, 0.1155780
435.5355, 2.6351999E-02
436.0176, 8.5547999E-02
436.4997, 0.2394710
436.9818, 0.3405610
437.4640, 0.1897510
437.9461, 0.1247560
438.4282, 0.3181840
438.9103, 0.1401440
439.3924, 0.1351240
439.8745, 0.1316220
440.3567, 0.1191410
440.8388, 0.3596040
441.3209, 0.4330140
441.8030, 0.4025500
442.2851, 0.3130570
442.7672, 0.1192090
443.2494, 9.3989996E-03
443.7315, 0.1049960
444.2136, 0.3369450
444.6957, 0.4570080
445.1778, 0.2630390
445.6599, 6.0631000E-02
446.1421, 4.7210999E-02
446.6242, 5.3718999E-02
447.1063, 3.4591999E-02
447.5884, 0.3949050
448.0705, 0.7431790
448.5526, 0.8616940
449.0348, 0.5503920
449.5169, 0.2945180
449.9990, 0.1405260
450.4811, 5.3520001E-02
450.9632, 8.9446999E-02
451.4453, 0.4087600
451.9275, 0.5510710
452.4096, 0.2737500
452.8917, 0.4826890
453.3738, 0.8051610
453.8559, 0.5826640
454.3380, 0.1846240
454.8202, 2.8690000E-03
455.3023, 2.3314999E-02
455.7844, 0.1183010
456.2665, 0.2923970
456.7486, 0.4705960
457.2307, 0.4350970
457.7129, 0.2051320
458.1950, 2.9083000E-02
458.6771, 0.1726990
459.1592, 0.4606550
459.6413, 0.5063550
460.1234, 0.2587890
460.6056, 3.1303000E-02
461.0877, 0.1902080
461.5698, 0.2331620
462.0519, 0.1863630
462.5340, 1.6426001E-02
463.0161, 0.2352680
463.4983, 0.4496920
463.9804, 0.6267240
464.4625, 0.6240390
464.9446, 8.8973999E-02
465.4267, 0.4306180
465.9088, 0.5721970
466.3910, 0.1477200
466.8731, 0.2532200
467.3552, 0.5633320
467.8373, 0.7715530
468.3194, 0.8606640
468.8015, 0.6827320
469.2837, 0.5616760
469.7658, 0.5468750
470.2479, 0.6315000
470.7300, 0.7609630
471.2121, 0.9568790
471.6942, 1.161537
472.1764, 1.362808
472.6585, 1.581261
473.1406, 1.675125
473.6227, 1.623596
474.1048, 1.476021
474.5869, 1.255020
475.0691, 0.9578090
475.5512, 0.7855990
476.0333, 0.8415910
476.5154, 1.046837
476.9975, 1.203247
477.4796, 1.313538
477.9618, 1.423370
478.4439, 1.586380
478.9260, 1.768005
479.4081, 1.879211
479.8902, 1.880577
480.3723, 1.930779
480.8545, 2.229004
481.3366, 2.662086
481.8187, 3.035408
482.3008, 3.308426
482.7829, 3.463264
483.2650, 3.432831
483.7472, 3.244484
484.2293, 3.101807
484.7114, 3.022255
485.1935, 3.044724
485.6756, 3.204788
486.1577, 3.580276
486.6399, 3.942932
487.1220, 4.310776
487.6041, 4.645638
488.0862, 4.889114
488.5683, 5.033966
489.0504, 5.097321
489.5326, 5.016838
490.0147, 4.833267
490.4968, 4.912033
490.9789, 5.339737
491.4610, 5.797256
491.9431, 6.032547
492.4253, 6.034088
492.9074, 6.286377
493.3895, 6.878487
493.8716, 7.529030
494.3537, 7.893539
494.8358, 7.992683
495.3180, 7.937363
495.8001, 7.596260
496.2822, 7.257042
496.7643, 7.467339
497.2464, 8.142891
497.7285, 8.839592
498.2107, 9.346741
498.6928, 9.693741
499.1749, 9.884720
499.6570, 9.882790
500.1391, 9.913513
500.6212, 10.11585
501.1034, 10.40942
501.5855, 10.70668
502.0676, 10.95396
502.5497, 11.22348
503.0318, 11.57956
503.5139, 11.99359
503.9961, 12.30025
504.4782, 12.35588
504.9603, 12.45273
505.4424, 12.72050
505.9245, 13.23744
506.4066, 13.62373
506.8888, 13.89857
507.3709, 14.02164
507.8530, 13.86780
508.3351, 13.35107
508.8172, 13.08829
509.2993, 13.26083
509.7815, 13.66160
510.2636, 13.72993
510.7457, 13.46302
511.2278, 13.29926
511.7099, 13.63211
512.1920, 14.22812
512.6741, 14.52422
513.1563, 14.50417
513.6384, 14.34683
514.1205, 14.09115
514.6026, 13.82856
515.0847, 13.71055
515.5668, 13.86597
516.0490, 14.01054
516.5311, 13.93563
517.0132, 13.72578
517.4953, 13.55127
517.9774, 13.44672
518.4595, 13.41225
518.9417, 13.53719
519.4238, 13.84016
519.9059, 13.87479
520.3880, 13.30025
520.8701, 12.68147
521.3522, 12.30841
521.8344, 12.19244
522.3165, 12.31403
522.7986, 12.85439
523.2807, 13.46178
523.7628, 13.53860
524.2449, 13.01851
524.7271, 12.56454
525.2092, 12.38212
525.6913, 12.39973
526.1734, 12.35714
526.6555, 12.25359
527.1376, 12.14651
527.6198, 12.12654
528.1019, 12.12691
528.5840, 11.93225
529.0661, 11.49168
529.5482, 11.11270
530.0303, 11.19995
530.5125, 11.51156
530.9946, 11.65570
531.4767, 11.40034
531.9588, 11.07006
532.4409, 10.75668
532.9230, 10.48376
533.4052, 10.26559
533.8873, 10.12937
534.3694, 10.03109
534.8515, 9.954193
535.3336, 9.894920
535.8157, 9.874840
536.2979, 9.985809
536.7800, 10.05591
537.2621, 9.923561
537.7442, 9.413780
538.2263, 9.200897
538.7084, 9.459595
539.1906, 9.904808
539.6727, 9.928726
540.1548, 9.495651
540.6369, 9.111343
541.1190, 9.018120
541.6011, 9.082199
542.0833, 8.835457
542.5654, 8.295135
543.0475, 7.831818
543.5296, 7.887749
544.0117, 8.139153
544.4938, 7.995522
544.9760, 7.309845
545.4581, 6.708473
545.9402, 6.903107
546.4223, 7.374649
546.9044, 7.459908
547.3865, 6.436264
547.8687, 5.526100
548.3508, 5.201111
548.8329, 5.313759
549.3150, 5.390434
549.7971, 5.317902
550.2792, 5.245819
550.7614, 5.257919
551.2435, 5.379791
551.7256, 5.295822
552.2077, 4.915108
552.6898, 4.471588
553.1719, 4.165527
553.6541, 4.026810
554.1362, 3.767021
554.6183, 3.311005
555.1004, 2.833931
555.5825, 2.660820
556.0646, 2.748749
556.5468, 2.842773
557.0289, 2.880241
557.5110, 2.843895
557.9931, 2.666801
558.4752, 2.372337
558.9573, 2.092529
559.4395, 2.005959
559.9216, 1.902603
560.4037, 1.506538
560.8858, 0.7312850
561.3679, 0.1926120
561.8500, 0.3462680
562.3322, 0.7397000
562.8143, 0.9814910
563.2964, 0.8170090
563.7785, 0.7390210
564.2606, 0.8673550
564.7427, 1.076027
565.2249, 1.111702
565.7070, 0.9165730
566.1891, 0.6644520
566.6712, 0.3521420
567.1533, 1.6510000E-02
567.6354, 9.4504997E-02
568.1176, 5.2452002E-02
568.5997, 0.2165990
569.0818, 0.1790700
569.5639, 1.1185000E-02
570.0460, 2.6435999E-02
570.5281, 0.2603380
571.0103, 0.5442500
571.4924, 0.7381440
571.9745, 0.8606110
572.4566, 0.9513020
572.9387, 1.043716
573.4208, 1.070564
573.9030, 0.9687190
574.3851, 0.7696610
574.8672, 0.5420000
575.3493, 0.2227940
575.8314, 3.9314002E-02
576.3135, 0.1598430
576.7957, 0.1361850
577.2778, 0.1565400
577.7599, 0.2880330
578.2420, 0.3959200
578.7241, 0.4006650
579.2062, 0.2704160
579.6884, 0.1791230
580.1705, 0.1529770
580.6526, 0.1117860
581.1347, 0.1031340
581.6168, 0.4820250
582.0989, 0.6707000
582.5811, 0.5511250
583.0632, 0.2879710
583.5453, 0.1129910
584.0274, 1.2192000E-02
584.5095, 5.9783999E-02
584.9916, 0.1270070
585.4738, 0.1761250
585.9559, 0.2162780
586.4380, 0.2388690
586.9201, 0.1802220
587.4022, 0.1639860
587.8843, 0.4728700
588.3665, 0.4729080
588.8486, 6.0973998E-02
589.3307, 0.2920150
589.8128, 0.2092740
590.2949, 0.8547210
590.7770, 1.113129
591.2592, 0.7828140
591.7413, 0.5270460
592.2234, 0.3864060
592.7055, 0.3755650
593.1876, 0.6291810
593.6697, 1.187668
594.1519, 1.493782
594.6340, 1.194435
595.1161, 0.5719760
595.5982, 0.3386760
596.0803, 0.4647060
596.5624, 0.6640550
597.0446, 0.7911000
597.5267, 0.8584670
598.0088, 0.8460160
598.4909, 0.7429660
598.9730, 0.1486510
599.4551, 0.7608340
599.9373, 1.117142
600.4194, 1.231316
600.9015, 0.3780140
601.3836, 0.7741240
601.8657, 0.6695860
602.3478, 0.5445940
602.8300, 1.116730
603.3121, 0.4044340
603.7942, 0.9655990
604.2763, 1.018478
604.7584, 1.304039
605.2405, 1.085861
605.7227, 1.023300
606.2048, 1.464714
606.6869, 1.627129
607.1690, 1.019905
607.6511, 1.035561
608.1332, 1.204357
608.6154, 1.338799
609.0975, 1.197300
609.5796, 0.9651150
610.0617, 0.9224130
610.5438, 1.181595
611.0259, 1.394302
611.5081, 1.344208
611.9902, 1.150425
612.4723, 0.9529880
612.9544, 0.6389730
613.4365, 0.4976160
613.9186, 0.6667980
614.4008, 1.029217
614.8829, 1.335041
615.3650, 1.588921
615.8471, 1.769661
616.3292, 1.867268
616.8113, 1.885117
617.2935, 1.827812
617.7756, 1.681183
618.2577, 1.565880
618.7398, 1.571487
619.2219, 1.669144
619.7040, 1.798721
620.1862, 1.958881
620.6683, 2.092648
621.1504, 2.141647
621.6325, 2.140102
622.1146, 2.115730
622.5967, 2.025955
623.0789, 2.029907
623.5610, 2.376015
624.0431, 2.809582
624.5252, 2.963879
625.0073, 2.310738
625.4894, 1.935333
625.9716, 2.157387
626.4537, 2.754795
626.9358, 2.977657
627.4179, 2.675053
627.9000, 2.409233
628.3821, 2.423698
628.8643, 2.665092
629.3464, 2.745922
629.8285, 2.656864
630.3106, 2.648304
630.7927, 3.057480
631.2748, 3.641384
631.7570, 3.918133
632.2391, 3.805618
632.7212, 3.590500
633.2033, 3.462574
633.6854, 3.363674
634.1675, 3.215019
634.6497, 2.906918
635.1318, 2.729275
635.6139, 2.800537
636.0960, 3.031521
636.5781, 3.283741
637.0602, 3.567410
637.5424, 3.890396
638.0245, 4.315010
638.5066, 4.739674
638.9887, 4.825905
639.4708, 4.518635
639.9529, 4.199623
640.4351, 3.987354
640.9172, 3.905483
641.3993, 4.057842
641.8814, 4.425636
642.3635, 4.901115
642.8456, 5.757420
643.3278, 6.507374
643.8099, 6.362095
644.2920, 5.167461
644.7741, 4.254368
645.2562, 4.566963
645.7383, 5.281574
646.2205, 5.717442
646.7026, 5.488926
647.1847, 5.475143
647.6668, 6.003204
648.1489, 6.622433
648.6310, 6.744915
649.1132, 6.195286
649.5953, 5.731052
650.0774, 5.465256
650.5595, 5.366852
651.0416, 5.400154
651.5237, 5.556324
652.0059, 5.715519
652.4880, 5.887299
652.9701, 6.005505
653.4522, 5.840286
653.9343, 5.469818
654.4164, 5.203415
654.8986, 5.392609
655.3807, 5.610794
655.8628, 5.515152
656.3449, 5.057217
656.8270, 4.720882
657.3091, 4.652481
657.7913, 4.679420
658.2734, 4.714901
658.7555, 4.782116
659.2376, 4.784050
659.7197, 4.710236
660.2018, 4.591766
660.6840, 4.446846
661.1661, 4.279003
661.6482, 4.141472
662.1303, 4.052879
662.6124, 3.965576
663.0945, 3.798691
663.5767, 3.581139
664.0588, 3.382130
664.5409, 3.199600
665.0230, 3.083321
665.5051, 3.144474
665.9872, 3.300945
666.4694, 3.349201
666.9515, 3.049496
667.4336, 2.814762
667.9157, 2.862011
668.3978, 3.138523
668.8799, 3.222176
669.3621, 3.032673
669.8442, 2.806530
670.3263, 2.633373
670.8084, 2.513912
671.2905, 2.513741
671.7726, 2.656277
672.2548, 2.691998
672.7369, 2.258690
673.2190, 1.598804
673.7011, 1.225414
674.1832, 1.209846
674.6653, 1.324539
675.1475, 1.481289
675.6296, 1.640018
676.1117, 1.764061
676.5938, 1.893093
677.0759, 1.896072
677.5580, 1.621140
678.0402, 1.252773
678.5223, 1.036842
679.0044, 1.069653
679.4865, 1.045845
679.9686, 0.9118500
680.4507, 0.7102320
680.9329, 0.4768180
681.4150, 0.2149200
681.8971, 0.1169280
682.3792, 0.3440630
682.8613, 0.6991000
683.3434, 0.8099060
683.8256, 0.7339710
684.3077, 0.7058720
684.7898, 1.019066
685.2719, 1.296070
685.7540, 1.173615
686.2361, 0.6793820
686.7183, 0.3629800
687.2004, 0.6504020
687.6825, 0.8909000
688.1646, 0.7327500
688.6467, 8.1836998E-02
689.1288, 0.2913860
689.6110, 0.3343120
690.0931, 0.2078440
690.5752, 3.5828002E-02
691.0573, 0.3772620
691.5394, 0.5239910
692.0215, 0.4328800
692.5037, 0.3133240
692.9858, 0.4725380
693.4679, 0.7423520
693.9500, 0.7633170
694.4321, 0.3609310
694.9142, 3.4560000E-03
695.3964, 9.6209999E-03
695.8785, 0.1952970
696.3606, 0.2914010
696.8427, 0.1757470
697.3248, 5.2845001E-02
697.8069, 8.8408999E-02
698.2891, 0.2088050
698.7712, 0.2181890
699.2533, 8.8650003E-02
699.7354, 5.8338001E-02
700.2175, 0.2309530
700.6996, 0.3667070
701.1818, 0.2369120
701.6639, 0.1137050
702.1460, 0.3802220
702.6281, 0.3689190
703.1102, 0.2149890
703.5923, 1.0754000E-02
704.0745, 0.2230610
704.5566, 0.3917310
705.0387, 0.4146540
705.5208, 0.3953860
706.0029, 0.3581470
706.4850, 0.2980310
706.9672, 0.3450850
707.4493, 0.5965230
707.9314, 0.8125340
708.4135, 0.8612520
708.8956, 0.7349930
709.3777, 0.4894790
709.8599, 8.0169998E-02
710.3420, 0.1751400
710.8241, 0.2319760
711.3062, 0.9865190
711.7883, 1.317211
712.2704, 1.101151
712.7525, 0.7310220
713.2346, 0.3647000
713.7167, 6.9920003E-02
714.1989, 6.9674999E-02
714.6810, 6.6917002E-02
715.1631, 0.1750950
715.6452, 0.1937290
716.1273, 0.1640400
716.6094, 0.1127590
717.0916, 4.6200000E-04
717.5737, 2.5410000E-03
718.0558, 0.1613660
718.5379, 0.3869360
719.0200, 0.4814340
719.5021, 0.4606320
719.9843, 0.4367290
720.4664, 0.4253160
720.9485, 0.4568440
721.4306, 0.6056140
721.9127, 0.8266910
722.3948, 1.011471
722.8770, 1.156952
723.3591, 1.209446
723.8412, 1.102657
724.3233, 0.8734020
724.8054, 0.6748960
725.2875, 0.4527440
725.7697, 0.3731380
726.2518, 0.5277600
726.7339, 0.8438840
727.2160, 1.016640
727.6981, 1.038837
728.1802, 0.9953270
728.6624, 0.8848000
729.1445, 0.7557640
729.6266, 0.7370030
730.1087, 0.8141020
730.5908, 0.8617210
731.0729, 0.7573170
731.5551, 0.6305470
732.0372, 0.5720330
732.5193, 0.5926280
733.0014, 0.6471100
733.4835, 0.8166080
733.9656, 0.9383470
734.4478, 0.9204900
734.9299, 0.7386780
735.4120, 0.5621530
735.8941, 0.3635900
736.3762, 0.2649230
736.8583, 0.4486050
737.3405, 0.8296170
737.8226, 1.102280
738.3047, 1.241669
738.7868, 1.245064
739.2689, 0.9622120
739.7510, 0.6092000
740.2332, 0.4442480
740.7153, 0.5682300
741.1974, 0.7408600
741.6795, 0.9292830
742.1616, 1.114105
742.6437, 1.297779
743.1259, 1.576332
743.6080, 1.566078
744.0901, 1.120724
744.5722, 0.5825460
745.0543, 0.4955180
745.5364, 0.8067170
746.0186, 1.053974
746.5007, 1.151237
746.9828, 1.093578
747.4649, 0.7579420
747.9470, 0.3396030
748.4291, 0.1675260
748.9113, 0.6821630
749.3934, 1.035480
749.8755, 0.6973950
750.3576, 4.9582999E-02
750.8397, 0.1381570
751.3218, 0.4974940
751.8040, 0.9129830
752.2861, 0.8640590
752.7682, 0.5383760
753.2503, 0.4200170
753.7324, 0.5074770
754.2145, 0.5704380
754.6967, 0.5017090
755.1788, 0.3899150
755.6609, 0.3554650
756.1430, 0.3806950
756.6251, 0.4216880
757.1072, 0.4521370
757.5894, 0.5145190
758.0715, 0.6501200
758.5536, 0.8347890
759.0357, 0.9754830
759.5178, 1.125622
759.9999, 1.090778
760.4821, 0.7369350
760.9642, 0.1903650
761.4463, 8.2599998E-02
761.9284, 0.4222530
762.4105, 0.6872370
762.8926, 0.4547390
763.3748, 4.7210999E-02
763.8569, 7.0358001E-02
764.3390, 0.4485170
764.8211, 0.7889440
765.3032, 0.9486470
765.7853, 0.9528200
766.2675, 0.7111210
766.7496, 0.2339440
767.2317, 2.7287001E-02
767.7138, 0.2890780
768.1959, 0.5488700
768.6780, 0.6487920
769.1602, 0.5864030
769.6423, 0.4712640
770.1244, 0.2924420
770.6065, 0.2162020
771.0886, 0.5166240
771.5707, 0.9293020
772.0529, 0.8891940
772.5350, 0.4308970
773.0171, 9.3895003E-02
773.4992, 0.3322220
773.9813, 0.6837460
774.4634, 0.8442270
774.9456, 0.7546620
775.4277, 0.6698490
775.9098, 0.5794830
776.3919, 0.5356790
776.8740, 0.6086270
777.3561, 0.8020740
777.8383, 0.7954250
778.3204, 0.5756030
778.8025, 0.3106040
779.2846, 8.1799001E-02
779.7667, 7.7549003E-02
780.2488, 6.2481001E-02
780.7310, 0.1376530
781.2131, 0.2948340
781.6952, 0.2735400
782.1773, 0.1715550
782.6594, 1.9653000E-02
783.1415, 0.2504390
783.6237, 0.2699620
784.1058, 0.1270220
784.5879, 0.5304410
785.0700, 0.5970500
785.5521, 0.3278270
786.0342, 0.2222670
786.5164, 0.3049130
786.9985, 0.4283830
787.4806, 0.4541970
787.9627, 0.4365230
788.4448, 0.4523120
788.9269, 0.5124740
789.4091, 0.6063420
789.8912, 0.8555910
790.3733, 1.052216
790.8554, 1.004902
791.3375, 0.5799710
791.8196, 0.3062060
792.3018, 0.2293130
792.7839, 0.2132610
793.2660, 0.1172520
793.7481, 4.3591000E-02
794.2302, 5.4871000E-02
794.7123, 0.1118010
795.1945, 0.2954790
795.6766, 0.3501130
796.1587, 0.3366010
796.6408, 0.3304100
797.1229, 0.3456040
797.6050, 0.3606380
798.0872, 0.3069950
798.5693, 0.2967910
799.0514, 0.4558790
799.5335, 0.9583550
800.0156, 1.013489
800.4977, 0.4556660
800.9799, 0.1364250
801.4620, 0.1218830
801.9441, 0.3646620
802.4262, 0.6961750
802.9083, 0.8069990
803.3904, 0.8303450
803.8726, 0.8372270
804.3547, 0.8368720
804.8368, 0.8584590
805.3189, 0.9442330
805.8010, 0.9092710
806.2831, 0.5197300
806.7653, 0.1454930
807.2474, 4.6726000E-02
807.7295, 0.2844700
808.2116, 0.5411490
808.6937, 0.8399200
809.1758, 1.039593
809.6580, 0.8452870
810.1401, 0.4337080
810.6222, 0.2855530
811.1043, 0.4700430
811.5864, 0.6754150
812.0685, 0.7052270
812.5507, 0.6545490
813.0328, 0.6021310
813.5149, 0.5675770
813.9970, 0.4931490
814.4791, 0.3037870
814.9612, 0.1647220
815.4434, 0.2325520
815.9255, 0.5159030
816.4076, 0.6975170
816.8897, 0.7700810
817.3718, 0.7353630
817.8539, 0.4394040
818.3361, 0.1013570
818.8182, 0.1135860
819.3003, 0.5425380
819.7824, 0.9157330
820.2645, 1.019115
820.7466, 0.9852260
821.2288, 0.8805050
821.7109, 0.6854170
822.1930, 0.5604360
822.6751, 0.5217970
823.1572, 0.5073930
823.6393, 0.4698070
824.1215, 0.4154090
824.6036, 0.3825870
825.0857, 0.3721280
825.5678, 0.3846700
826.0499, 0.4680560
826.5320, 0.5405500
827.0142, 0.4861760
827.4963, 0.2814750
827.9784, 0.1894110
828.4605, 0.3556100
828.9426, 0.5757370
829.4247, 0.8037800
829.9069, 1.046986
830.3890, 1.042728
830.8711, 0.7212640
831.3532, 0.3802640
831.8353, 0.2632100
832.3174, 0.2963410
832.7996, 0.3770830
833.2817, 0.4915120
833.7638, 0.5494270
834.2459, 0.4198720
834.7280, 0.2898410
835.2101, 0.2966230
835.6923, 0.4515340
836.1744, 0.4769520
836.6565, 0.2525710
837.1386, 0.1466600
837.6207, 0.4118000
838.1028, 0.9166640
838.5850, 0.9977110
839.0671, 0.6799930
839.5492, 0.3257060
840.0313, 5.9353001E-02
840.5134, 6.5844998E-02
840.9955, 8.9732997E-02
841.4777, 0.4612580
841.9598, 0.7210850
842.4419, 0.7065350
842.9240, 0.5999490
843.4061, 0.3772010
843.8882, 0.1084710
844.3704, 0.1634860
844.8525, 0.5962680
845.3346, 0.9412770
845.8167, 1.003681
846.2988, 0.8944020
846.7809, 0.7720340
847.2631, 0.6430700
847.7452, 0.5263210
848.2273, 0.3480030
848.7094, 0.2720300
849.1915, 0.4866220
849.6736, 0.8524740
850.1558, 0.9855580
850.6379, 0.7481120
851.1200, 0.5692250
851.6021, 0.5388530
852.0842, 0.6020510
852.5663, 0.6853370
853.0485, 0.7699280
853.5306, 0.7253570
854.0127, 0.3798290
854.4948, 0.1589240
854.9769, 0.6809390
855.4590, 1.499901
855.9412, 1.957230
856.4233, 1.492313
856.9054, 1.174191
857.3875, 1.123817
857.8696, 1.208267
858.3517, 1.297539
858.8339, 1.394962
859.3160, 1.385689
859.7981, 1.233982
860.2802, 1.062721
860.7623, 1.082317
861.2444, 1.156452
861.7266, 1.007629
862.2087, 0.4322050
862.6908, 0.1199380
863.1729, 0.7257420
863.6550, 1.430962
864.1371, 1.509232
864.6193, 0.6854780
865.1014, 0.2307850
865.5835, 0.1884840
866.0656, 0.3494420
866.5477, 0.5932160
867.0298, 0.8837930
867.5120, 1.127934
867.9941, 1.291176
868.4762, 1.422935
868.9583, 1.720413
869.4404, 1.875507
869.9225, 1.554901
870.4047, 0.6213380
870.8868, 0.1141360
871.3689, 0.1656840
871.8510, 0.4025650
872.3331, 0.7222250
872.8152, 1.069489
873.2974, 1.059887
873.7795, 0.7253000
874.2616, 0.4611170
874.7437, 0.6498260
875.2258, 0.9104460
875.7079, 0.8549500
876.1901, 0.5521280
876.6722, 0.4268490
877.1543, 0.8323820
877.6364, 1.103271
878.1185, 1.030056
878.6006, 0.7297480
879.0828, 0.6420440
879.5649, 0.7654720
880.0470, 0.7637100
880.5291, 0.3947140
881.0112, 6.3290000E-03
881.4933, 0.1111340
881.9755, 0.5217550
882.4576, 0.8532560
882.9397, 1.005463
883.4218, 1.008461
883.9039, 0.7666210
884.3860, 0.4346240
884.8682, 0.2236100
885.3503, 0.1434860
885.8324, 0.1385270
886.3145, 0.2301900
886.7966, 0.2913820
887.2787, 4.2052999E-02
887.7609, 0.4721830
888.2430, 0.3379670
888.7251, 0.7368660
889.2072, 1.537849
889.6893, 1.211571
890.1714, 0.6168290
890.6536, 0.5243000
891.1357, 1.169529
891.6178, 1.332729
892.0999, 0.9057770
892.5820, 0.3869320
893.0641, 0.1999170
893.5463, 0.2581750
894.0284, 0.3859560
894.5105, 0.5609930
894.9926, 0.6330030
895.4747, 0.3522610
895.9568, 7.4234001E-02
896.4390, 5.0774001E-02
896.9211, 0.2950170
897.4032, 0.4759450
897.8853, 0.5805630
898.3674, 0.6612970
898.8495, 0.7767180
899.3317, 0.8708760
899.8138, 0.7001990
900.2959, 0.3273320
900.7780, 5.3566001E-02
901.2601, 0.1241950
901.7422, 0.2655300
902.2244, 0.3010140
902.7065, 0.2756310
903.1886, 0.3123280
903.6707, 0.4956890
904.1528, 0.5856820
904.6349, 0.4942250
905.1171, 0.3628310
905.5992, 0.5438040
906.0813, 0.9431420
906.5634, 1.014454
907.0455, 0.5328600
907.5276, 3.5500001E-02
908.0098, 3.4306001E-02
908.4919, 0.2392230
908.9740, 0.3205450
909.4561, 0.1543460
909.9382, 6.0738001E-02
910.4203, 2.3682000E-02
910.9025, 7.3161997E-02
911.3846, 0.2982790
911.8667, 0.6609460
912.3488, 0.6968120
912.8309, 0.3856160
913.3130, 4.9072001E-02
913.7952, 9.7297996E-02
914.2773, 0.1247860
914.7594, 6.3037999E-02
915.2415, 8.0402002E-02
915.7236, 0.1694790
916.2057, 0.1246030
916.6879, 0.1118930
917.1700, 0.2149620
917.6521, 0.4002190
918.1342, 0.4088710
918.6163, 0.2686390
919.0984, 0.2047390
919.5806, 0.3770330
920.0627, 0.6131940
920.5448, 0.7872770
921.0269, 0.8954090
921.5090, 0.9337010
921.9911, 0.8389780
922.4733, 0.7624510
922.9554, 0.7622910
923.4375, 0.7459410
923.9196, 0.4984210
924.4017, 4.2815998E-02
924.8839, 0.1526830
925.3660, 1.4786000E-02
925.8481, 0.2650720
926.3302, 0.3343620
926.8123, 0.3339810
927.2944, 0.3995740
927.7766, 0.5833780
928.2587, 0.7205310
928.7408, 0.8220630
929.2229, 0.8359110
929.7050, 0.6694340
930.1871, 0.3450280
930.6693, 0.2932780
931.1514, 0.5079150
931.6335, 0.6893420
932.1156, 0.5674820
932.5977, 0.3714260
933.0798, 0.3168490
933.5620, 0.3821560
934.0441, 0.4231570
934.5262, 0.3297690
935.0083, 0.3265500
935.4904, 0.5177120
935.9725, 0.7838210
936.4547, 0.8045430
936.9368, 0.6079980
937.4189, 0.4753610
937.9010, 0.4993670
938.3831, 0.5864140
938.8652, 0.6751100
939.3474, 0.7631340
939.8295, 0.8508150
940.3116, 1.029095
940.7937, 1.022171
941.2758, 0.7203370
941.7579, 0.3879130
942.2401, 0.2771570
942.7222, 0.3649900
943.2043, 0.4890630
943.6864, 0.6392290
944.1685, 0.7130810
944.6506, 0.5090100
945.1328, 0.2882420
945.6149, 0.3264430
946.0970, 0.6591950
946.5791, 0.7195780
947.0612, 0.2575300
947.5433, 0.1280940
948.0255, 0.2193370
948.5076, 0.1075400
948.9897, 7.5943001E-02
949.4718, 9.6657000E-02
949.9539, 1.7418001E-02
950.4360, 0.3397600
950.9182, 0.6500890
951.4003, 0.6459690
951.8824, 0.4718440
952.3645, 0.3507080
952.8466, 0.2993350
953.3287, 0.3280180
953.8109, 0.4852790
954.2930, 0.6187740
954.7751, 0.4470140
955.2572, 0.1112370
955.7393, 0.1407050
956.2214, 0.5961610
956.7036, 0.9786070
957.1857, 0.9074970
957.6677, 0.6991230
958.1498, 0.5405620
958.6320, 0.4445110
959.1141, 0.4076610
959.5962, 0.4346240
960.0783, 0.5072440
960.5604, 0.6403810
961.0425, 0.7938390
961.5247, 0.9114270
962.0068, 0.9777760
962.4889, 0.9502140
962.9710, 0.7325780
963.4531, 0.5071950
963.9352, 0.2586170
964.4174, 8.3786003E-02
964.8995, 0.1820490
965.3816, 0.6930770
965.8637, 0.7312770
966.3458, 0.1205640
966.8279, 0.5185550
967.3101, 0.3868640
967.7922, 0.1035000
968.2743, 0.3534510
968.7564, 0.2815670
969.2385, 0.1735150
969.7206, 3.4649000E-02
970.2028, 9.5560001E-03
970.6849, 0.1325260
971.1670, 0.4257430
971.6491, 0.5756150
972.1312, 0.5838700
972.6133, 0.6372720
973.0955, 0.9553870
973.5776, 1.217983
974.0597, 0.8927570
974.5418, 0.2586560
975.0239, 0.1218830
975.5060, 0.1149330
975.9882, 0.3586960
976.4703, 0.5865330
976.9524, 0.7457920
977.4345, 0.7374880
977.9166, 0.5835460
978.3987, 0.4584310
978.8809, 0.3798600
979.3630, 0.3739430
979.8451, 0.5479810
980.3272, 0.7449150
980.8093, 0.8262290
981.2914, 0.7728460
981.7736, 0.6995930
982.2557, 0.6049460
982.7378, 0.4702380
983.2199, 0.2502590
983.7020, 5.0438002E-02
984.1841, 0.2776870
984.6663, 0.8033980
985.1484, 1.174637
985.6305, 1.153244
986.1126, 0.9946900
986.5947, 0.6473730
987.0768, 0.3183860
987.5590, 0.3223460
988.0411, 0.8062670
988.5232, 1.081440
989.0053, 1.090866
989.4874, 0.9908030
989.9695, 0.9360050
990.4517, 0.8784290
990.9338, 0.6931690
991.4159, 0.3804400
991.8980, 0.1767770
992.3801, 0.2436070
992.8622, 0.3731040
993.3444, 0.5002440
993.8265, 0.6228370
994.3086, 0.7452050
994.7907, 0.8673710
995.2728, 0.9055140
995.7549, 0.8055690
996.2371, 0.6553420
996.7192, 0.4552880
997.2013, 0.2992970
997.6834, 0.3324170
998.1655, 0.7993620
998.6476, 1.080425
999.1298, 1.093929
999.6119, 1.030148
1000.094, 1.105061
1000.576, 1.254829
1001.058, 1.029049
1001.540, 0.4634400
1002.022, 0.1871680
1002.505, 1.065086
1002.987, 1.919453
1003.469, 1.856651
1003.951, 1.100479
1004.433, 0.7221870
1004.915, 0.7924120
1005.397, 0.9723780
1005.879, 1.265915
1006.362, 1.491318
1006.844, 1.216621
1007.326, 0.6963160
1007.808, 0.4110340
1008.290, 0.5292890
1008.772, 0.7071380
1009.254, 1.011917
1009.736, 1.175694
1010.218, 0.9421230
1010.701, 0.3188480
1011.183, 0.1793440
1011.665, 0.5098230
1012.147, 0.8217010
1012.629, 0.7240140
1013.111, 0.5410540
1013.593, 0.5808110
1014.075, 0.7754590
1014.557, 0.9225200
1015.040, 1.011047
1015.522, 1.008503
1016.004, 0.8668790
1016.486, 0.7167780
1016.968, 0.7708170
1017.450, 0.9626690
1017.932, 1.127762
1018.414, 1.250057
1018.897, 1.200466
1019.379, 0.6325990
1019.861, 0.1193050
1020.343, 7.8285001E-02
1020.825, 0.4515460
1021.307, 0.6262020
1021.789, 0.5843730
1022.271, 0.5202450
1022.753, 0.5474970
1023.236, 0.5507430
1023.718, 0.2691040
1024.200, 0.1195870
1024.682, 0.3333590
1025.164, 1.5179000E-02
1025.646, 0.1877440
1026.128, 0.1108970
1026.610, 8.6209998E-03
1027.093, 0.1452220
1027.575, 0.4711460
1028.057, 0.6851620
1028.539, 0.7854770
1029.021, 0.8324740
1029.503, 0.7724570
1029.985, 0.7596400
1030.467, 0.9864080
1030.949, 1.346306
1031.432, 1.396805
1031.914, 1.030811
1032.396, 0.8697660
1032.878, 1.110344
1033.360, 1.449448
1033.842, 1.405521
1034.324, 1.151707
1034.806, 0.9693370
1035.289, 0.9379430
1035.771, 0.8474880
1036.253, 0.5437700
1036.735, 0.2975650
1037.217, 0.2808340
1037.699, 0.4381940
1038.181, 0.3828850
1038.663, 0.1490400
1039.146, 5.9320000E-03
1039.628, 0.1585580
1040.110, 0.3699570
1040.592, 0.4299810
1041.074, 0.4656180
1041.556, 0.7305870
1042.038, 1.428280
1042.520, 1.696510
1043.002, 1.420998
1043.484, 0.9973450
1043.967, 0.7539100
1044.449, 0.6360660
1044.931, 0.5393220
1045.413, 0.4640850
1045.895, 0.4819030
1046.377, 0.7662810
1046.859, 0.9615940
1047.341, 0.9457970
1047.824, 0.7973710
1048.306, 0.6906780
1048.788, 0.6230850
1049.270, 0.5768050
1049.752, 0.5467340
1050.234, 0.5405810
1050.716, 0.5725820
1051.198, 0.6265220
1051.681, 0.6954420
1052.163, 0.7820550
1052.645, 0.8521120
1053.127, 0.9162940
1053.609, 0.9138300
1054.091, 0.7660710
1054.573, 0.5729370
1055.055, 0.4843830
1055.537, 0.4958380
1056.020, 0.5639000
1056.502, 0.6760750
1056.984, 0.7791860
1057.466, 0.9544030
1057.948, 1.023552
1058.430, 0.6393780
1058.912, 6.6340998E-02
1059.394, 0.1487390
1059.876, 0.4112010
1060.359, 0.8769490
1060.841, 0.5244410
1061.323, 0.1677890
1061.805, 0.4334720
1062.287, 1.097130
1062.769, 1.402382
1063.251, 1.306797
1063.733, 1.114815
1064.216, 0.8596270
1064.698, 0.6423840
1065.180, 0.5827790
1065.662, 0.6283950
1066.144, 0.7477070
1066.626, 0.9664760
1067.108, 1.023296
1067.590, 0.7824710
1068.073, 0.6148720
1068.555, 0.7461550
1069.037, 1.034161
1069.519, 1.068527
1070.001, 0.8964730
1070.483, 0.6761670
1070.965, 0.3789180
1071.447, 0.1893880
1071.929, 0.2308690
1072.411, 0.3813740
1072.894, 0.5606270
1073.376, 0.7791710
1073.858, 0.8389320
1074.340, 0.7356340
1074.822, 0.6392210
1075.304, 0.7267650
1075.786, 0.8262330
1076.268, 0.7739750
1076.751, 0.6097720
1077.233, 0.4744680
1077.715, 0.3542060
1078.197, 0.3381230
1078.679, 0.4675370
1079.161, 0.6074490
1079.643, 0.5241050
1080.125, 0.3604350
1080.608, 0.4003680
1081.090, 0.6816900
1081.572, 0.8765220
1082.054, 0.7993850
1082.536, 0.7041170
1083.018, 0.7120060
1083.500, 0.7567410
1083.982, 0.6359250
1084.464, 0.4038700
1084.947, 0.3450890
1085.429, 0.6059300
1085.911, 0.8567390
1086.393, 0.9132350
1086.875, 0.8667640
1087.357, 0.8120120
1087.839, 0.7580180
1088.321, 0.4987600
1088.803, 1.2569000E-02
1089.286, 0.2863010
1089.768, 1.2455000E-02
1090.250, 0.3875430
1090.732, 0.3851660
1091.214, 0.1909520
1091.696, 0.2147750
1092.178, 0.7386280
1092.660, 1.018532
1093.142, 0.9899250
1093.625, 0.8560640
1094.107, 0.7554890
1094.589, 0.7010960
1095.071, 0.7483900
1095.553, 0.8791620
1096.035, 0.9872360
1096.517, 0.9810940
1096.999, 0.9738880
1097.482, 0.9992560
1097.964, 1.025913
1098.446, 1.018208
1098.928, 0.9690090
1099.410, 0.7925450
1099.892, 0.4659420
1100.374, 0.2550620
1100.856, 0.3950350
1101.339, 0.6454700
1101.821, 0.9332620
1102.303, 1.208752
1102.785, 1.166943
1103.267, 0.7958030
1103.749, 0.5288010
1104.231, 0.5048980
1104.713, 0.6203840
1105.195, 0.8796650
1105.677, 1.159702
1106.160, 1.338352
1106.642, 1.410568
1107.124, 1.258041
1107.606, 0.7957270
1108.088, 0.4437480
1108.570, 0.4845350
1109.052, 0.7005810
1109.534, 0.7394260
1110.017, 0.6625440
1110.499, 0.6018450
1110.981, 0.6929660
1111.463, 0.6338650
1111.945, 0.3487280
1112.427, 1.8897999E-02
1112.909, 0.3101310
1113.391, 0.5518910
1113.874, 0.2310330
1114.356, 0.5365870
1114.838, 1.013336
1115.320, 0.4770430
1115.802, 4.9362000E-02
1116.284, 0.1579170
1116.766, 0.5219730
1117.248, 0.8496550
1117.730, 1.131111
1118.213, 1.038197
1118.695, 0.5388410
1119.177, 0.1193160
1119.659, 0.2079810
1120.141, 0.4324070
1120.623, 0.5806350
1121.105, 0.6549640
1121.587, 0.6962050
1122.069, 0.7002260
1122.552, 0.6824490
1123.034, 0.6548080
1123.516, 0.6343540
1123.998, 0.6758270
1124.480, 0.7059360
1124.962, 0.5887370
1125.444, 0.2936060
1125.926, 0.3234410
1126.409, 0.8029820
1126.891, 1.171097
1127.373, 1.218216
1127.855, 1.064751
1128.337, 0.7816620
1128.819, 0.4739650
1129.301, 0.3162650
1129.783, 0.3729210
1130.266, 0.5473900
1130.748, 0.9339450
1131.230, 1.216816
1131.712, 1.189518
1132.194, 0.9426540
1132.676, 0.6026570
1133.158, 0.2633480
1133.640, 0.1928370
1134.122, 0.8639870
1134.604, 1.235409
1135.087, 0.8953590
1135.569, 0.3894080
1136.051, 0.1204190
1136.533, 7.4821003E-02
1137.015, 0.1810340
1137.497, 0.4165040
1137.979, 0.6438520
1138.461, 0.7835460
1138.944, 0.8516540
1139.426, 0.9335330
1139.908, 0.9586260
1140.390, 0.7384300
1140.872, 0.2742350
1141.354, 0.2077480
1141.836, 0.5932390
1142.318, 0.9016650
1142.801, 0.6289750
1143.283, 0.2670170
1143.765, 0.1260680
1144.247, 0.1803250
1144.729, 0.3255350
1145.211, 0.5971950
1145.693, 0.8189660
1146.175, 0.9596940
1146.657, 1.006927
1147.140, 0.8527760
1147.622, 0.6901210
1148.104, 0.7106320
1148.586, 0.9135210
1149.068, 1.001099
1149.550, 0.9233470
1150.032, 0.9862560
1150.514, 1.330452
1150.996, 1.646992
1151.479, 1.488983
1151.961, 1.071163
1152.443, 0.5964010
1152.925, 5.5840001E-02
1153.407, 0.1065480
1153.889, 0.2809640
1154.371, 0.6185990
1154.853, 0.6470410
1155.336, 0.5549510
1155.818, 0.7884560
1156.300, 1.124542
1156.782, 1.104942
1157.264, 0.4397160
1157.746, 3.8970999E-02
1158.228, 0.1005860
1158.710, 0.2375870
1159.193, 0.2422220
1159.675, 0.1827700
1160.157, 0.2450140
1160.639, 0.3715440
1161.121, 0.4255490
1161.603, 0.2454070
1162.085, 0.2161100
1162.567, 0.5245930
1163.049, 0.8464090
1163.531, 0.9635620
1164.014, 0.9048810
1164.496, 0.7684820
1164.978, 0.5739250
1165.460, 0.4001960
1165.942, 0.2199630
1166.424, 0.1573100
1166.906, 0.3509060
1167.388, 0.5711590
1167.871, 0.5877880
1168.353, 0.4267080
1168.835, 0.3188930
1169.317, 0.2656360
1169.799, 0.2176250
1170.281, 8.8436000E-02
1170.763, 1.1883000E-02
1171.245, 0.1192860
1171.728, 0.3039780
1172.210, 0.3584480
1172.692, 0.2839510
1173.174, 0.3577160
1173.656, 0.5894660
1174.138, 0.7352180
1174.620, 0.4852560
1175.102, 0.2544520
1175.584, 0.3438570
1176.067, 0.5913050
1176.549, 0.7236900
1177.031, 0.7404560
1177.513, 0.6336250
1177.995, 0.3979910
1178.477, 0.1596150
1178.959, 7.8547999E-02
1179.441, 0.1916580
1179.923, 6.2680002E-03
1180.406, 0.3680760
1180.888, 0.6424980
1181.370, 0.8175090
1181.852, 0.7421800
1182.334, 0.3499410
1182.816, 1.4412000E-02
1183.298, 3.9100000E-03
1183.780, 0.1260950
1184.263, 0.1667210
1184.745, 0.1301920
1185.227, 0.1562190
1185.709, 0.2506330
1186.191, 0.3456690
1186.673, 0.4353790
1187.155, 0.4641270
1187.637, 0.3043630
1188.120, 0.1099010
1188.602, 2.9285001E-02
1189.084, 6.7805998E-02
1189.566, 0.1622310
1190.048, 0.3164900
1190.530, 0.5130200
1191.012, 0.7867510
1191.494, 0.9916500
1191.976, 0.8852460
1192.458, 0.6765140
1192.941, 0.6212040
1193.423, 0.7548680
1193.905, 0.7293210
1194.387, 0.5304110
1194.869, 0.2417180
1195.351, 0.2093470
1195.833, 0.5104330
1196.315, 8.2934998E-02
1196.798, 0.5808790
1197.280, 0.8535000
1197.762, 0.6229130
1198.244, 0.3638380
1198.726, 5.2113000E-02
1199.208, 0.1164280
1199.690, 5.9900002E-04
1200.172, 0.2314070
1200.655, 0.5287700
1201.137, 0.7548870
1201.619, 0.6621930
1202.101, 0.1015930
1202.583, 0.2028200
1203.065, 0.2359620
1203.547, 0.1056710
1204.029, 0.2707440
1204.511, 0.6053470
1204.994, 0.4154700
1205.476, 1.0151000E-02
1205.958, 7.3840998E-02
1206.440, 0.3557170
1206.922, 0.6014820
1207.404, 0.6402090
1207.886, 0.6773830
1208.368, 0.9473840
1208.850, 1.186825
1209.333, 0.9856800
1209.815, 0.5683520
1210.297, 0.3664820
1210.779, 0.5051460
1211.261, 0.5313110
1211.743, 0.4363750
1212.225, 0.4194300
1212.707, 0.7996060
1213.190, 1.183643
1213.672, 1.020370
1214.154, 0.5800670
1214.636, 0.4632230
1215.118, 0.8976440
1215.600, 0.9570730
1216.082, 0.5790180
1216.564, 0.1659160
1217.047, 3.3714000E-02
1217.529, 6.0493000E-02
1218.011, 0.1127280
1218.493, 0.4121510
1218.975, 0.6664010
1219.457, 0.8385160
1219.939, 1.129265
1220.421, 1.581318
1220.903, 1.823601
1221.385, 1.288017
1221.868, 0.6511500
1222.350, 0.5989650
1222.832, 0.9054220
1223.314, 0.9438590
1223.796, 0.5885700
1224.278, 0.5451010
1224.760, 0.8892520
1225.242, 1.174801
1225.725, 0.9108010
1226.207, 0.5667380
1226.689, 0.5653310
1227.171, 0.7893140
1227.653, 0.9029580
1228.135, 0.8948210
1228.617, 0.8026200
1229.099, 0.6265110
1229.582, 0.5534900
1230.064, 0.9488830
1230.546, 1.297241
1231.028, 1.102093
1231.510, 0.5860060
1231.992, 0.2724340
1232.474, 0.1660880
1232.956, 0.2637630
1233.438, 0.5689470
1233.921, 0.8595280
1234.403, 0.9786030
1234.885, 1.010906
1235.367, 0.9797100
1235.849, 0.9460560
1236.331, 1.068073
1236.813, 1.340248
1237.295, 1.345409
1237.777, 1.065155
1238.260, 0.8237460
1238.742, 0.9547580
1239.224, 1.087585
1239.706, 0.9331170
1240.188, 0.6796230
1240.670, 0.6545560
1241.152, 0.8413660
1241.634, 1.041592
1242.117, 1.227955
1242.599, 1.227955
1243.081, 0.4815290
1243.563, 8.0406003E-02
1244.045, 0.7919430
1244.527, 1.861317
1245.009, 1.906216
1245.491, 1.149158
1245.974, 0.8912580
1246.456, 1.250027
1246.938, 1.538486
1247.420, 1.245125
1247.902, 1.033504
1248.384, 1.166218
1248.866, 1.429974
1249.348, 1.467552
1249.830, 1.360153
1250.313, 1.426617
1250.795, 1.620289
1251.277, 1.737980
1251.759, 1.517956
1252.241, 1.271145
1252.723, 1.032330
1253.205, 0.8607100
1253.687, 0.7728540
1254.169, 0.7546500
1254.652, 0.9053570
1255.134, 1.240616
1255.616, 1.359100
1256.098, 0.8927000
1256.580, 0.6572340
1257.062, 0.8392220
1257.544, 1.130325
1258.026, 1.100765
1258.509, 0.9287800
1258.991, 0.8856700
1259.473, 0.9815860
1259.955, 1.122074
1260.437, 1.360897
1260.919, 1.449066
1261.401, 1.318935
1261.883, 1.110844
1262.365, 0.9137610
1262.848, 0.7777520
1263.330, 0.8489150
1263.812, 1.071163
1264.294, 1.081455
1264.776, 0.8031160
1265.258, 0.5841100
1265.740, 0.4677120
1266.222, 0.4497300
1266.704, 0.5441890
1267.187, 0.7197840
1267.669, 1.020897
1268.151, 1.375576
1268.633, 1.541698
1269.115, 1.504147
1269.597, 1.460545
1270.079, 1.434917
1270.561, 1.355949
1271.044, 1.038353
1271.526, 0.7759670
1272.008, 0.8329090
1272.490, 1.055313
1272.972, 1.211334
1273.454, 1.296921
1273.936, 1.234985
1274.418, 1.023537
1274.901, 0.8445850
1275.383, 0.8801800
1275.865, 0.8899270
1276.347, 0.7497060
1276.829, 0.5677220
1277.311, 0.5055200
1277.793, 0.5378650
1278.275, 0.5717200
1278.757, 0.5982360
1279.240, 0.6061250
1279.722, 0.5036960
1280.204, 0.5283090
1280.686, 0.7937850
1281.168, 1.064518
1281.650, 1.040512
1282.132, 0.8185460
1282.614, 0.4797710
1283.096, 0.1064260
1283.579, 7.7091001E-02
1284.061, 0.8730930
1284.543, 1.207920
1285.025, 0.8238910
1285.507, 0.4259190
1285.989, 0.9504010
1286.471, 1.696156
1286.953, 1.572392
1287.436, 0.8741000
1287.918, 0.7681620
1288.400, 1.620556
1288.882, 1.894310
1289.364, 1.439461
1289.846, 0.8545570
1290.328, 0.5976940
1290.810, 0.4478110
1291.292, 0.1043850
1291.775, 0.1968000
1292.257, 6.7401998E-02
1292.739, 0.9707220
1293.221, 1.309265
1293.703, 1.055603
1294.185, 0.7825050
1294.667, 0.9636310
1295.149, 1.088779
1295.631, 0.7489050
1296.114, 0.3309170
1296.596, 0.2251970
1297.078, 0.3953860
1297.560, 0.6477550
1298.042, 0.9476660
1298.524, 1.142372
1299.006, 1.005024
1299.488, 0.9269370
1299.971, 0.8126110
1300.453, 0.7136540
1300.935, 0.6928330
1301.417, 0.7251970
1301.899, 0.8147200
1302.381, 0.8994940
1302.863, 0.8150750
1303.345, 0.1828920
1303.828, 1.1742000E-02
1304.310, 0.3540880
1304.792, 0.3066290
1305.274, 0.0000000E+00
##END=



