##NAMES=Plumbogummite
##RRUFFID=R070700
##IDEAL CHEMISTRY=Pb^2+^Al_3_(PO_4_)(PO_3_OH)(OH)_6_
##LOCALITY=Yangshuo, Guangxi Autonomous Region, China
##OWNER=RRUFF
##SOURCE=Ken Roberts
##DESCRIPTION=Grayish blue botryoidal crust associated with pale yellow pyromorphite
##STATUS=The identification of this mineral is not yet confirmed.
##URL=rruff.info/R070700
162.9139, 0.0000000E+00
163.3960, 30.72754
163.8782, 47.45215
164.3603, 68.54785
164.8424, 33.90039
165.3245, 2.995117
165.8066, 7.246094
166.2887, 4.008301
166.7709, 27.41162
167.2530, 59.90088
167.7351, 100.7788
168.2172, 127.4780
168.6993, 121.1133
169.1814, 105.7046
169.6636, 111.5137
170.1457, 144.8257
170.6278, 190.7632
171.1099, 244.5503
171.5920, 303.7583
172.0741, 344.2036
172.5563, 341.4951
173.0384, 311.4316
173.5205, 300.3066
174.0026, 321.4980
174.4847, 356.1196
174.9668, 390.3291
175.4490, 423.5801
175.9311, 449.6191
176.4132, 456.1646
176.8953, 444.2432
177.3774, 450.6538
177.8595, 494.3975
178.3417, 549.8091
178.8238, 605.3945
179.3059, 659.2646
179.7880, 705.5864
180.2701, 733.4619
180.7522, 736.3818
181.2344, 748.7026
181.7165, 781.7612
182.1986, 821.5234
182.6807, 861.9282
183.1628, 900.8823
183.6449, 936.7104
184.1271, 965.7720
184.6092, 983.4385
185.0913, 1004.606
185.5734, 1039.008
186.0555, 1071.760
186.5376, 1092.455
187.0198, 1085.558
187.5019, 1064.286
187.9840, 1053.709
188.4661, 1073.711
188.9482, 1077.780
189.4303, 1053.941
189.9125, 1015.154
190.3946, 977.0967
190.8767, 947.5269
191.3588, 923.6538
191.8409, 891.0684
192.3230, 836.8706
192.8052, 788.3564
193.2873, 757.3555
193.7694, 735.1099
194.2515, 705.9800
194.7336, 659.8574
195.2157, 598.8032
195.6979, 540.5420
196.1800, 482.7935
196.6621, 429.3555
197.1442, 380.8286
197.6263, 337.5659
198.1084, 301.7832
198.5906, 277.3970
199.0727, 262.5029
199.5548, 233.8740
200.0369, 172.7495
200.5190, 115.3481
201.0011, 82.91992
201.4833, 75.03223
201.9654, 79.55322
202.4475, 94.09912
202.9296, 115.1362
203.4117, 117.5879
203.8938, 79.18359
204.3760, 35.26416
204.8581, 23.09180
205.3402, 46.22510
205.8223, 68.26562
206.3044, 53.47705
206.7865, 12.40918
207.2687, 16.88721
207.7508, 17.63770
208.2329, 6.338379
208.7150, 6.695313
209.1971, 23.03955
209.6792, 39.19287
210.1614, 39.45557
210.6435, 29.37744
211.1256, 20.90869
211.6077, 21.72363
212.0898, 26.78271
212.5719, 24.93359
213.0541, 14.37012
213.5362, 0.5815430
214.0183, 21.48926
214.5004, 44.84424
214.9825, 61.08105
215.4646, 59.79883
215.9468, 45.87305
216.4289, 39.19727
216.9110, 39.69971
217.3931, 49.69287
217.8752, 74.17139
218.3573, 108.6143
218.8395, 139.9673
219.3216, 155.2583
219.8037, 156.3784
220.2858, 168.8408
220.7679, 209.2480
221.2500, 242.9243
221.7322, 245.3286
222.2143, 225.2256
222.6964, 211.1426
223.1785, 231.4863
223.6606, 288.1401
224.1427, 331.0283
224.6249, 344.6753
225.1070, 355.8970
225.5891, 377.3115
226.0712, 406.4707
226.5533, 431.8403
227.0354, 436.3623
227.5176, 412.8560
227.9997, 418.8276
228.4818, 485.7769
228.9639, 556.5225
229.4460, 610.0947
229.9281, 645.6230
230.4103, 672.5239
230.8924, 696.9844
231.3745, 714.6968
231.8566, 750.7075
232.3387, 831.2173
232.8208, 906.9136
233.3030, 948.7778
233.7851, 959.8613
234.2672, 965.9551
234.7493, 997.1069
235.2314, 1064.199
235.7135, 1116.973
236.1957, 1145.660
236.6778, 1170.867
237.1599, 1200.114
237.6420, 1235.739
238.1241, 1278.595
238.6062, 1329.784
239.0884, 1391.147
239.5705, 1456.021
240.0526, 1542.112
240.5347, 1617.396
241.0168, 1655.850
241.4989, 1658.720
241.9811, 1650.473
242.4632, 1658.765
242.9453, 1687.594
243.4274, 1723.734
243.9095, 1769.274
244.3916, 1819.086
244.8738, 1874.417
245.3559, 1933.295
245.8380, 1988.037
246.3201, 2029.450
246.8022, 2053.376
247.2843, 2074.061
247.7665, 2074.411
248.2486, 2083.678
248.7307, 2141.124
249.2128, 2243.942
249.6949, 2334.690
250.1770, 2342.750
250.6592, 2230.387
251.1413, 2158.234
251.6234, 2146.699
252.1055, 2159.342
252.5876, 2174.562
253.0697, 2187.335
253.5519, 2197.501
254.0340, 2206.963
254.5161, 2219.528
254.9982, 2207.543
255.4803, 2148.686
255.9624, 2080.876
256.4445, 2033.175
256.9267, 2009.176
257.4088, 1995.878
257.8909, 1983.391
258.3730, 1974.625
258.8551, 1946.908
259.3372, 1889.675
259.8194, 1818.101
260.3015, 1734.985
260.7836, 1645.078
261.2657, 1573.521
261.7478, 1547.246
262.2299, 1573.854
262.7121, 1582.705
263.1942, 1571.847
263.6763, 1546.175
264.1584, 1501.845
264.6405, 1441.428
265.1227, 1384.741
265.6048, 1350.230
266.0869, 1339.550
266.5690, 1325.625
267.0511, 1305.809
267.5332, 1284.419
268.0154, 1265.378
268.4975, 1249.371
268.9796, 1235.742
269.4617, 1225.550
269.9438, 1217.730
270.4259, 1201.718
270.9081, 1163.628
271.3902, 1127.188
271.8723, 1111.472
272.3544, 1116.755
272.8365, 1130.884
273.3186, 1148.298
273.8008, 1167.335
274.2829, 1176.068
274.7650, 1164.549
275.2471, 1150.002
275.7292, 1149.677
276.2113, 1162.318
276.6935, 1166.889
277.1756, 1146.759
277.6577, 1104.454
278.1398, 1068.271
278.6219, 1040.546
279.1040, 1016.858
279.5862, 995.8296
280.0683, 976.9692
280.5504, 957.8120
281.0325, 939.1079
281.5146, 918.0874
281.9967, 886.6938
282.4789, 831.6528
282.9610, 778.1343
283.4431, 743.5005
283.9252, 725.3018
284.4073, 710.5913
284.8894, 694.1592
285.3716, 675.4238
285.8537, 653.1274
286.3358, 623.0869
286.8179, 594.9087
287.3000, 576.7983
287.7821, 566.0234
288.2643, 551.6069
288.7464, 527.0967
289.2285, 496.6602
289.7106, 471.2642
290.1927, 453.8574
290.6748, 435.8794
291.1570, 409.6582
291.6391, 378.9980
292.1212, 358.3911
292.6033, 358.7500
293.0854, 364.8237
293.5675, 342.4321
294.0497, 279.0952
294.5318, 224.8916
295.0139, 205.5342
295.4960, 209.8750
295.9781, 213.7080
296.4602, 210.3813
296.9424, 201.1265
297.4245, 186.1206
297.9066, 163.5083
298.3887, 144.6357
298.8708, 134.6562
299.3529, 130.4014
299.8351, 125.9414
300.3172, 119.2461
300.7993, 113.7607
301.2814, 118.4609
301.7635, 136.0171
302.2456, 139.9463
302.7278, 109.2744
303.2099, 66.80811
303.6920, 44.10449
304.1741, 47.98779
304.6562, 65.05908
305.1383, 87.30176
305.6205, 116.1948
306.1026, 122.8125
306.5847, 80.18018
307.0668, 25.86475
307.5489, 1.187012
308.0310, 11.22510
308.5132, 29.62646
308.9953, 31.95068
309.4774, 17.41797
309.9595, 9.680176
310.4416, 15.53809
310.9237, 24.34521
311.4059, 28.33057
311.8880, 27.10889
312.3701, 23.11182
312.8522, 17.00977
313.3343, 9.302734
313.8164, 5.384277
314.2986, 11.01514
314.7807, 15.17725
315.2628, 7.444824
315.7449, 8.837402
316.2270, 17.77539
316.7091, 5.991211
317.1913, 20.17529
317.6734, 24.00781
318.1555, 20.52148
318.6376, 56.07959
319.1197, 55.19092
319.6018, 28.83350
320.0840, 0.9853520
320.5661, 18.28027
321.0482, 28.25830
321.5303, 24.33838
322.0124, 10.81055
322.4945, 34.27051
322.9767, 28.12402
323.4588, 6.932617
323.9409, 7.847656
324.4230, 8.078613
324.9051, 0.5634770
325.3872, 7.100098
325.8694, 11.08398
326.3515, 13.59912
326.8336, 14.24609
327.3157, 13.62695
327.7978, 13.61279
328.2799, 14.42334
328.7621, 12.23340
329.2442, 0.8247070
329.7263, 26.69775
330.2084, 45.92920
330.6905, 53.29736
331.1726, 55.40039
331.6548, 56.33984
332.1369, 56.84570
332.6190, 55.81152
333.1011, 51.51709
333.5832, 42.49170
334.0653, 38.94922
334.5475, 41.29004
335.0296, 47.53125
335.5117, 58.96973
335.9938, 73.86963
336.4759, 88.80371
336.9580, 101.8979
337.4402, 113.0420
337.9223, 113.6621
338.4044, 89.33643
338.8865, 70.49463
339.3686, 63.33350
339.8507, 67.29102
340.3329, 83.20508
340.8150, 113.0220
341.2971, 150.5698
341.7792, 169.1533
342.2613, 149.8457
342.7434, 134.1147
343.2256, 124.0166
343.7077, 120.7085
344.1898, 126.1182
344.6719, 140.9111
345.1540, 161.9883
345.6361, 183.7632
346.1183, 207.8306
346.6004, 229.2378
347.0825, 254.2964
347.5646, 272.7275
348.0467, 272.9341
348.5288, 254.4375
349.0110, 231.5029
349.4931, 223.3608
349.9752, 233.7451
350.4573, 242.1606
350.9394, 236.1387
351.4215, 238.8340
351.9037, 270.8428
352.3858, 325.0283
352.8679, 372.4912
353.3500, 383.8984
353.8321, 360.6270
354.3142, 350.5781
354.7964, 370.0151
355.2785, 383.0195
355.7606, 365.4780
356.2427, 332.1221
356.7248, 311.6519
357.2069, 320.5640
357.6891, 353.3198
358.1712, 399.1680
358.6533, 470.8330
359.1354, 526.7065
359.6175, 542.9702
360.0996, 538.7275
360.5818, 533.1621
361.0639, 529.0137
361.5460, 527.2280
362.0281, 533.1855
362.5102, 549.3848
362.9923, 559.5664
363.4745, 552.7529
363.9566, 541.0415
364.4387, 539.5225
364.9208, 549.5010
365.4029, 554.5845
365.8850, 533.3076
366.3672, 493.8550
366.8493, 483.6255
367.3314, 524.5151
367.8135, 580.3701
368.2956, 618.2773
368.7777, 639.2974
369.2599, 645.7554
369.7420, 629.0479
370.2241, 600.8472
370.7062, 582.1245
371.1883, 576.4692
371.6704, 571.8496
372.1526, 555.4365
372.6347, 530.1924
373.1168, 513.7646
373.5989, 511.1611
374.0810, 515.1074
374.5631, 528.7227
375.0453, 549.1597
375.5274, 550.3618
376.0095, 505.2349
376.4916, 430.6641
376.9737, 401.9141
377.4558, 463.7500
377.9380, 517.9131
378.4201, 519.6670
378.9022, 488.0430
379.3843, 460.7065
379.8664, 451.6758
380.3485, 450.2915
380.8307, 435.7617
381.3128, 392.2524
381.7949, 367.4058
382.2770, 379.2905
382.7591, 401.2061
383.2412, 408.4395
383.7234, 396.5688
384.2055, 376.2563
384.6876, 360.3047
385.1697, 351.7114
385.6518, 334.2852
386.1339, 295.4912
386.6161, 261.0181
387.0982, 246.6729
387.5803, 248.5581
388.0624, 253.1860
388.5445, 251.6641
389.0266, 244.1353
389.5088, 232.5791
389.9909, 213.4961
390.4730, 194.0483
390.9551, 171.1162
391.4372, 149.9639
391.9193, 137.0620
392.4015, 135.2681
392.8836, 142.1133
393.3657, 154.3818
393.8478, 176.9209
394.3299, 192.4883
394.8120, 199.1045
395.2942, 198.1724
395.7763, 189.0737
396.2584, 172.1709
396.7405, 150.7461
397.2226, 124.3721
397.7047, 93.08936
398.1869, 73.26270
398.6690, 72.13330
399.1511, 75.80859
399.6332, 77.44873
400.1153, 77.23096
400.5974, 76.11475
401.0796, 74.83984
401.5617, 72.97852
402.0438, 69.40430
402.5259, 63.91211
403.0080, 57.54736
403.4901, 47.19434
403.9723, 37.45264
404.4544, 37.56250
404.9365, 57.72754
405.4186, 73.72070
405.9007, 58.10645
406.3828, 17.35498
406.8650, 12.85352
407.3471, 18.51270
407.8292, 9.375000
408.3113, 0.2241210
408.7934, 11.19287
409.2755, 18.47461
409.7577, 18.96631
410.2398, 15.35010
410.7219, 10.35010
411.2040, 4.460449
411.6861, 0.5888670
412.1682, 2.954102
412.6504, 2.239746
413.1325, 1.357910
413.6146, 2.027832
414.0967, 0.9843750
414.5788, 5.466797
415.0609, 15.48438
415.5431, 24.60059
416.0252, 30.80078
416.5073, 32.85107
416.9894, 24.72998
417.4715, 14.29590
417.9536, 38.39844
418.4358, 37.26025
418.9179, 21.71045
419.4000, 2.497559
419.8821, 31.85449
420.3642, 55.04248
420.8463, 50.47559
421.3285, 0.2958980
421.8106, 28.12744
422.2927, 21.57275
422.7748, 6.176758
423.2569, 10.37598
423.7390, 25.22412
424.2212, 35.23486
424.7033, 37.03467
425.1854, 31.85059
425.6675, 26.32812
426.1496, 16.12305
426.6317, 13.52930
427.1139, 29.51172
427.5960, 52.60742
428.0781, 67.79785
428.5602, 68.56396
429.0423, 63.57031
429.5244, 64.44482
430.0066, 71.42139
430.4887, 73.69043
430.9708, 64.45947
431.4529, 52.81250
431.9350, 48.08398
432.4171, 50.37305
432.8993, 57.52002
433.3814, 70.23584
433.8635, 86.71387
434.3456, 106.8423
434.8277, 131.9023
435.3098, 149.1987
435.7920, 143.6128
436.2741, 117.2017
436.7562, 102.2148
437.2383, 105.5776
437.7204, 115.2192
438.2025, 124.7969
438.6847, 134.8896
439.1668, 147.9028
439.6489, 164.9927
440.1310, 185.8057
440.6131, 209.6768
441.0952, 251.4570
441.5774, 275.1836
442.0595, 263.8320
442.5416, 242.8438
443.0237, 236.1582
443.5058, 247.3115
443.9879, 263.2856
444.4701, 268.7290
444.9522, 260.8311
445.4343, 262.3052
445.9164, 278.5278
446.3985, 298.8945
446.8806, 323.9390
447.3628, 350.2563
447.8449, 373.0464
448.3270, 390.1860
448.8091, 401.2651
449.2912, 404.7109
449.7733, 398.6211
450.2555, 390.0635
450.7375, 365.8042
451.2197, 349.2485
451.7018, 364.7183
452.1839, 415.6968
452.6660, 469.7705
453.1481, 501.7827
453.6302, 514.9766
454.1124, 521.6055
454.5945, 518.2202
455.0766, 519.2949
455.5587, 546.4185
456.0408, 589.6187
456.5229, 617.5791
457.0051, 607.1001
457.4872, 591.1641
457.9693, 603.4365
458.4514, 639.0347
458.9335, 668.9448
459.4156, 679.4624
459.8978, 675.3911
460.3799, 667.7227
460.8620, 651.0835
461.3441, 641.3916
461.8262, 649.6328
462.3083, 661.7754
462.7905, 659.1909
463.2726, 640.2061
463.7547, 623.1987
464.2368, 629.8677
464.7189, 664.9082
465.2010, 678.5864
465.6832, 648.4702
466.1653, 623.0571
466.6474, 620.5532
467.1295, 630.9307
467.6116, 637.6875
468.0938, 633.3296
468.5759, 623.8823
469.0580, 621.8130
469.5401, 631.8657
470.0222, 630.7905
470.5043, 605.5708
470.9865, 576.1216
471.4686, 555.3037
471.9507, 543.1382
472.4328, 530.4785
472.9149, 507.4873
473.3970, 478.4922
473.8792, 460.5732
474.3613, 457.9160
474.8434, 455.0713
475.3255, 439.0601
475.8076, 414.7012
476.2897, 394.8848
476.7719, 385.4678
477.2540, 381.1548
477.7361, 378.5737
478.2182, 374.7490
478.7003, 361.9258
479.1824, 336.2207
479.6646, 310.3267
480.1467, 307.5679
480.6288, 337.2246
481.1109, 358.5591
481.5930, 375.9624
482.0751, 379.8623
482.5573, 350.4648
483.0394, 297.4624
483.5215, 258.2427
484.0036, 261.7803
484.4857, 300.3799
484.9678, 322.6011
485.4500, 307.8125
485.9321, 303.7178
486.4142, 325.3125
486.8963, 355.0981
487.3784, 377.4258
487.8605, 387.8428
488.3427, 390.4819
488.8248, 387.1992
489.3069, 377.5171
489.7890, 373.7002
490.2711, 376.6772
490.7532, 385.7144
491.2354, 400.1504
491.7175, 419.5469
492.1996, 443.9146
492.6817, 480.4346
493.1638, 514.5293
493.6459, 523.5054
494.1281, 509.5088
494.6102, 502.8374
495.0923, 516.8613
495.5744, 541.7778
496.0565, 558.7329
496.5386, 563.6465
497.0208, 579.2695
497.5029, 622.9243
497.9850, 672.4077
498.4671, 704.2256
498.9492, 717.3037
499.4313, 725.8286
499.9135, 741.3140
500.3956, 762.6943
500.8777, 776.4282
501.3598, 768.2129
501.8419, 769.5166
502.3240, 798.2075
502.8062, 833.1250
503.2883, 848.5591
503.7704, 837.6416
504.2525, 817.2529
504.7346, 811.0493
505.2167, 822.5928
505.6989, 822.9697
506.1810, 807.6802
506.6631, 784.7559
507.1452, 752.5957
507.6273, 716.5063
508.1094, 688.8110
508.5916, 681.4541
509.0737, 676.5850
509.5558, 647.8428
510.0379, 596.0742
510.5200, 541.9429
511.0021, 490.1816
511.4843, 442.1831
511.9664, 399.4287
512.4485, 361.1450
512.9306, 329.9331
513.4127, 310.6895
513.8948, 296.2383
514.3770, 282.7227
514.8591, 268.3008
515.3412, 245.6919
515.8233, 207.5396
516.3054, 158.1533
516.7875, 126.3286
517.2697, 132.0024
517.7518, 130.8745
518.2339, 115.4663
518.7160, 93.20020
519.1981, 67.50781
519.6802, 40.89746
520.1624, 21.19678
520.6445, 22.08105
521.1266, 44.48584
521.6087, 47.94092
522.0908, 19.18066
522.5729, 9.213867
523.0551, 25.82812
523.5372, 32.17480
524.0193, 28.42676
524.5014, 10.20850
524.9835, 7.535156
525.4656, 5.460938
525.9478, 11.81982
526.4299, 18.39795
526.9120, 4.444824
527.3941, 13.74951
527.8762, 15.43652
528.3583, 0.1660160
528.8405, 10.63672
529.3226, 10.83496
529.8047, 8.050293
530.2868, 7.143066
530.7689, 7.283691
531.2510, 4.702637
531.7332, 2.824219
532.2153, 12.23340
532.6974, 16.32178
533.1795, 16.22217
533.6616, 8.073730
534.1437, 22.04443
534.6259, 47.57422
535.1080, 46.99609
535.5901, 25.18164
536.0722, 4.671387
536.5543, 3.252441
537.0364, 13.94922
537.5186, 14.12402
538.0007, 0.7836910
538.4828, 11.69092
538.9649, 16.29639
539.4470, 18.29590
539.9291, 24.17578
540.4113, 34.99414
540.8934, 44.90527
541.3755, 46.87988
541.8576, 47.69092
542.3397, 64.46289
542.8218, 98.03076
543.3040, 117.5391
543.7861, 93.89600
544.2682, 35.24365
544.7503, 12.28906
545.2324, 60.10303
545.7145, 94.73975
546.1967, 92.22168
546.6788, 72.47217
547.1609, 53.02930
547.6430, 39.78564
548.1251, 35.20996
548.6072, 45.83936
549.0894, 72.70264
549.5715, 83.10400
550.0536, 63.19580
550.5357, 46.55908
551.0178, 48.35742
551.4999, 59.42480
551.9821, 65.89355
552.4642, 61.83203
552.9463, 60.67578
553.4284, 81.70898
553.9105, 117.4951
554.3926, 135.9146
554.8748, 127.9360
555.3569, 74.65820
555.8390, 114.8525
556.3211, 137.5078
556.8032, 143.5645
557.2853, 83.31836
557.7675, 108.6846
558.2496, 99.73926
558.7317, 89.38672
559.2138, 126.7983
559.6959, 76.18701
560.1780, 112.8379
560.6602, 114.6533
561.1423, 132.4102
561.6244, 115.6445
562.1065, 135.8057
562.5886, 161.5562
563.0707, 183.7339
563.5529, 199.2251
564.0350, 202.6543
564.5171, 188.7075
564.9992, 170.6772
565.4813, 168.7437
565.9634, 181.6445
566.4456, 187.7476
566.9277, 179.0400
567.4098, 167.8296
567.8919, 169.2227
568.3740, 181.6172
568.8561, 189.7510
569.3383, 185.0298
569.8204, 181.2363
570.3025, 190.4336
570.7846, 207.5742
571.2667, 217.8882
571.7488, 214.9375
572.2310, 209.7031
572.7131, 224.6489
573.1952, 277.6162
573.6773, 302.1924
574.1594, 275.9102
574.6415, 245.2510
575.1237, 224.6860
575.6058, 215.6533
576.0879, 218.1445
576.5700, 234.1069
577.0521, 256.3052
577.5342, 276.8506
578.0164, 295.7383
578.4985, 302.1221
578.9806, 288.4805
579.4627, 269.0264
579.9448, 256.7227
580.4269, 250.0850
580.9091, 248.4390
581.3912, 255.6646
581.8733, 266.0435
582.3554, 280.7490
582.8375, 295.7529
583.3196, 300.0234
583.8018, 288.1572
584.2839, 268.1045
584.7660, 252.6650
585.2481, 238.4121
585.7302, 237.6694
586.2123, 270.4219
586.6945, 294.8584
587.1766, 286.6084
587.6587, 258.9775
588.1408, 239.4761
588.6229, 241.5010
589.1050, 254.1118
589.5872, 263.7358
590.0693, 270.1357
590.5514, 272.2432
591.0335, 268.5229
591.5156, 262.8188
591.9977, 253.9966
592.4799, 243.2261
592.9620, 243.4546
593.4441, 273.5039
593.9262, 300.4463
594.4083, 296.2808
594.8904, 274.2529
595.3726, 263.7891
595.8547, 275.9512
596.3368, 299.1128
596.8189, 318.3345
597.3010, 334.0811
597.7831, 343.4761
598.2653, 338.2905
598.7474, 335.1143
599.2295, 340.4692
599.7116, 350.7876
600.1937, 360.9634
600.6758, 369.5239
601.1580, 375.5718
601.6401, 374.1816
602.1222, 368.3076
602.6043, 373.8784
603.0864, 395.5366
603.5685, 421.2622
604.0507, 442.2944
604.5328, 458.5933
605.0149, 473.1362
605.4970, 487.4131
605.9791, 498.2715
606.4612, 499.3809
606.9434, 499.8784
607.4255, 514.4814
607.9076, 543.9897
608.3897, 570.3174
608.8718, 572.3418
609.3539, 551.3940
609.8361, 550.2617
610.3182, 584.7417
610.8003, 612.7935
611.2824, 617.1230
611.7645, 610.4653
612.2466, 605.8408
612.7288, 605.6558
613.2109, 605.3281
613.6930, 605.6377
614.1751, 602.4917
614.6572, 582.5635
615.1393, 545.4922
615.6215, 518.2021
616.1036, 520.2798
616.5857, 542.1494
617.0678, 549.6987
617.5499, 536.4976
618.0320, 517.7607
618.5142, 483.8262
618.9963, 452.9023
619.4784, 442.4653
619.9605, 448.4697
620.4426, 450.6660
620.9247, 435.4829
621.4069, 407.5708
621.8890, 371.1499
622.3711, 322.9468
622.8532, 289.8945
623.3353, 288.2827
623.8174, 295.0078
624.2996, 282.5674
624.7817, 252.7051
625.2638, 233.9800
625.7459, 247.7041
626.2280, 263.4712
626.7101, 253.7505
627.1923, 226.7534
627.6744, 206.6084
628.1565, 203.1021
628.6386, 205.0518
629.1207, 193.2368
629.6028, 161.0527
630.0850, 141.9976
630.5671, 146.7188
631.0492, 154.2920
631.5313, 160.7202
632.0134, 165.0776
632.4955, 166.0898
632.9777, 162.9580
633.4598, 158.7871
633.9419, 159.7876
634.4240, 162.3989
634.9061, 149.4512
635.3882, 115.6445
635.8704, 92.04297
636.3525, 108.8140
636.8346, 156.2446
637.3167, 171.1699
637.7988, 128.0288
638.2809, 91.02490
638.7631, 74.04053
639.2452, 65.54492
639.7273, 53.91846
640.2094, 39.02246
640.6915, 30.04834
641.1736, 6.043457
641.6558, 45.19336
642.1379, 66.81250
642.6200, 71.84131
643.1021, 10.57031
643.5842, 34.93018
644.0663, 24.97803
644.5485, 13.61426
645.0306, 50.02588
645.5127, 1.579102
645.9948, 34.08545
646.4769, 34.94531
646.9590, 52.82324
647.4412, 35.90381
647.9233, 28.83398
648.4054, 56.30176
648.8875, 64.64990
649.3696, 42.95068
649.8517, 60.77148
650.3339, 8.016113
650.8160, 17.24512
651.2981, 53.26465
651.7802, 33.58350
652.2623, 52.11963
652.7444, 56.00244
653.2266, 6.581543
653.7087, 27.50098
654.1908, 31.84717
654.6729, 31.98975
655.1550, 28.23389
655.6371, 20.80762
656.1193, 16.84424
656.6014, 21.51465
657.0835, 32.08887
657.5656, 38.49365
658.0477, 39.57275
658.5298, 37.83936
659.0120, 28.71533
659.4941, 20.59961
659.9762, 20.28711
660.4583, 26.21631
660.9404, 32.66064
661.4225, 37.43701
661.9047, 38.73828
662.3868, 32.31348
662.8689, 18.36621
663.3510, 2.957520
663.8331, 14.91553
664.3152, 28.71094
664.7974, 33.37598
665.2795, 28.78857
665.7616, 11.76709
666.2437, 40.61475
666.7258, 78.91260
667.2079, 76.71729
667.6901, 54.39355
668.1722, 35.25098
668.6543, 24.60547
669.1364, 17.44336
669.6185, 8.953125
670.1006, 0.2182620
670.5828, 1.028809
671.0649, 8.404785
671.5470, 14.78027
672.0291, 11.05322
672.5112, 3.904297
672.9933, 0.6806640
673.4755, 2.763672
673.9576, 2.059082
674.4397, 29.20166
674.9218, 51.51904
675.4039, 38.83545
675.8860, 5.803223
676.3682, 9.599609
676.8503, 7.131348
677.3324, 33.06641
677.8145, 31.74756
678.2966, 2.392578
678.7787, 18.24072
679.2609, 5.796387
679.7430, 10.76709
680.2251, 24.95459
680.7072, 36.32715
681.1893, 43.95947
681.6714, 47.50244
682.1536, 49.26611
682.6357, 50.82471
683.1178, 51.19580
683.5999, 48.47607
684.0820, 42.96289
684.5641, 37.09570
685.0463, 32.16943
685.5284, 27.56543
686.0105, 21.39014
686.4926, 10.55615
686.9747, 5.528809
687.4568, 10.20557
687.9390, 16.90967
688.4211, 25.30225
688.9032, 32.49805
689.3853, 33.67627
689.8674, 25.63623
690.3495, 17.58447
690.8317, 16.92920
691.3138, 22.04346
691.7959, 31.73633
692.2780, 45.39893
692.7601, 53.72998
693.2422, 48.22998
693.7244, 34.42236
694.2065, 34.29297
694.6886, 61.62061
695.1707, 80.43994
695.6528, 87.58154
696.1349, 88.46045
696.6171, 84.05859
697.0992, 76.21143
697.5813, 68.27734
698.0634, 61.26758
698.5455, 56.08203
699.0276, 56.61670
699.5098, 60.07617
699.9919, 53.54053
700.4740, 33.56592
700.9561, 16.81934
701.4382, 18.37305
701.9203, 35.46631
702.4025, 46.10938
702.8846, 53.21143
703.3667, 49.46436
703.8488, 16.15137
704.3309, 13.65918
704.8130, 9.154785
705.2952, 23.41406
705.7773, 51.72803
706.2594, 56.62109
706.7415, 48.56787
707.2236, 39.71387
707.7057, 30.25977
708.1879, 19.74707
708.6700, 6.706055
709.1521, 1.283691
709.6342, 17.76953
710.1163, 54.26904
710.5984, 65.21289
711.0806, 25.36279
711.5627, 5.203613
712.0448, 14.45410
712.5269, 13.59131
713.0090, 12.27930
713.4911, 10.76074
713.9733, 2.673340
714.4554, 20.38867
714.9375, 46.53125
715.4196, 52.92822
715.9017, 44.24854
716.3839, 40.60156
716.8660, 49.76953
717.3481, 66.23145
717.8302, 89.29639
718.3123, 116.9077
718.7944, 124.3569
719.2766, 89.99951
719.7587, 65.05029
720.2408, 73.18848
720.7229, 84.81250
721.2050, 68.59131
721.6871, 28.01221
722.1693, 1.822754
722.6514, 26.53564
723.1335, 69.56152
723.6156, 73.64844
724.0977, 43.55273
724.5798, 16.71777
725.0620, 2.547852
725.5441, 2.526855
726.0262, 0.4096680
726.5083, 8.966064
726.9904, 15.38525
727.4725, 18.24194
727.9547, 19.27490
728.4368, 11.26733
728.9189, 6.156006
729.4010, 21.89160
729.8831, 53.26099
730.3652, 70.39795
730.8474, 45.87109
731.3295, 6.712646
731.8116, 9.088867
732.2937, 4.316650
732.7758, 11.55859
733.2579, 37.87085
733.7401, 61.11621
734.2222, 66.82983
734.7043, 56.30811
735.1864, 47.39331
735.6685, 41.83594
736.1506, 35.44775
736.6328, 22.45020
737.1149, 12.88525
737.5970, 15.42285
738.0791, 27.79614
738.5612, 38.77393
739.0433, 43.26685
739.5255, 42.99365
740.0076, 37.68774
740.4897, 29.06177
740.9718, 22.37280
741.4539, 18.91431
741.9360, 18.81323
742.4182, 22.15723
742.9003, 28.89111
743.3824, 39.66089
743.8645, 67.36108
744.3466, 76.46777
744.8287, 43.10547
745.3109, 7.833496
745.7930, 0.7766110
746.2751, 12.94580
746.7572, 26.47119
747.2393, 29.09790
747.7214, 32.00317
748.2036, 50.14404
748.6857, 73.53638
749.1678, 80.36914
749.6499, 68.24487
750.1320, 52.78662
750.6141, 45.83301
751.0963, 45.24414
751.5784, 41.80371
752.0605, 31.94995
752.5426, 29.53687
753.0247, 43.98096
753.5068, 58.03809
753.9890, 61.75977
754.4711, 56.89111
754.9532, 47.71875
755.4353, 30.01978
755.9174, 17.52856
756.3995, 19.70630
756.8817, 29.47070
757.3638, 41.20703
757.8459, 52.46167
758.3280, 57.58105
758.8101, 52.25000
759.2922, 43.13867
759.7744, 48.12256
760.2565, 70.18213
760.7386, 74.89648
761.2207, 51.75342
761.7028, 25.13379
762.1849, 6.256104
762.6671, 3.933594
763.1492, 5.979004
763.6313, 3.045410
764.1134, 10.72168
764.5955, 13.49268
765.0776, 14.51880
765.5598, 15.71558
766.0419, 17.16748
766.5240, 16.82764
767.0061, 13.51294
767.4882, 15.04541
767.9703, 36.42383
768.4525, 72.48047
768.9346, 95.41870
769.4167, 103.1082
769.8988, 94.12646
770.3809, 62.73047
770.8630, 21.96533
771.3452, 2.704590
771.8273, 6.170166
772.3094, 6.012451
772.7915, 0.5815430
773.2736, 25.99878
773.7557, 14.82886
774.2379, 38.11450
774.7200, 44.80225
775.2021, 14.81543
775.6842, 11.16943
776.1663, 2.841064
776.6484, 6.900146
777.1306, 31.11792
777.6127, 18.88916
778.0948, 18.35400
778.5769, 20.76147
779.0590, 39.11206
779.5411, 22.91553
780.0233, 17.08862
780.5054, 46.10449
780.9875, 56.02515
781.4696, 35.91040
781.9517, 55.28784
782.4338, 4.009521
782.9160, 14.55005
783.3981, 51.51025
783.8802, 32.74487
784.3623, 52.63843
784.8444, 57.93237
785.3265, 3.239990
785.8087, 51.18970
786.2908, 55.58643
786.7729, 8.605957
787.2550, 59.07153
787.7371, 19.28687
788.2192, 11.72778
788.7014, 28.42236
789.1835, 19.71045
789.6656, 50.07666
790.1477, 42.34155
790.6298, 31.77710
791.1119, 36.22144
791.5941, 1.797363
792.0762, 38.89722
792.5583, 25.81787
793.0404, 39.46387
793.5225, 59.16284
794.0046, 36.24902
794.4868, 30.25220
794.9689, 18.98828
795.4510, 13.51953
795.9331, 19.33545
796.4152, 25.65820
796.8973, 16.12769
797.3795, 0.6772460
797.8616, 1.475830
798.3437, 14.69824
798.8258, 35.33276
799.3079, 55.63550
799.7900, 72.12134
800.2722, 77.36230
800.7543, 68.50244
801.2364, 62.68262
801.7185, 65.95483
802.2006, 63.86865
802.6827, 45.38892
803.1649, 23.28101
803.6470, 11.57324
804.1291, 12.36426
804.6112, 17.72095
805.0933, 23.97241
805.5754, 33.73364
806.0576, 51.84399
806.5397, 73.64111
807.0218, 91.39136
807.5039, 103.3845
807.9860, 112.5132
808.4681, 122.9705
808.9503, 131.0564
809.4324, 120.2637
809.9145, 88.88403
810.3966, 69.78979
810.8787, 73.69238
811.3608, 82.77490
811.8430, 80.43872
812.3251, 69.33691
812.8072, 68.84351
813.2893, 92.18652
813.7714, 106.6938
814.2535, 102.8208
814.7357, 95.74194
815.2178, 98.57202
815.6999, 105.8027
816.1820, 100.6377
816.6641, 73.56616
817.1462, 50.57812
817.6284, 60.34033
818.1105, 84.19751
818.5926, 88.88330
819.0747, 75.79102
819.5568, 66.17041
820.0389, 70.02930
820.5211, 79.69409
821.0032, 84.90747
821.4852, 86.42749
821.9673, 77.42383
822.4495, 49.55298
822.9316, 32.30444
823.4137, 42.66895
823.8958, 64.34863
824.3779, 78.28027
824.8600, 84.58252
825.3422, 85.23657
825.8243, 74.30200
826.3064, 66.21240
826.7885, 68.41406
827.2706, 75.07617
827.7527, 79.65942
828.2349, 81.86060
828.7170, 86.29346
829.1991, 98.58350
829.6812, 109.1201
830.1633, 101.2510
830.6454, 81.44897
831.1276, 68.64478
831.6097, 69.29321
832.0918, 72.38208
832.5739, 71.46143
833.0560, 66.82764
833.5381, 64.94067
834.0203, 65.45117
834.5024, 65.44287
834.9845, 64.68213
835.4666, 64.01221
835.9487, 71.00537
836.4308, 78.74316
836.9130, 77.53076
837.3951, 64.55518
837.8772, 52.25024
838.3593, 38.95410
838.8414, 32.90137
839.3235, 44.13770
839.8057, 63.62573
840.2878, 79.63696
840.7699, 88.92334
841.2520, 91.63013
841.7341, 85.11816
842.2162, 74.22266
842.6984, 64.43286
843.1805, 57.00439
843.6626, 64.82666
844.1447, 90.94922
844.6268, 117.3218
845.1089, 130.0659
845.5911, 129.7383
846.0732, 118.6121
846.5553, 90.73193
847.0374, 65.19775
847.5195, 39.19800
848.0016, 23.67603
848.4838, 32.79224
848.9659, 54.08276
849.4480, 61.96973
849.9301, 48.86084
850.4122, 41.21313
850.8943, 49.61450
851.3765, 62.52612
851.8586, 78.79736
852.3407, 91.64990
852.8228, 84.68262
853.3049, 55.72827
853.7870, 33.86108
854.2692, 57.32983
854.7513, 98.31250
855.2334, 101.3647
855.7155, 73.57690
856.1976, 45.81763
856.6797, 26.06567
857.1619, 19.95654
857.6440, 36.04761
858.1261, 67.54297
858.6082, 75.68652
859.0903, 50.37549
859.5724, 35.09375
860.0546, 43.95044
860.5367, 51.86377
861.0188, 35.50293
861.5009, 8.225830
861.9830, 2.916016
862.4651, 30.98438
862.9473, 51.29053
863.4294, 54.28589
863.9115, 50.67163
864.3936, 40.65039
864.8757, 30.87012
865.3578, 34.54395
865.8400, 52.05029
866.3221, 67.11206
866.8042, 68.41772
867.2863, 61.37622
867.7684, 48.11719
868.2505, 32.83667
868.7327, 30.59082
869.2148, 44.51147
869.6969, 58.97168
870.1790, 59.60083
870.6611, 50.31396
871.1432, 44.36841
871.6254, 40.64648
872.1075, 46.07495
872.5896, 68.57153
873.0717, 82.97437
873.5538, 64.62915
874.0359, 30.34424
874.5181, 27.77612
875.0002, 80.52466
875.4823, 114.1272
875.9644, 117.7700
876.4465, 112.1306
876.9286, 102.6316
877.4108, 91.69116
877.8929, 80.35278
878.3750, 68.61987
878.8571, 58.39722
879.3392, 48.24072
879.8214, 42.43799
880.3035, 50.54834
880.7856, 62.07715
881.2677, 53.92725
881.7498, 28.60742
882.2319, 16.94897
882.7141, 42.10962
883.1962, 82.34888
883.6783, 101.3044
884.1604, 101.2839
884.6425, 93.03418
885.1246, 77.09131
885.6068, 65.16187
886.0889, 64.84253
886.5710, 68.37646
887.0531, 59.50073
887.5352, 33.40723
888.0173, 23.26318
888.4995, 40.58203
888.9816, 54.04443
889.4637, 46.11279
889.9458, 36.06543
890.4279, 48.21875
890.9100, 79.90015
891.3922, 95.17969
891.8743, 79.32153
892.3564, 59.10693
892.8385, 37.22070
893.3206, 18.99805
893.8027, 8.276367
894.2849, 5.232910
894.7670, 10.54614
895.2491, 26.03369
895.7312, 41.07642
896.2133, 47.02808
896.6954, 46.71777
897.1776, 42.28271
897.6597, 35.40161
898.1418, 30.66406
898.6239, 29.66968
899.1060, 30.56104
899.5881, 30.51172
900.0703, 30.89258
900.5524, 41.16138
901.0345, 62.21509
901.5166, 72.57642
901.9987, 66.60938
902.4808, 51.02759
902.9630, 27.57300
903.4451, 0.8781740
903.9272, 8.956543
904.4093, 10.00098
904.8914, 20.95166
905.3735, 16.03418
905.8557, 11.31250
906.3378, 10.14746
906.8199, 15.06055
907.3020, 35.09131
907.7841, 74.26221
908.2662, 93.75049
908.7484, 67.80322
909.2305, 39.38379
909.7126, 26.69165
910.1947, 24.85840
910.6768, 30.52026
911.1589, 40.74902
911.6411, 48.81079
912.1232, 51.36060
912.6053, 49.88965
913.0874, 43.67456
913.5695, 35.45557
914.0516, 28.08618
914.5338, 23.04004
915.0159, 27.45972
915.4980, 44.98926
915.9801, 60.81323
916.4622, 49.83838
916.9443, 17.72437
917.4265, 4.533447
917.9086, 11.26343
918.3907, 12.78589
918.8728, 8.3010001E-03
919.3549, 13.06812
919.8370, 12.07861
920.3192, 1.570557
920.8013, 16.13916
921.2834, 40.15796
921.7655, 43.56055
922.2476, 5.618652
922.7297, 30.07397
923.2119, 36.60083
923.6940, 25.87598
924.1761, 17.17773
924.6582, 11.17261
925.1403, 6.870605
925.6224, 2.645996
926.1046, 1.984619
926.5867, 9.931641
927.0688, 19.56079
927.5509, 24.99756
928.0330, 25.02539
928.5151, 18.65479
928.9973, 0.5268550
929.4794, 15.89160
929.9615, 19.74463
930.4436, 17.07812
930.9257, 15.36279
931.4078, 14.44287
931.8900, 9.236816
932.3721, 2.080566
932.8542, 11.48486
933.3363, 7.067871
933.8184, 4.534668
934.3005, 4.115723
934.7827, 6.402832
935.2648, 14.35645
935.7469, 16.26855
936.2290, 10.30566
936.7111, 7.528320
937.1932, 30.56738
937.6754, 33.49268
938.1575, 13.87646
938.6396, 5.336914
939.1217, 24.28271
939.6038, 34.70020
940.0859, 29.39209
940.5681, 14.76904
941.0502, 3.924805
941.5323, 2.761719
942.0144, 6.777832
942.4965, 6.280273
942.9786, 5.801270
943.4608, 6.996582
943.9429, 8.104492
944.4250, 6.388184
944.9071, 3.070801
945.3892, 3.530273
945.8713, 12.38818
946.3535, 19.18066
946.8356, 16.08643
947.3177, 14.22803
947.7998, 22.82910
948.2819, 37.74756
948.7640, 50.57568
949.2462, 59.35596
949.7283, 68.20605
950.2104, 84.54053
950.6925, 97.06152
951.1746, 84.74805
951.6567, 66.58105
952.1389, 82.47363
952.6210, 128.7900
953.1031, 159.4731
953.5852, 145.1616
954.0673, 115.0293
954.5494, 100.7285
955.0316, 102.9756
955.5137, 133.2588
955.9958, 185.9385
956.4779, 220.1372
956.9600, 220.7012
957.4421, 216.8481
957.9243, 242.7109
958.4064, 290.7544
958.8885, 326.0586
959.3706, 348.0259
959.8527, 364.1426
960.3348, 373.9233
960.8170, 386.1016
961.2991, 406.2031
961.7812, 431.2842
962.2633, 455.7808
962.7454, 480.1216
963.2275, 495.6968
963.7097, 486.0322
964.1918, 500.6973
964.6739, 575.4165
965.1560, 661.6318
965.6381, 702.7607
966.1202, 703.5410
966.6024, 726.0469
967.0845, 795.3320
967.5666, 849.3037
968.0487, 869.0459
968.5308, 885.4438
969.0129, 910.0767
969.4951, 944.7485
969.9772, 995.7441
970.4593, 1065.521
970.9414, 1124.488
971.4235, 1150.602
971.9056, 1177.629
972.3878, 1227.833
972.8699, 1284.952
973.3520, 1333.155
973.8341, 1370.541
974.3162, 1399.204
974.7983, 1417.293
975.2805, 1437.235
975.7626, 1469.740
976.2447, 1509.688
976.7268, 1556.401
977.2089, 1603.671
977.6910, 1639.548
978.1732, 1661.766
978.6553, 1677.147
979.1374, 1690.133
979.6195, 1700.598
980.1016, 1707.459
980.5837, 1709.698
981.0659, 1712.892
981.5480, 1717.447
982.0301, 1713.410
982.5122, 1695.077
982.9943, 1675.701
983.4764, 1675.564
983.9586, 1691.654
984.4407, 1708.794
984.9228, 1726.941
985.4049, 1742.465
985.8870, 1755.744
986.3691, 1755.937
986.8513, 1731.931
987.3334, 1692.627
987.8155, 1667.660
988.2976, 1660.124
988.7797, 1645.413
989.2618, 1620.042
989.7440, 1594.768
990.2261, 1571.255
990.7082, 1553.454
991.1903, 1549.400
991.6724, 1558.863
992.1545, 1558.517
992.6367, 1546.364
993.1188, 1526.357
993.6009, 1487.850
994.0830, 1456.817
994.5651, 1455.650
995.0472, 1469.513
995.5294, 1467.800
996.0115, 1444.851
996.4936, 1431.008
996.9757, 1439.660
997.4578, 1440.753
997.9399, 1420.540
998.4221, 1396.277
998.9042, 1381.359
999.3863, 1374.379
999.8684, 1368.057
1000.351, 1363.354
1000.833, 1353.810
1001.315, 1323.474
1001.797, 1302.855
1002.279, 1326.553
1002.761, 1361.970
1003.243, 1358.768
1003.725, 1315.422
1004.207, 1281.232
1004.690, 1284.396
1005.172, 1292.317
1005.654, 1286.389
1006.136, 1275.815
1006.618, 1269.509
1007.100, 1266.193
1007.582, 1262.558
1008.064, 1257.454
1008.547, 1246.247
1009.029, 1216.474
1009.511, 1187.445
1009.993, 1181.772
1010.475, 1189.569
1010.957, 1197.449
1011.439, 1201.766
1011.921, 1199.558
1012.403, 1189.060
1012.886, 1175.300
1013.368, 1161.656
1013.850, 1149.878
1014.332, 1144.773
1014.814, 1143.816
1015.296, 1137.711
1015.778, 1125.296
1016.260, 1114.774
1016.742, 1111.914
1017.225, 1115.635
1017.707, 1129.891
1018.189, 1148.972
1018.671, 1148.062
1019.153, 1128.257
1019.635, 1114.096
1020.117, 1114.962
1020.599, 1118.901
1021.082, 1112.419
1021.564, 1100.587
1022.046, 1104.809
1022.528, 1122.640
1023.010, 1117.104
1023.492, 1082.822
1023.974, 1052.597
1024.456, 1043.254
1024.938, 1045.494
1025.421, 1048.884
1025.903, 1051.728
1026.385, 1028.238
1026.867, 974.2168
1027.349, 935.4482
1027.831, 923.6221
1028.313, 914.2017
1028.795, 889.0889
1029.278, 858.4087
1029.760, 847.2563
1030.242, 859.7329
1030.724, 857.3320
1031.206, 840.0503
1031.688, 804.6426
1032.170, 739.5059
1032.652, 680.4375
1033.135, 661.5933
1033.617, 673.0146
1034.099, 678.3350
1034.581, 681.5679
1035.063, 665.6255
1035.545, 620.6597
1036.027, 575.4824
1036.509, 534.7471
1036.991, 505.5464
1037.474, 500.2378
1037.956, 515.6455
1038.438, 518.3374
1038.920, 506.3286
1039.402, 485.2222
1039.884, 451.2563
1040.366, 413.2729
1040.848, 362.6577
1041.330, 318.4951
1041.813, 315.5845
1042.295, 357.2881
1042.777, 367.1304
1043.259, 318.1943
1043.741, 277.3364
1044.223, 245.8159
1044.705, 228.9893
1045.187, 237.9062
1045.670, 260.3047
1046.152, 277.9937
1046.634, 291.5811
1047.116, 290.1890
1047.598, 259.3174
1048.080, 232.0532
1048.562, 219.5737
1049.044, 209.6562
1049.526, 192.3257
1050.009, 171.1025
1050.491, 154.4209
1050.973, 143.4839
1051.455, 135.5469
1051.937, 135.4199
1052.419, 131.3354
1052.901, 113.7461
1053.383, 94.88574
1053.865, 85.31592
1054.348, 83.77930
1054.830, 84.90283
1055.312, 89.60645
1055.794, 91.06396
1056.276, 87.97852
1056.758, 80.86328
1057.240, 64.84131
1057.722, 48.69629
1058.205, 41.60010
1058.687, 43.04785
1059.169, 47.90283
1059.651, 58.25488
1060.133, 63.77979
1060.615, 54.59277
1061.097, 46.98975
1061.579, 59.92920
1062.062, 74.05029
1062.544, 59.38867
1063.026, 19.01611
1063.508, 10.98926
1063.990, 17.09521
1064.472, 15.29443
1064.954, 6.306152
1065.436, 2.979004
1065.918, 8.330078
1066.401, 10.64307
1066.883, 10.54590
1067.365, 8.743164
1067.847, 9.054199
1068.329, 12.82910
1068.811, 19.05029
1069.293, 35.67969
1069.775, 46.46777
1070.257, 32.54346
1070.740, 6.732422
1071.222, 10.23730
1071.704, 14.72803
1072.186, 13.92480
1072.668, 5.384766
1073.150, 0.9145510
1073.632, 1.013184
1074.114, 3.925293
1074.596, 2.738281
1075.079, 1.175781
1075.561, 4.537598
1076.043, 13.72852
1076.525, 15.51807
1077.007, 6.905762
1077.489, 24.36084
1077.971, 17.95947
1078.453, 3.808105
1078.936, 8.416504
1079.418, 15.39941
1079.900, 11.77881
1080.382, 3.916992
1080.864, 14.76221
1081.346, 9.401855
1081.828, 2.160156
1082.310, 2.332520
1082.792, 2.805664
1083.275, 5.603516
1083.757, 18.56104
1084.239, 26.00195
1084.721, 25.05420
1085.203, 24.49512
1085.685, 30.50635
1086.167, 34.57861
1086.649, 29.85059
1087.131, 24.05615
1087.614, 24.46484
1088.096, 29.84375
1088.578, 35.03564
1089.060, 38.35889
1089.542, 46.39355
1090.024, 61.75098
1090.506, 83.31006
1090.988, 124.7598
1091.471, 159.1982
1091.953, 149.7168
1092.435, 113.9307
1092.917, 98.66455
1093.399, 117.0698
1093.881, 133.5212
1094.363, 125.5000
1094.845, 124.0906
1095.328, 153.4563
1095.810, 187.9583
1096.292, 203.8435
1096.774, 205.0742
1097.256, 206.0818
1097.738, 210.3062
1098.220, 209.8459
1098.702, 198.7322
1099.184, 188.9404
1099.667, 182.9995
1100.149, 183.4863
1100.631, 196.1721
1101.113, 215.6755
1101.595, 228.4854
1102.077, 229.2202
1102.559, 234.5806
1103.041, 259.1775
1103.523, 279.0991
1104.006, 282.7742
1104.488, 280.7385
1104.970, 281.3364
1105.452, 283.1599
1105.934, 281.6553
1106.416, 276.1885
1106.898, 271.3823
1107.380, 262.3923
1107.863, 261.5579
1108.345, 284.9041
1108.827, 307.3867
1109.309, 311.2373
1109.791, 299.4326
1110.273, 276.0588
1110.755, 233.9795
1111.237, 213.2104
1111.719, 242.0420
1112.202, 260.2766
1112.684, 240.0515
1113.166, 217.5278
1113.648, 225.4092
1114.130, 249.4893
1114.612, 255.0566
1115.094, 238.1501
1115.576, 218.8677
1116.058, 188.0811
1116.541, 168.6870
1117.023, 171.6077
1117.505, 178.5952
1117.987, 178.9292
1118.469, 175.2979
1118.951, 173.5764
1119.433, 174.7812
1119.915, 169.9182
1120.398, 154.6428
1120.880, 142.9124
1121.362, 141.8889
1121.844, 135.6575
1122.326, 110.4133
1122.808, 79.09424
1123.290, 65.74585
1123.772, 71.56055
1124.255, 67.84399
1124.737, 48.60156
1125.219, 39.77368
1125.701, 49.04346
1126.183, 58.97729
1126.665, 61.41113
1127.147, 55.95190
1127.629, 38.84839
1128.111, 11.78320
1128.594, 9.624268
1129.076, 38.81519
1129.558, 48.40942
1130.040, 29.40527
1130.522, 1.785156
1131.004, 28.15894
1131.486, 46.81055
1131.968, 32.42554
1132.450, 7.441895
1132.933, 31.13989
1133.415, 38.55396
1133.897, 34.37964
1134.379, 19.08008
1134.861, 4.245850
1135.343, 5.898438
1135.825, 7.930908
1136.307, 4.767090
1136.790, 23.91821
1137.272, 21.32715
1137.754, 2.883057
1138.236, 5.461426
1138.718, 28.35278
1139.200, 40.15112
1139.682, 30.10034
1140.164, 12.49927
1140.646, 1.736328
1141.129, 11.45020
1141.611, 13.17749
1142.093, 9.042236
1142.575, 4.827881
1143.057, 1.8555000E-02
1143.539, 11.98560
1144.021, 30.91333
1144.503, 42.33472
1144.985, 34.48975
1145.468, 19.97070
1145.950, 13.47290
1146.432, 10.32495
1146.914, 3.170410
1147.396, 6.942383
1147.878, 20.16113
1148.360, 33.02246
1148.842, 30.35693
1149.325, 0.7146000
1149.807, 27.47705
1150.289, 30.49951
1150.771, 23.45703
1151.253, 16.67261
1151.735, 11.36035
1152.217, 6.973633
1152.699, 4.465088
1153.182, 8.816650
1153.664, 24.10962
1154.146, 33.16187
1154.628, 16.45117
1155.110, 4.731201
1155.592, 26.58813
1156.074, 52.59546
1156.556, 49.54932
1157.038, 26.72559
1157.521, 14.20581
1158.003, 19.22119
1158.485, 19.57373
1158.967, 2.982666
1159.449, 12.37061
1159.931, 17.09058
1160.413, 48.01904
1160.895, 53.41626
1161.377, 42.66113
1161.860, 31.97095
1162.342, 20.66162
1162.824, 24.27612
1163.306, 63.17700
1163.788, 79.11548
1164.270, 47.35864
1164.752, 24.37085
1165.234, 45.55566
1165.717, 77.73340
1166.199, 76.43994
1166.681, 46.06665
1167.163, 25.54590
1167.645, 14.75757
1168.127, 18.30029
1168.609, 42.15552
1169.091, 49.74268
1169.573, 22.31396
1170.056, 2.631836
1170.538, 13.88257
1171.020, 56.34961
1171.502, 79.83276
1171.984, 84.93994
1172.466, 78.45654
1172.948, 61.59009
1173.430, 55.59375
1173.912, 65.74072
1174.395, 78.95923
1174.877, 86.51050
1175.359, 89.31177
1175.841, 86.56909
1176.323, 81.12817
1176.805, 81.13721
1177.287, 85.05957
1177.769, 87.73633
1178.252, 88.17358
1178.734, 87.26709
1179.216, 85.45288
1179.698, 82.47339
1180.180, 75.89526
1180.662, 70.20044
1181.144, 68.17944
1181.626, 71.93848
1182.109, 91.82935
1182.591, 118.2520
1183.073, 124.5642
1183.555, 104.9717
1184.037, 88.55420
1184.519, 91.80493
1185.001, 100.2646
1185.483, 115.0349
1185.965, 123.5039
1186.448, 107.7908
1186.930, 83.99146
1187.412, 77.30200
1187.894, 88.29907
1188.376, 96.80273
1188.858, 98.71631
1189.340, 95.21582
1189.822, 78.68140
1190.304, 72.45728
1190.787, 94.00732
1191.269, 116.9709
1191.751, 115.5557
1192.233, 98.02881
1192.715, 90.97876
1193.197, 96.19897
1193.679, 103.3374
1194.161, 115.7671
1194.644, 122.4915
1195.126, 119.6433
1195.608, 114.8972
1196.090, 115.0686
1196.572, 113.2561
1197.054, 94.24927
1197.536, 62.19580
1198.018, 50.21680
1198.500, 57.09473
1198.983, 69.62427
1199.465, 85.98657
1199.947, 95.60986
1200.429, 94.07373
1200.911, 88.62720
1201.393, 86.06958
1201.875, 85.42529
1202.357, 89.19751
1202.839, 91.98828
1203.322, 74.29907
1203.804, 45.98413
1204.286, 42.83228
1204.768, 66.77930
1205.250, 78.50391
1205.732, 52.20508
1206.214, 25.03442
1206.696, 30.46118
1207.179, 47.44385
1207.661, 61.02490
1208.143, 68.12402
1208.625, 62.79346
1209.107, 50.19995
1209.589, 45.74292
1210.071, 54.33276
1210.553, 59.99658
1211.036, 54.81299
1211.518, 51.93115
1212.000, 56.43262
1212.482, 61.82202
1212.964, 62.89282
1213.446, 64.52905
1213.928, 76.10327
1214.410, 96.19800
1214.892, 96.26074
1215.375, 64.47681
1215.857, 46.04419
1216.339, 48.75122
1216.821, 44.96729
1217.303, 22.87476
1217.785, 4.543457
1218.267, 7.932129
1218.749, 24.02759
1219.231, 30.09497
1219.714, 27.40942
1220.196, 40.81030
1220.678, 68.13721
1221.160, 75.22241
1221.642, 57.13281
1222.124, 43.26099
1222.606, 49.04810
1223.088, 59.75317
1223.571, 57.35376
1224.053, 45.01343
1224.535, 24.82397
1225.017, 5.784912
1225.499, 3.139893
1225.981, 18.34888
1226.463, 39.89966
1226.945, 62.41797
1227.427, 69.67700
1227.910, 42.97754
1228.392, 20.97925
1228.874, 30.15796
1229.356, 44.67505
1229.838, 44.67603
1230.320, 42.47974
1230.802, 59.68115
1231.284, 88.43481
1231.766, 93.88721
1232.249, 62.12549
1232.731, 44.73975
1233.213, 56.78296
1233.695, 58.63037
1234.177, 36.02344
1234.659, 16.27734
1235.141, 14.60962
1235.623, 23.53027
1236.106, 34.61157
1236.588, 45.91919
1237.070, 40.89526
1237.552, 18.72363
1238.034, 19.42944
1238.516, 45.37524
1238.998, 63.49805
1239.480, 63.47974
1239.963, 57.42163
1240.445, 52.49658
1240.927, 49.92603
1241.409, 54.60181
1241.891, 61.07690
1242.373, 56.51221
1242.855, 47.54272
1243.337, 42.23682
1243.819, 43.38379
1244.302, 53.45850
1244.784, 72.30713
1245.266, 84.76782
1245.748, 78.66382
1246.230, 68.98486
1246.712, 60.34473
1247.194, 54.72852
1247.676, 53.30469
1248.158, 55.86328
1248.641, 65.34424
1249.123, 78.52490
1249.605, 82.14453
1250.087, 67.41504
1250.569, 65.56445
1251.051, 86.39893
1251.533, 96.80396
1252.015, 86.67676
1252.498, 69.47754
1252.980, 50.73169
1253.462, 38.00928
1253.944, 38.07471
1254.426, 47.59619
1254.908, 52.93823
1255.390, 54.27661
1255.872, 52.50244
1256.354, 48.32935
1256.837, 45.16357
1257.319, 44.53662
1257.801, 51.78687
1258.283, 77.97559
1258.765, 96.62012
1259.247, 57.85522
1259.729, 11.83398
1260.211, 27.07788
1260.693, 68.82788
1261.176, 81.62671
1261.658, 68.06885
1262.140, 60.01978
1262.622, 66.16675
1263.104, 69.40332
1263.586, 61.98608
1264.068, 54.42773
1264.550, 51.49805
1265.033, 46.78564
1265.515, 28.23413
1265.997, 14.62085
1266.479, 33.21533
1266.961, 73.10083
1267.443, 82.38501
1267.925, 53.35718
1268.407, 41.89868
1268.890, 51.08911
1269.372, 44.85205
1269.854, 14.30811
1270.336, 3.603516
1270.818, 12.87988
1271.300, 39.92627
1271.782, 51.89478
1272.264, 50.28149
1272.746, 27.34448
1273.229, 1.356934
1273.711, 0.2583010
1274.193, 21.37549
1274.675, 27.88940
1275.157, 15.60034
1275.639, 5.887207
1276.121, 14.66309
1276.603, 24.70410
1277.085, 31.53149
1277.568, 33.39502
1278.050, 20.51343
1278.532, 5.865234
1279.014, 7.9102002E-02
1279.496, 0.6105960
1279.978, 0.0000000E+00
##END=



