##NAMES=Priderite
##RRUFFID=R130169
##IDEAL CHEMISTRY=K(Ti^4+^_7_Fe^3+^)O_16_
##LOCALITY=Vounnemiok River, Kola Peninsula, Russia
##OWNER=RRUFF
##SOURCE=Rock Currier
##DESCRIPTION=Black prismatic crystals and massive in quartz
##STATUS=The identification of this mineral is confirmed by single-crystal X-ray diffraction and chemical analysis.
##URL=rruff.info/R130169
##MEASURED CHEMISTRY=K_1.40_Ba_0.01_(Ti^4+^_7.13_Fe^3+^_0.68_)O_16_
99.87768, 0.0000000E+00
100.3598, 0.4640960
100.8419, 0.2509940
101.3240, 0.1136420
101.8061, 0.2619300
102.2883, 0.1376040
102.7704, 6.3948996E-02
103.2525, 0.5892870
103.7346, 1.761484
104.2167, 3.151995
104.6988, 4.674367
105.1810, 6.152309
105.6631, 7.266896
106.1452, 7.790171
106.6273, 7.824953
107.1094, 7.785470
107.5915, 7.581275
108.0737, 7.392832
108.5558, 7.204489
109.0379, 7.079517
109.5200, 7.163146
110.0021, 7.633255
110.4842, 8.599088
110.9664, 9.365831
111.4485, 9.981610
111.9306, 10.38411
112.4127, 10.35477
112.8948, 9.954235
113.3769, 9.545674
113.8591, 9.686942
114.3412, 10.92853
114.8233, 11.74014
115.3054, 11.87073
115.7875, 11.71055
116.2696, 11.61443
116.7517, 11.70504
117.2339, 11.89968
117.7160, 11.98801
118.1981, 11.80315
118.6802, 11.87271
119.1623, 12.51315
119.6444, 13.53906
120.1266, 14.45820
120.6087, 15.08151
121.0908, 15.47543
121.5729, 15.80541
122.0550, 16.07601
122.5371, 16.36197
123.0193, 16.71754
123.5014, 17.20645
123.9835, 17.85313
124.4656, 18.31950
124.9477, 18.42541
125.4298, 18.52485
125.9120, 18.74976
126.3941, 19.12506
126.8762, 19.63509
127.3583, 20.58831
127.8404, 21.44015
128.3225, 21.95344
128.8047, 22.26311
129.2868, 22.22985
129.7689, 22.18034
130.2510, 22.07996
130.7331, 22.25900
131.2152, 22.90333
131.6974, 23.30043
132.1795, 23.28337
132.6616, 23.08381
133.1437, 22.63175
133.6258, 21.85846
134.1079, 20.76871
134.5901, 20.30977
135.0722, 21.15815
135.5543, 21.95772
136.0364, 22.02004
136.5185, 21.37312
137.0006, 20.47111
137.4828, 19.87276
137.9649, 19.78510
138.4470, 19.80384
138.9291, 19.97594
139.4112, 20.12854
139.8933, 19.80914
140.3755, 18.97904
140.8576, 17.96581
141.3397, 17.24612
141.8218, 16.79899
142.3039, 16.32029
142.7860, 15.63797
143.2681, 14.82513
143.7503, 14.12440
144.2324, 13.63307
144.7145, 13.20367
145.1966, 12.73854
145.6787, 12.23369
146.1608, 11.61172
146.6430, 10.72244
147.1251, 9.516868
147.6072, 8.451522
148.0893, 7.849214
148.5714, 7.422927
149.0535, 7.285446
149.5357, 7.435780
150.0178, 7.562999
150.4999, 7.146034
150.9820, 5.788643
151.4641, 4.727951
151.9462, 4.288463
152.4284, 4.008633
152.9105, 3.454562
153.3926, 2.476486
153.8747, 1.323306
154.3568, 0.6131100
154.8389, 0.8846700
155.3211, 0.9904970
155.8032, 0.8585230
156.2853, 0.5384150
156.7674, 5.4090000E-03
157.2495, 0.6368390
157.7316, 0.2691210
158.2138, 0.6156920
158.6959, 0.1420680
159.1780, 0.5527170
159.6601, 6.6551000E-02
160.1422, 0.1718010
160.6243, 0.1865380
161.1065, 5.4260999E-02
161.5886, 0.4758160
162.0707, 0.6672560
162.5528, 0.6474040
163.0349, 0.5719300
163.5170, 0.6257770
163.9991, 0.2469880
164.4813, 0.1115920
164.9634, 0.3202180
165.4455, 0.3990170
165.9276, 0.4210200
166.4097, 0.4291950
166.8918, 0.3569220
167.3740, 5.4129001E-02
167.8561, 7.2690710E-02
168.3382, 0.1208420
168.8203, 1.0605000E-02
169.3024, 9.3138002E-02
169.7845, 0.2944790
170.2667, 0.4798750
170.7488, 0.1198530
171.2309, 6.3184999E-02
171.7130, 3.4870000E-03
172.1951, 0.1285370
172.6772, 0.3592080
173.1594, 0.3718690
173.6415, 0.2869840
174.1236, 0.4055090
174.6057, 7.9809003E-02
175.0878, 0.3328870
175.5699, 0.1713850
176.0521, 4.4927001E-02
176.5342, 0.2833950
177.0163, 0.3046570
177.4984, 0.1579890
177.9805, 0.1843260
178.4626, 0.3703330
178.9448, 0.3405650
179.4269, 0.2580180
179.9090, 0.8064320
180.3911, 1.164351
180.8732, 1.323180
181.3553, 1.285809
181.8375, 1.008576
182.3196, 0.4258360
182.8017, 0.2984630
183.2838, 1.010444
183.7659, 1.727063
184.2480, 2.039515
184.7301, 1.949512
185.2123, 1.679500
185.6944, 1.395009
186.1765, 1.085867
186.6586, 0.9920890
187.1407, 1.331876
187.6228, 1.727403
188.1050, 1.880074
188.5871, 1.762588
189.0692, 1.574914
189.5513, 1.468774
190.0334, 1.454648
190.5155, 1.598839
190.9977, 2.123934
191.4798, 2.714826
191.9619, 2.952351
192.4440, 2.732889
192.9261, 2.462614
193.4082, 2.618521
193.8904, 3.067514
194.3725, 3.410689
194.8546, 3.509491
195.3367, 3.425095
195.8188, 3.213820
196.3009, 2.756068
196.7831, 2.454511
197.2652, 2.733345
197.7473, 3.404597
198.2294, 3.994834
198.7115, 4.214438
199.1936, 4.142557
199.6758, 4.121310
200.1579, 4.210537
200.6400, 4.275477
201.1221, 4.194846
201.6042, 4.028831
202.0863, 3.928013
202.5685, 3.988516
203.0506, 4.205523
203.5327, 4.517216
204.0148, 4.991944
204.4969, 5.497797
204.9790, 6.089314
205.4612, 6.681172
205.9433, 7.091836
206.4254, 7.138970
206.9075, 6.804435
207.3896, 6.489441
207.8717, 6.085023
208.3539, 5.801933
208.8360, 5.685064
209.3181, 5.747993
209.8002, 6.029957
210.2823, 6.637618
210.7644, 7.663081
211.2466, 8.112494
211.7287, 7.397754
212.2108, 6.708521
212.6929, 6.556582
213.1750, 6.885502
213.6571, 7.348717
214.1393, 7.633210
214.6214, 7.698398
215.1035, 7.744481
215.5856, 7.941536
216.0677, 8.067652
216.5498, 7.989808
217.0320, 7.743385
217.5141, 7.633941
217.9962, 7.920651
218.4783, 8.670768
218.9604, 9.001571
219.4425, 8.418440
219.9247, 7.824758
220.4068, 7.919157
220.8889, 8.661791
221.3710, 9.401770
221.8531, 9.606658
222.3352, 9.161513
222.8174, 8.819856
223.2995, 8.601842
223.7816, 8.545025
224.2637, 8.690483
224.7458, 9.011658
225.2279, 9.399210
225.7100, 9.849091
226.1922, 10.38908
226.6743, 10.65884
227.1564, 10.41306
227.6385, 10.05789
228.1206, 9.878340
228.6027, 9.932602
229.0849, 10.12406
229.5670, 10.45895
230.0491, 10.85470
230.5312, 11.12549
231.0133, 11.07697
231.4954, 11.00000
231.9776, 11.30315
232.4597, 12.08519
232.9418, 12.71008
233.4239, 12.60472
233.9060, 12.13162
234.3881, 11.85641
234.8703, 12.09007
235.3524, 12.45689
235.8345, 12.29171
236.3166, 11.38352
236.7987, 10.74680
237.2808, 11.09843
237.7630, 11.95654
238.2451, 12.95770
238.7272, 14.14985
239.2093, 15.20251
239.6914, 15.45206
240.1735, 14.61079
240.6557, 13.88513
241.1378, 13.88683
241.6199, 14.17614
242.1020, 14.33724
242.5841, 14.20240
243.0662, 13.95693
243.5484, 13.92745
244.0305, 14.17909
244.5126, 14.47727
244.9947, 14.89116
245.4768, 15.25864
245.9589, 15.40430
246.4410, 15.25973
246.9232, 14.96806
247.4053, 14.75910
247.8874, 14.62364
248.3695, 14.60984
248.8516, 14.91200
249.3337, 15.21762
249.8159, 15.20408
250.2980, 14.78506
250.7801, 14.26473
251.2622, 14.22674
251.7443, 15.06710
252.2264, 15.48060
252.7086, 14.96732
253.1907, 14.30261
253.6728, 14.11607
254.1549, 14.53266
254.6370, 15.12027
255.1191, 15.17872
255.6013, 14.33269
256.0834, 13.76744
256.5655, 13.62413
257.0476, 13.62294
257.5297, 13.66983
258.0118, 13.70543
258.4940, 13.61637
258.9761, 13.20289
259.4582, 12.20356
259.9403, 11.55415
260.4224, 11.35223
260.9045, 11.34027
261.3867, 11.45498
261.8688, 11.63786
262.3509, 11.76121
262.8330, 11.67389
263.3151, 11.32208
263.7972, 10.93587
264.2794, 10.48477
264.7615, 10.02901
265.2436, 9.572218
265.7257, 9.134429
266.2078, 8.780190
266.6899, 8.602579
267.1721, 8.669069
267.6542, 8.458805
268.1363, 7.797182
268.6184, 7.084487
269.1005, 6.492720
269.5826, 6.019392
270.0648, 5.592331
270.5469, 5.154180
271.0290, 4.707721
271.5111, 4.310396
271.9932, 3.955709
272.4753, 3.642349
272.9575, 3.396032
273.4396, 3.196383
273.9217, 3.001043
274.4038, 2.791110
274.8859, 2.557877
275.3680, 2.194110
275.8501, 1.422792
276.3322, 0.8505690
276.8144, 0.8953780
277.2965, 1.295204
277.7786, 1.412944
278.2607, 0.8490370
278.7428, 0.1762750
279.2249, 0.6946270
279.7071, 0.3020170
280.1892, 1.0218000E-02
280.6713, 0.1217200
281.1534, 0.4854340
281.6355, 0.6566250
282.1176, 0.4179180
282.5998, 1.3220001E-03
283.0819, 4.3148998E-02
283.5640, 0.4850610
284.0461, 9.4750002E-02
284.5282, 6.7355998E-02
285.0103, 0.6122500
285.4925, 0.3803080
285.9746, 0.2959730
286.4567, 0.3650140
286.9388, 0.3018480
287.4209, 0.2695791
287.9030, 0.1390280
288.3852, 0.2209110
288.8673, 0.2484520
289.3494, 0.3095270
289.8315, 0.4265230
290.3136, 0.5140390
290.7957, 0.4115250
291.2779, 6.6335000E-02
291.7600, 2.7231000E-02
292.2421, 0.3807830
292.7242, 0.9480670
293.2063, 1.361970
293.6884, 1.582383
294.1706, 1.681615
294.6527, 1.649450
295.1348, 1.498988
295.6169, 1.642000
296.0990, 2.412178
296.5811, 3.250105
297.0633, 3.686019
297.5454, 3.725798
298.0275, 3.701681
298.5096, 3.801080
298.9917, 4.042576
299.4738, 4.420928
299.9560, 5.126932
300.4381, 5.790606
300.9202, 6.155856
301.4023, 6.275071
301.8844, 6.407990
302.3665, 6.706326
302.8487, 7.098654
303.3308, 7.380242
303.8129, 7.576905
304.2950, 7.644452
304.7771, 7.369095
305.2592, 6.935205
305.7414, 6.880736
306.2235, 7.500932
306.7056, 8.422517
307.1877, 8.872851
307.6698, 8.738058
308.1519, 8.704407
308.6341, 9.083431
309.1162, 9.688121
309.5983, 10.24586
310.0804, 10.71467
310.5625, 10.99760
311.0446, 10.80570
311.5268, 10.10625
312.0089, 9.740269
312.4910, 10.08835
312.9731, 10.75581
313.4552, 11.28315
313.9373, 11.60020
314.4195, 11.88480
314.9016, 12.34264
315.3837, 12.95013
315.8658, 13.36557
316.3479, 13.49105
316.8300, 13.47203
317.3121, 13.38402
317.7943, 13.23828
318.2764, 13.10811
318.7585, 13.02764
319.2406, 13.01623
319.7227, 13.10621
320.2048, 13.36918
320.6870, 13.67729
321.1691, 13.94107
321.6512, 14.17991
322.1333, 14.47809
322.6154, 14.93616
323.0975, 15.41876
323.5797, 15.51144
324.0618, 15.05569
324.5439, 14.66575
325.0260, 14.55518
325.5081, 14.65909
325.9902, 14.88626
326.4724, 15.21415
326.9545, 15.54788
327.4366, 15.77002
327.9187, 15.90516
328.4008, 16.00538
328.8829, 15.95383
329.3651, 15.82523
329.8472, 15.76758
330.3293, 15.83292
330.8114, 15.94681
331.2935, 16.02459
331.7756, 16.04599
332.2578, 16.02132
332.7399, 15.84321
333.2220, 15.72891
333.7041, 15.95943
334.1862, 16.47527
334.6683, 16.82639
335.1505, 16.64073
335.6326, 16.00198
336.1147, 15.65431
336.5968, 15.65947
337.0789, 15.79766
337.5610, 16.25124
338.0432, 16.84269
338.5253, 17.14052
339.0074, 16.88012
339.4895, 16.19193
339.9716, 15.46665
340.4537, 14.45979
340.9359, 13.83444
341.4180, 14.11669
341.9001, 14.71576
342.3822, 14.66368
342.8643, 13.65987
343.3464, 12.43194
343.8286, 11.95516
344.3107, 12.62799
344.7928, 12.88952
345.2749, 12.46314
345.7570, 11.81524
346.2391, 11.24942
346.7213, 10.81713
347.2034, 10.48217
347.6855, 10.23288
348.1676, 10.07490
348.6497, 9.861770
349.1318, 9.512661
349.6140, 9.197591
350.0961, 8.991231
350.5782, 8.881793
351.0603, 8.861865
351.5424, 8.945346
352.0245, 9.076746
352.5067, 9.010049
352.9888, 8.671664
353.4709, 8.228854
353.9530, 7.491165
354.4351, 6.741374
354.9172, 6.362976
355.3994, 6.480476
355.8815, 6.819756
356.3636, 6.918524
356.8457, 6.657079
357.3278, 6.371622
357.8099, 5.915535
358.2920, 5.543744
358.7741, 5.493328
359.2563, 5.741189
359.7384, 6.062534
360.2205, 6.267443
360.7026, 6.374625
361.1847, 6.162270
361.6668, 5.228000
362.1490, 4.413692
362.6311, 4.114538
363.1132, 4.133059
363.5953, 4.061224
364.0774, 3.640675
364.5595, 2.970487
365.0417, 2.469049
365.5238, 2.186571
366.0059, 2.027540
366.4880, 2.020866
366.9701, 2.103154
367.4522, 2.247688
367.9344, 2.435760
368.4165, 2.602895
368.8986, 2.659469
369.3807, 2.619186
369.8628, 2.418545
370.3449, 1.840348
370.8271, 1.292484
371.3092, 1.041958
371.7913, 1.051280
372.2734, 1.058725
372.7555, 0.8027100
373.2376, 0.2967110
373.7198, 2.9061001E-02
374.2019, 6.4979002E-02
374.6840, 3.9074998E-02
375.1661, 1.6462000E-02
375.6482, 7.0359997E-02
376.1303, 8.2243003E-02
376.6125, 3.3821002E-02
377.0946, 7.0418999E-02
377.5767, 4.4741817E-02
378.0588, 0.1354850
378.5409, 4.9173001E-02
379.0230, 0.1852320
379.5052, 0.2583710
379.9873, 6.3721001E-02
380.4694, 4.5070000E-02
380.9515, 0.1415120
381.4336, 1.6723005E-02
381.9157, 0.1157920
382.3979, 4.1152999E-02
382.8800, 0.1232720
383.3621, 0.3561660
383.8442, 0.2784480
384.3263, 0.1079780
384.8084, 0.1873690
385.2906, 8.8579999E-03
385.7727, 0.9667390
386.2548, 1.326425
386.7369, 0.9126900
387.2190, 0.4475430
387.7011, 0.3990330
388.1833, 0.5385460
388.6654, 0.5396650
389.1475, 0.2910950
389.6296, 1.6491000E-02
390.1117, 0.2623770
390.5938, 0.4406130
391.0760, 0.4653880
391.5581, 0.2225890
392.0402, 7.8119002E-02
392.5223, 0.1289490
393.0044, 8.3394997E-02
393.4865, 0.2985470
393.9687, 0.4985380
394.4508, 0.5717510
394.9329, 0.4304990
395.4150, 0.1152550
395.8971, 0.5761900
396.3792, 0.5015740
396.8614, 6.8930998E-02
397.3435, 0.5055980
397.8256, 0.6469730
398.3077, 0.5405260
398.7898, 0.2680320
399.2719, 0.1263880
399.7540, 0.4715560
400.2361, 0.6793200
400.7183, 0.7854690
401.2004, 0.8843630
401.6825, 0.9791870
402.1646, 1.062252
402.6467, 1.102653
403.1288, 1.144515
403.6110, 1.248422
404.0931, 1.425077
404.5752, 1.626271
405.0573, 1.803825
405.5394, 1.964316
406.0215, 2.048474
406.5037, 2.043494
406.9858, 1.986053
407.4679, 1.778606
407.9500, 1.528999
408.4321, 1.512379
408.9142, 1.927370
409.3964, 2.647498
409.8785, 3.090244
410.3606, 2.909996
410.8427, 2.888825
411.3248, 3.211432
411.8069, 3.651523
412.2891, 4.032789
412.7712, 4.293051
413.2533, 4.413690
413.7354, 4.305927
414.2175, 3.837456
414.6996, 3.674163
415.1818, 4.115553
415.6639, 4.592578
416.1460, 4.918714
416.6281, 5.104101
417.1102, 5.204312
417.5923, 5.224843
418.0745, 5.216377
418.5566, 5.392577
419.0387, 5.903853
419.5208, 6.259435
420.0029, 5.995875
420.4850, 5.682613
420.9672, 5.986507
421.4493, 7.086858
421.9314, 8.194884
422.4135, 8.369201
422.8956, 7.664326
423.3777, 7.238999
423.8599, 7.356776
424.3420, 7.672606
424.8241, 7.941103
425.3062, 8.173961
425.7883, 8.414894
426.2704, 8.661929
426.7526, 8.938227
427.2347, 9.325308
427.7168, 9.838868
428.1989, 10.23985
428.6810, 10.36062
429.1631, 10.29860
429.6453, 10.30624
430.1274, 10.44610
430.6095, 10.51479
431.0916, 10.26918
431.5737, 9.893174
432.0558, 9.803421
432.5380, 10.12071
433.0201, 10.62847
433.5022, 11.11356
433.9843, 11.57575
434.4664, 11.91996
434.9485, 12.11710
435.4307, 12.19715
435.9128, 12.04460
436.3949, 11.78661
436.8770, 11.83843
437.3591, 12.52249
437.8412, 13.58700
438.3234, 14.01566
438.8055, 13.02217
439.2876, 12.35658
439.7697, 12.30285
440.2518, 12.56992
440.7339, 12.94076
441.2160, 13.34051
441.6982, 13.76467
442.1803, 14.21211
442.6624, 14.69940
443.1445, 14.86776
443.6266, 14.34357
444.1087, 13.85920
444.5909, 13.70453
445.0730, 13.78124
445.5551, 13.88031
446.0372, 13.89698
446.5193, 13.87424
447.0014, 13.92154
447.4836, 14.09241
447.9657, 14.15556
448.4478, 13.90229
448.9299, 13.65445
449.4120, 13.65645
449.8941, 13.89599
450.3763, 14.13804
450.8584, 14.16168
451.3405, 14.03084
451.8226, 14.12851
452.3047, 14.65534
452.7868, 14.92605
453.2690, 14.13818
453.7511, 12.90655
454.2332, 12.21180
454.7153, 12.47181
455.1974, 12.92521
455.6795, 12.94990
456.1617, 12.65869
456.6438, 12.51276
457.1259, 12.65251
457.6080, 12.90792
458.0901, 13.09735
458.5722, 13.22335
459.0544, 13.34172
459.5365, 13.55480
460.0186, 13.69785
460.5007, 13.55003
460.9828, 13.16125
461.4649, 12.83435
461.9471, 12.76161
462.4292, 12.88553
462.9113, 12.96662
463.3934, 13.01848
463.8755, 13.01432
464.3576, 12.96284
464.8398, 12.84693
465.3219, 12.58511
465.8040, 12.19276
466.2861, 11.87423
466.7682, 11.87794
467.2503, 12.25307
467.7325, 12.35174
468.2146, 11.83768
468.6967, 11.41109
469.1788, 11.31753
469.6609, 11.41317
470.1430, 11.47737
470.6252, 11.41364
471.1073, 11.28227
471.5894, 11.19915
472.0715, 11.20588
472.5536, 11.17545
473.0357, 11.02531
473.5179, 10.83958
474.0000, 10.54726
474.4821, 10.17376
474.9642, 9.919902
475.4463, 9.988300
475.9284, 10.23864
476.4106, 10.25997
476.8927, 10.01266
477.3748, 9.713238
477.8569, 9.389145
478.3390, 9.102322
478.8211, 8.989306
479.3033, 9.125611
479.7854, 9.186928
480.2675, 8.903011
480.7496, 8.443880
481.2317, 8.204979
481.7138, 8.280415
482.1959, 8.350150
482.6780, 8.074772
483.1602, 7.468329
483.6423, 7.163878
484.1244, 7.389752
484.6065, 7.649146
485.0886, 7.698018
485.5707, 7.652460
486.0529, 7.761699
486.5350, 8.116921
487.0171, 8.534713
487.4992, 8.719738
487.9813, 8.650414
488.4634, 8.391045
488.9456, 7.720627
489.4277, 7.104923
489.9098, 6.735168
490.3919, 6.612918
490.8740, 6.725692
491.3561, 7.107860
491.8383, 7.581297
492.3204, 7.629327
492.8025, 7.077096
493.2846, 6.585448
493.7667, 6.225868
494.2488, 6.025452
494.7310, 6.093313
495.2131, 6.395598
495.6952, 6.665604
496.1773, 6.622244
496.6594, 6.412943
497.1415, 6.532023
497.6237, 7.099607
498.1058, 7.459891
498.5879, 7.106372
499.0700, 6.361285
499.5521, 5.850127
500.0342, 5.642736
500.5164, 5.570248
500.9985, 5.685988
501.4806, 5.843385
501.9627, 5.706641
502.4448, 5.202771
502.9269, 4.724017
503.4091, 4.685385
503.8912, 5.107337
504.3733, 5.255057
504.8554, 4.871279
505.3375, 4.533659
505.8196, 4.466598
506.3018, 4.571596
506.7839, 4.728972
507.2660, 4.887434
507.7481, 4.983236
508.2302, 4.908452
508.7123, 4.619030
509.1945, 4.317478
509.6766, 3.970509
510.1587, 3.645003
510.6408, 3.361916
511.1229, 3.118702
511.6050, 2.887515
512.0872, 2.634142
512.5693, 2.452751
513.0514, 2.566842
513.5335, 3.032342
514.0156, 3.412992
514.4977, 3.697531
514.9799, 3.784069
515.4620, 3.475809
515.9441, 2.850745
516.4262, 2.441188
516.9083, 2.689270
517.3904, 3.087508
517.8726, 2.873876
518.3547, 2.084924
518.8368, 1.400953
519.3189, 1.137286
519.8010, 1.162483
520.2831, 1.227458
520.7653, 1.394605
521.2474, 1.419765
521.7295, 1.197273
522.2116, 0.8616770
522.6937, 0.4619570
523.1758, 4.6806999E-02
523.6580, 0.2627600
524.1401, 0.3743490
524.6222, 0.3122200
525.1043, 0.1668100
525.5864, 7.2603002E-02
526.0685, 0.2825840
526.5507, 0.5870380
527.0328, 0.8242780
527.5149, 0.8643540
527.9970, 0.7051270
528.4791, 0.4258690
528.9612, 8.5476004E-02
529.4434, 0.3103720
529.9255, 0.7275710
530.4076, 0.1708230
530.8897, 0.5817170
531.3718, 0.5605350
531.8539, 0.6595880
532.3361, 0.6595638
532.8182, 0.6305407
533.3003, 0.6309402
533.7824, 0.5657450
534.2645, 0.5256090
534.7466, 0.5336980
535.2288, 0.4452720
535.7109, 0.1960630
536.1930, 8.9899004E-02
536.6751, 0.1103500
537.1572, 0.2272320
537.6393, 0.5268910
538.1215, 0.2970150
538.6036, 1.0530000E-03
539.0857, 0.2400120
539.5678, 0.3555840
540.0499, 0.3374730
540.5320, 0.3065400
541.0142, 0.4041080
541.4963, 0.6411590
541.9784, 0.7872330
542.4604, 0.8039380
542.9426, 0.7784170
543.4247, 0.6501780
543.9068, 0.5128530
544.3889, 0.4576010
544.8710, 0.5442250
545.3531, 0.6552180
545.8353, 0.6675930
546.3174, 0.5864150
546.7995, 0.4621150
547.2816, 0.2536000
547.7637, 9.4846003E-02
548.2458, 4.5125999E-02
548.7280, 0.1060340
549.2101, 0.3290230
549.6922, 0.8285840
550.1743, 1.264434
550.6564, 1.392829
551.1385, 1.310708
551.6207, 1.214146
552.1028, 1.144341
552.5849, 1.046086
553.0670, 0.8293240
553.5491, 0.4936260
554.0313, 0.4499720
554.5134, 1.040968
554.9955, 1.470134
555.4776, 1.376660
555.9597, 1.066943
556.4418, 0.8949860
556.9240, 0.9621670
557.4061, 1.198832
557.8882, 1.605130
558.3703, 2.200059
558.8524, 2.352759
559.3345, 1.701017
559.8167, 1.114004
560.2988, 0.8454280
560.7809, 0.8104040
561.2630, 0.9668170
561.7451, 1.326462
562.2272, 1.625561
562.7094, 1.591759
563.1915, 1.308721
563.6736, 1.010087
564.1557, 0.6867040
564.6378, 0.5423350
565.1199, 0.8361970
565.6021, 1.432973
566.0842, 1.717996
566.5663, 1.456523
567.0484, 1.223185
567.5305, 1.217657
568.0126, 1.347135
568.4948, 1.593932
568.9769, 1.905240
569.4590, 1.998480
569.9411, 1.537501
570.4232, 0.5759530
570.9053, 0.1852000
571.3875, 1.029098
571.8696, 1.558093
572.3517, 1.382904
572.8338, 0.8982150
573.3159, 0.3656240
573.7980, 7.9548001E-02
574.2802, 0.2172190
574.7623, 0.1397930
575.2444, 3.3466000E-02
575.7265, 0.4930220
576.2086, 1.102385
576.6907, 1.486846
577.1729, 1.334835
577.6550, 0.9193330
578.1371, 0.6998120
578.6192, 0.7288100
579.1013, 0.7500230
579.5834, 0.5645230
580.0656, 0.3816620
580.5477, 0.5867060
581.0298, 1.108644
581.5119, 1.314869
581.9940, 0.7407830
582.4761, 4.2824998E-02
582.9583, 0.3480730
583.4404, 0.2157260
583.9225, 0.6969210
584.4046, 0.4539240
584.8867, 2.0535000E-02
585.3688, 1.2338000E-02
585.8510, 0.2951050
586.3331, 0.3036190
586.8152, 0.1364330
587.2973, 0.3467360
587.7794, 0.4616240
588.2615, 4.8836999E-02
588.7437, 0.2412600
589.2258, 0.2789450
589.7079, 0.2255530
590.1900, 9.3780002E-03
590.6721, 0.7263830
591.1542, 1.127187
591.6364, 0.7225900
592.1185, 0.1849210
592.6006, 0.1411560
593.0827, 0.4432980
593.5648, 0.6107550
594.0469, 0.4452950
594.5291, 0.1207970
595.0112, 0.1183800
595.4933, 0.2692740
595.9754, 0.4083140
596.4575, 0.5511780
596.9396, 0.6285520
597.4218, 0.5087960
597.9039, 0.4353660
598.3860, 0.5210000
598.8681, 0.5576650
599.3502, 0.2584260
599.8323, 4.6741001E-02
600.3145, 7.2407000E-02
600.7966, 0.1375380
601.2787, 0.1663826
601.7608, 0.2630174
602.2429, 0.3796210
602.7250, 0.4407130
603.2072, 0.4720940
603.6893, 0.5058630
604.1714, 0.4823040
604.6535, 0.2615340
605.1356, 1.0594000E-02
605.6177, 2.1756999E-02
606.0999, 0.1900580
606.5820, 0.5458250
607.0641, 1.000905
607.5462, 1.504876
608.0283, 1.861332
608.5104, 2.064004
608.9926, 2.110672
609.4747, 1.561952
609.9568, 1.219329
610.4389, 1.969225
610.9210, 3.499938
611.4031, 4.614254
611.8853, 4.433997
612.3674, 3.581247
612.8495, 3.404896
613.3316, 3.970575
613.8137, 4.413157
614.2958, 4.424497
614.7780, 4.377067
615.2601, 4.676752
615.7422, 5.266662
616.2243, 5.824496
616.7064, 6.315636
617.1885, 6.724295
617.6707, 6.956081
618.1528, 7.112102
618.6349, 7.449844
619.1170, 8.035613
619.5991, 8.582196
620.0812, 8.690022
620.5634, 8.297387
621.0455, 8.411181
621.5276, 9.613204
622.0097, 10.61896
622.4918, 10.99256
622.9739, 11.13987
623.4561, 11.48843
623.9382, 12.11333
624.4203, 12.77667
624.9023, 13.26606
625.3845, 13.64756
625.8666, 14.11003
626.3487, 14.66705
626.8308, 15.18771
627.3129, 15.58602
627.7950, 15.94137
628.2772, 16.42906
628.7593, 17.07721
629.2414, 17.66979
629.7235, 18.12003
630.2056, 18.54349
630.6877, 19.06523
631.1699, 19.62337
631.6520, 20.03405
632.1341, 20.25373
632.6162, 20.35790
633.0983, 20.45016
633.5804, 20.49626
634.0626, 20.72755
634.5447, 21.32835
635.0268, 21.87723
635.5089, 22.01568
635.9910, 22.04738
636.4731, 22.47867
636.9553, 23.49621
637.4374, 24.60331
637.9195, 25.54801
638.4016, 26.30241
638.8837, 26.69957
639.3658, 26.74150
639.8480, 26.95307
640.3301, 27.70635
640.8122, 28.80553
641.2943, 29.55021
641.7764, 29.62321
642.2585, 29.70329
642.7407, 29.66047
643.2228, 29.70908
643.7049, 30.14015
644.1870, 30.79362
644.6691, 31.23903
645.1512, 31.25398
645.6334, 31.08041
646.1155, 31.16406
646.5976, 31.48403
647.0797, 31.77332
647.5618, 31.99321
648.0439, 32.16947
648.5261, 32.27271
649.0082, 32.33616
649.4903, 32.50296
649.9724, 32.98421
650.4545, 33.24472
650.9366, 32.83096
651.4188, 32.20690
651.9009, 31.94278
652.3830, 32.09270
652.8651, 32.38622
653.3472, 32.64371
653.8293, 32.85611
654.3115, 33.00345
654.7936, 33.14005
655.2757, 33.09518
655.7578, 32.65211
656.2399, 32.15963
656.7220, 31.74071
657.2042, 31.43950
657.6863, 31.32187
658.1684, 31.49315
658.6505, 31.71936
659.1326, 31.88568
659.6147, 31.94960
660.0969, 31.55749
660.5790, 30.62670
661.0611, 29.73138
661.5432, 29.42020
662.0253, 29.61488
662.5074, 29.47368
662.9896, 28.59404
663.4717, 27.91014
663.9538, 27.52687
664.4359, 27.34780
664.9180, 27.48822
665.4001, 27.79001
665.8823, 27.74997
666.3644, 26.94592
666.8465, 25.80854
667.3286, 25.13821
667.8107, 24.92047
668.2928, 24.64476
668.7750, 24.17950
669.2571, 23.65499
669.7392, 23.18683
670.2213, 22.76843
670.7034, 22.34919
671.1855, 21.89935
671.6677, 21.49093
672.1498, 21.12773
672.6319, 20.81153
673.1140, 20.61355
673.5961, 20.49108
674.0782, 20.22832
674.5604, 19.62288
675.0425, 18.81347
675.5246, 18.27091
676.0067, 18.06110
676.4888, 17.83334
676.9709, 17.55067
677.4531, 17.19116
677.9352, 16.66742
678.4173, 16.04844
678.8994, 15.58794
679.3815, 15.47243
679.8636, 15.37093
680.3458, 15.09092
680.8279, 14.69952
681.3100, 14.29577
681.7921, 13.89844
682.2742, 13.44526
682.7563, 12.84869
683.2385, 12.20033
683.7206, 11.98916
684.2027, 12.57829
684.6848, 12.80286
685.1669, 12.28918
685.6490, 11.55827
686.1312, 10.76053
686.6133, 9.986518
687.0954, 9.450376
687.5775, 9.265865
688.0596, 9.230770
688.5417, 9.261835
689.0239, 9.307625
689.5060, 9.217189
689.9881, 8.966064
690.4702, 8.726823
690.9523, 8.658255
691.4344, 8.693929
691.9166, 8.503119
692.3987, 7.804429
692.8808, 7.304640
693.3629, 7.221245
693.8450, 7.211018
694.3271, 7.006221
694.8093, 6.671471
695.2914, 6.363953
695.7735, 6.144931
696.2556, 5.987573
696.7377, 5.885161
697.2198, 5.813118
697.7020, 5.673831
698.1841, 5.452370
698.6662, 5.168311
699.1483, 4.824154
699.6304, 4.452404
700.1125, 4.189956
700.5947, 4.166777
701.0768, 4.060259
701.5589, 3.799599
702.0410, 3.495701
702.5231, 3.280588
703.0052, 3.106913
703.4874, 2.813540
703.9695, 2.314795
704.4516, 1.873376
704.9337, 1.913983
705.4158, 2.323517
705.8979, 2.523050
706.3801, 2.457690
706.8622, 2.350298
707.3442, 2.343801
707.8264, 2.381302
708.3085, 2.300999
708.7906, 2.057912
709.2727, 1.896959
709.7548, 1.897357
710.2369, 1.941608
710.7191, 1.990294
711.2012, 2.002939
711.6833, 1.904350
712.1654, 1.669299
712.6475, 1.400874
713.1296, 1.209689
713.6118, 1.084315
714.0939, 0.9749660
714.5760, 0.8769460
715.0581, 0.8590910
715.5402, 1.032595
716.0223, 1.221561
716.5045, 1.087626
716.9866, 0.5550240
717.4687, 0.1646730
717.9508, 3.5743002E-02
718.4329, 1.0857000E-02
718.9150, 9.5462002E-02
719.3972, 0.2026490
719.8793, 0.2054090
720.3614, 0.1085820
720.8435, 4.2406000E-02
721.3256, 0.1149840
721.8077, 0.3051580
722.2899, 0.5857160
722.7720, 0.9792270
723.2541, 1.209141
723.7362, 1.169536
724.2183, 0.9573490
724.7004, 0.5668490
725.1826, 1.5437000E-02
725.6647, 0.1808030
726.1468, 0.3701030
726.6289, 0.8448970
727.1110, 0.9643380
727.5931, 0.8445040
728.0753, 0.5076440
728.5574, 4.3164000E-02
729.0395, 0.2608650
729.5216, 0.1576110
730.0037, 0.1635710
730.4858, 0.2613900
730.9680, 0.1302900
731.4501, 5.0834998E-02
731.9322, 9.6516997E-02
732.4143, 0.1571600
732.8964, 0.1342530
733.3785, 4.8241001E-02
733.8607, 5.1549999E-03
734.3428, 2.9135000E-02
734.8249, 4.5701999E-02
735.3070, 4.9651999E-02
735.7891, 8.7315001E-02
736.2712, 0.2040940
736.7534, 0.6780970
737.2355, 0.8858740
737.7176, 0.5856230
738.1997, 0.1128010
738.6818, 1.6638000E-02
739.1639, 0.1527100
739.6461, 0.1975900
740.1282, 5.4986998E-02
740.6103, 7.3558003E-02
741.0924, 7.8135997E-02
741.5745, 7.8180004E-03
742.0566, 0.1389350
742.5388, 0.3781850
743.0209, 0.4582980
743.5030, 0.2709470
743.9851, 5.8960002E-03
744.4672, 0.3173220
744.9493, 0.3675240
745.4315, 0.1941220
745.9136, 0.1897040
746.3957, 0.2325160
746.8778, 0.2171650
747.3599, 0.1612190
747.8420, 7.5992003E-02
748.3242, 4.3361001E-02
748.8063, 4.7134999E-02
749.2884, 2.1901768E-02
749.7705, 5.0690040E-02
750.2526, 2.9351000E-02
750.7347, 9.4931997E-02
751.2169, 9.0853199E-02
751.6990, 6.1702002E-02
752.1811, 0.2072100
752.6632, 0.2466960
753.1453, 0.2489620
753.6274, 0.2841190
754.1096, 0.2820078
754.5917, 0.1330300
755.0738, 0.2277630
755.5559, 0.2118210
756.0380, 7.9862997E-02
756.5201, 0.1361190
757.0023, 0.2315290
757.4844, -2.4773126E-02
757.9665, 0.2174941
758.4486, 0.3747883
758.9307, 0.4516754
759.4128, 0.2073215
759.8950, 0.3777940
760.3771, 0.3820118
760.8592, 0.3794191
761.3413, 0.6082616
761.8234, 0.4106364
762.3055, 0.6358025
762.7877, 0.6922138
763.2698, 0.2567580
763.7519, 0.1335250
764.2340, 0.1115190
764.7161, 0.1511830
765.1982, 0.1310720
765.6804, 0.3736160
766.1625, 0.6349390
766.6446, 0.4245510
767.1267, 2.3348000E-02
767.6088, 1.1178000E-02
768.0909, 6.4444996E-02
768.5731, 8.2130000E-02
769.0552, 2.8015999E-02
769.5373, 7.9451002E-02
770.0194, 4.8648998E-02
770.5015, 2.4413992E-02
770.9836, 0.1520580
771.4658, 1.0763000E-02
771.9479, 3.7950002E-02
772.4300, 0.1311000
772.9121, 0.3249920
773.3942, 0.3058830
773.8763, 0.1459670
774.3585, 6.2330000E-02
774.8406, 0.3968700
775.3227, 0.5538360
775.8048, 0.3569590
776.2869, 9.1840001E-03
776.7690, 4.7807999E-02
777.2512, -4.2807814E-02
777.7333, 0.3879070
778.2154, 8.3751000E-02
778.6975, 0.2718530
779.1796, 0.4708240
779.6617, 0.5492030
780.1439, 0.5328090
780.6260, 0.4134550
781.1081, 0.2551580
781.5902, 0.3337910
782.0723, 0.2644560
782.5544, 0.4626830
783.0366, 0.6244570
783.5187, 0.7385350
784.0008, 0.8083440
784.4829, 0.8162300
784.9650, 0.7227650
785.4471, 0.5749220
785.9293, 0.4859440
786.4114, 0.4564800
786.8935, 0.6305650
787.3756, 1.139498
787.8577, 1.619089
788.3398, 1.718176
788.8220, 1.478598
789.3040, 1.244595
789.7861, 0.9919570
790.2682, 0.7825590
790.7504, 0.5664440
791.2325, 0.4491490
791.7146, 0.5095960
792.1967, 0.7136720
792.6788, 1.025092
793.1609, 1.452883
793.6431, 1.779315
794.1252, 1.786190
794.6073, 1.574578
795.0894, 1.265481
795.5715, 0.8986480
796.0536, 0.6691390
796.5358, 0.6579590
797.0179, 0.7920070
797.5000, 0.9831190
797.9821, 1.234305
798.4642, 1.464076
798.9464, 1.729858
799.4285, 1.882532
799.9106, 1.764221
800.3927, 1.609391
800.8748, 1.630763
801.3569, 1.784320
801.8391, 1.821446
802.3212, 1.481287
802.8033, 1.268080
803.2854, 1.620296
803.7675, 2.136600
804.2496, 2.350661
804.7318, 2.264892
805.2139, 2.094590
805.6960, 1.952512
806.1781, 1.841538
806.6602, 1.765020
807.1423, 1.724818
807.6245, 1.795838
808.1066, 1.978551
808.5887, 2.155972
809.0708, 2.308179
809.5529, 2.455629
810.0350, 2.525879
810.5172, 2.498639
810.9993, 2.466287
811.4814, 2.472217
811.9635, 2.448534
812.4456, 2.299797
812.9277, 2.154131
813.4099, 2.166428
813.8920, 2.301611
814.3741, 2.349682
814.8562, 2.204990
815.3383, 2.019491
815.8204, 1.914212
816.3026, 1.884885
816.7847, 1.945591
817.2668, 2.110506
817.7489, 2.303420
818.2310, 2.507526
818.7131, 2.637097
819.1953, 2.464432
819.6774, 1.889599
820.1595, 1.646969
820.6416, 1.862626
821.1237, 2.168619
821.6058, 2.561489
822.0880, 2.866524
822.5701, 2.769637
823.0522, 2.295395
823.5343, 2.069594
824.0164, 2.379300
824.4985, 2.705820
824.9807, 2.841215
825.4628, 2.847785
825.9449, 2.812121
826.4270, 2.745807
826.9091, 2.611716
827.3912, 2.393195
827.8734, 2.204354
828.3555, 2.298842
828.8376, 2.575978
829.3197, 2.494227
829.8018, 2.003859
830.2839, 1.697899
830.7661, 1.911803
831.2482, 2.341367
831.7303, 2.465861
832.2124, 2.232027
832.6945, 2.134750
833.1766, 2.328763
833.6588, 2.405874
834.1409, 2.129377
834.6230, 1.805370
835.1051, 1.737489
835.5872, 1.857113
836.0693, 1.832095
836.5515, 1.411877
837.0336, 1.080984
837.5157, 1.206124
837.9978, 1.503769
838.4799, 1.689258
838.9620, 1.736530
839.4442, 1.668645
839.9263, 1.505695
840.4084, 1.341274
840.8905, 1.347191
841.3726, 1.487626
841.8547, 1.585040
842.3369, 1.642605
842.8190, 1.502486
843.3011, 1.044267
843.7832, 0.5492230
844.2653, 0.3362310
844.7474, 0.4024610
845.2296, 0.5711220
845.7117, 0.9457880
846.1938, 1.265993
846.6759, 1.657574
847.1580, 1.842951
847.6401, 1.473050
848.1223, 0.7952560
848.6044, 0.3689040
849.0865, 0.3707650
849.5686, 0.4944420
850.0507, 0.6128930
850.5328, 0.7232790
851.0150, 0.7802320
851.4971, 0.8289640
851.9792, 0.9938350
852.4613, 1.291727
852.9434, 1.523273
853.4255, 1.443081
853.9077, 1.168873
854.3898, 1.062284
854.8719, 1.125947
855.3540, 1.288369
855.8361, 1.583717
856.3182, 1.741802
856.8004, 1.493976
857.2825, 1.007368
857.7646, 0.8369110
858.2467, 1.247098
858.7288, 1.399991
859.2109, 1.129738
859.6931, 0.8045680
860.1752, 0.4512580
860.6573, 0.1681660
861.1394, 9.9624000E-02
861.6215, 0.2502180
862.1036, 0.4140460
862.5858, 0.5280110
863.0679, 0.6041510
863.5500, 0.6279360
864.0321, 0.6331450
864.5142, 0.6753160
864.9963, 0.7495680
865.4785, 0.8022270
865.9606, 0.7998170
866.4427, 0.7773770
866.9248, 0.8201490
867.4069, 0.8979230
867.8890, 0.8468420
868.3712, 0.6599180
868.8533, 0.3589750
869.3354, 9.6605003E-02
869.8175, 2.8130000E-02
870.2996, -6.3426234E-02
870.7817, 0.1301550
871.2639, 5.3176001E-02
871.7459, 3.6807999E-02
872.2280, 0.2793400
872.7101, 0.3343610
873.1923, 0.3787200
873.6744, 0.6144990
874.1565, 0.9481240
874.6386, 1.149423
875.1207, 1.176469
875.6028, 1.082980
876.0850, 0.7174730
876.5671, 0.4066280
877.0492, 0.4539990
877.5313, 0.7026150
878.0134, 0.9291510
878.4955, 1.062097
878.9777, 1.083415
879.4598, 0.9472780
879.9419, 0.7283000
880.4240, 0.5002630
880.9061, 0.2932750
881.3882, 0.2864740
881.8704, 0.4927790
882.3525, 0.5749680
882.8346, 0.2931710
883.3167, 0.1314130
883.7988, 0.2194880
884.2809, 7.3192000E-02
884.7631, 0.3641270
885.2452, 0.7259690
885.7273, 0.8915820
886.2094, 0.6558060
886.6915, 0.3003380
887.1736, 0.1018530
887.6558, 6.2128000E-02
888.1379, 0.1827570
888.6200, 0.6863240
889.1021, 1.042052
889.5842, 1.138211
890.0663, 1.074837
890.5485, 0.6934160
891.0306, 0.2697450
891.5127, 0.4133620
891.9948, 1.322255
892.4769, 2.092125
892.9590, 2.102359
893.4412, 1.726595
893.9233, 1.175062
894.4054, 0.5965450
894.8875, 0.3267240
895.3696, 0.3973040
895.8517, 0.4831830
896.3339, 0.3268420
896.8160, 0.4632834
897.2981, 0.1674700
897.7802, 0.5082770
898.2623, 0.6456450
898.7444, 0.5214450
899.2266, 0.4156160
899.7087, 0.4739230
900.1908, 0.5663170
900.6729, 0.4729570
901.1550, 0.1760040
901.6371, 0.1188910
902.1193, 0.5426780
902.6014, 0.7611130
903.0835, 0.4502900
903.5656, 9.0324000E-02
904.0477, 2.4665000E-02
904.5298, 0.1580100
905.0120, 0.2513670
905.4941, 0.2895130
905.9762, 0.2562800
906.4583, 0.2651440
906.9404, 0.1325010
907.4225, 0.1396950
907.9047, 0.1639070
908.3868, -0.2301434
908.8689, 7.4030422E-02
909.3510, 0.2485086
909.8331, 0.3002602
910.3152, -0.1382948
910.7974, 5.6281272E-02
911.2795, -2.8746638E-03
911.7616, -7.2433822E-02
912.2437, 0.2112503
912.7258, -0.1559898
913.2079, 0.1220915
913.6901, 0.1425748
914.1722, 0.2809527
914.6543, 0.1640356
915.1364, 0.1259713
915.6185, 0.3432848
916.1006, 0.4191926
916.5828, 0.2728888
917.0649, 0.4187610
917.5470, 4.2602878E-02
918.0291, 0.1245345
918.5112, 0.4041111
918.9933, 0.2706407
919.4755, 0.4211836
919.9576, 0.4635565
920.4397, 1.4357679E-02
920.9218, 0.4200535
921.4039, 0.4560342
921.8860, 0.1124006
922.3682, 0.4888061
922.8503, 0.1975056
923.3324, 0.1445352
923.8145, 0.3077220
924.2966, 0.3151540
924.7787, 0.2763860
925.2609, 0.1281570
925.7430, 4.9281999E-02
926.2251, 8.2889996E-02
926.7072, 8.0215998E-02
927.1893, 0.2586790
927.6714, 0.3971740
928.1536, 0.4395780
928.6357, 0.2065010
929.1178, 0.1031600
929.5999, 7.3849998E-02
930.0820, 0.2700650
930.5641, 0.1893236
931.0463, 0.4652660
931.5284, 0.2414010
932.0105, 0.1748150
932.4926, 0.2155610
932.9747, 0.1125060
933.4568, 7.2903998E-02
933.9390, 3.8424999E-02
934.4211, 8.4264003E-02
934.9032, 0.1905480
935.3853, 0.4390000
935.8674, 0.6420300
936.3495, 0.6492040
936.8317, 0.3804590
937.3138, 0.2865880
937.7959, 0.5209270
938.2780, 0.6958210
938.7601, 0.5323880
939.2422, 0.2329860
939.7244, 0.1608280
940.2065, 0.3513670
940.6886, 0.5541110
941.1707, 0.9141210
941.6528, 1.069251
942.1349, 0.8404790
942.6171, 0.5188290
943.0992, 0.2071650
943.5813, 2.1671999E-02
944.0634, 6.7847997E-02
944.5455, 0.6699940
945.0276, 1.016834
945.5098, 0.5470930
945.9919, 4.7199000E-02
946.4740, 0.1169610
946.9561, 0.4334030
947.4382, 0.4782530
947.9203, 0.2484740
948.4025, 0.2022190
948.8846, 0.6821890
949.3667, 1.178817
949.8488, 1.136643
950.3309, 0.8310380
950.8130, 0.6809050
951.2952, 0.6730980
951.7773, 0.6299790
952.2594, 0.4911650
952.7415, 0.3471430
953.2236, 0.2792990
953.7057, 0.2734350
954.1878, 0.3117410
954.6699, 0.3852990
955.1520, 0.4431350
955.6342, 0.4782720
956.1163, 0.4234410
956.5984, 0.2254320
957.0805, 5.0503999E-02
957.5626, 0.1974050
958.0447, 0.6593000
958.5269, 0.9209420
959.0090, 0.9455060
959.4911, 0.9285500
959.9732, 0.9171810
960.4553, 0.8691380
960.9374, 0.7255870
961.4196, 0.5248680
961.9017, 0.3717160
962.3838, 0.2896700
962.8659, 0.1848700
963.3480, 1.1164000E-02
963.8301, 8.1696004E-02
964.3123, 0.2060870
964.7944, 0.6624580
965.2765, 0.8321810
965.7586, 0.7467230
966.2407, 0.6019250
966.7228, 0.3690640
967.2050, 0.1524730
967.6871, 2.7775999E-02
968.1692, 0.1220180
968.6513, 3.8564999E-02
969.1334, 0.1961140
969.6155, 0.5189210
970.0977, 0.7923630
970.5798, 0.8477520
971.0619, 0.4137830
971.5440, 6.8304002E-02
972.0261, 0.3642040
972.5082, 0.7816310
972.9904, 0.6424260
973.4725, 0.1815290
973.9546, 0.1037690
974.4367, 0.5781040
974.9188, 0.9834620
975.4009, 0.7318090
975.8831, 0.2319010
976.3652, 3.3381999E-02
976.8473, 1.5664000E-02
977.3294, 5.2997001E-02
977.8115, 5.1128000E-02
978.2936, 0.1889550
978.7758, 0.2992300
979.2579, 0.4257470
979.7400, 0.6562780
980.2221, 0.9373400
980.7042, 1.102633
981.1863, 1.150229
981.6685, 1.014779
982.1506, 0.6843580
982.6327, 0.3687600
983.1148, 0.2029210
983.5969, 0.1436850
984.0790, 0.1461720
984.5612, 0.2209030
985.0433, 0.1593870
985.5254, 6.8723001E-02
986.0075, 0.1333470
986.4896, 0.3056690
986.9717, 0.2683130
987.4539, 2.6846001E-02
987.9360, 0.7237330
988.4181, 1.119498
988.9002, 1.188072
989.3823, 1.006494
989.8644, 0.3574210
990.3466, 3.9046999E-02
990.8287, 1.1036000E-02
991.3108, 3.1194000E-02
991.7929, 0.1163010
992.2750, 0.2679590
992.7571, 0.4258320
993.2393, 0.6881510
993.7214, 0.7813600
994.2035, 0.5578860
994.6856, 0.3345780
995.1677, 0.2281680
995.6498, 0.1897770
996.1320, 0.1768300
996.6141, 0.1803250
997.0962, 0.1741400
997.5783, 0.1295990
998.0604, 0.1195310
998.5425, 0.1260984
999.0247, 7.7875353E-02
999.5068, 0.1517740
999.9889, 6.3262999E-02
1000.471, 6.6807002E-02
1000.953, 0.1831280
1001.435, 0.4680370
1001.917, 0.7712060
1002.399, 0.9146690
1002.882, 0.6185600
1003.364, 0.2724120
1003.846, 0.2475000
1004.328, 0.4595610
1004.810, 0.7528020
1005.292, 1.052166
1005.774, 1.133641
1006.256, 0.6565070
1006.739, 0.1826350
1007.221, 0.3791770
1007.703, 0.8172660
1008.185, 0.8447360
1008.667, 0.5511830
1009.149, 0.3983890
1009.631, 0.5406290
1010.113, 0.7327600
1010.595, 0.7953860
1011.078, 0.7370440
1011.560, 0.4920020
1012.042, 0.1600630
1012.524, 3.4754001E-02
1013.006, 7.4669003E-02
1013.488, 2.3877000E-02
1013.970, 8.8037997E-02
1014.452, 0.2432430
1014.935, 0.4648570
1015.417, 0.6846320
1015.899, 0.7169540
1016.381, 0.5868690
1016.863, 0.3672460
1017.345, 9.0159997E-02
1017.827, 4.2491000E-02
1018.309, 7.9438999E-02
1018.791, 2.2293624E-02
1019.274, 0.3120880
1019.756, 0.2203600
1020.238, 0.3401010
1020.720, 0.6574590
1021.202, 0.7689630
1021.684, 0.5975090
1022.166, 0.4442220
1022.648, 0.4780470
1023.130, 0.5877960
1023.613, 0.5829230
1024.095, 0.4766120
1024.577, 0.5331740
1025.059, 0.7877840
1025.541, 0.8766260
1026.023, 0.6911580
1026.505, 0.5412250
1026.987, 0.6487690
1027.469, 0.8210030
1027.952, 0.6598610
1028.434, 0.1346300
1028.916, 5.9990998E-02
1029.398, 0.6172770
1029.880, 0.9847240
1030.362, 0.9888930
1030.844, 0.8111720
1031.326, 0.5095190
1031.809, 0.1649530
1032.291, 6.5563999E-02
1032.773, 1.5471000E-02
1033.255, 4.2980000E-02
1033.737, 2.2035999E-02
1034.219, 2.7789000E-02
1034.701, 0.3653780
1035.183, 0.6810760
1035.666, 0.8332590
1036.148, 0.8836290
1036.630, 0.9959630
1037.112, 1.227068
1037.594, 1.197400
1038.076, 0.6376500
1038.558, 0.2444830
1039.040, 0.1946100
1039.522, 0.2822470
1040.005, 0.4186380
1040.487, 0.5861470
1040.969, 0.7876060
1041.451, 1.079518
1041.933, 1.110875
1042.415, 0.5865970
1042.897, 0.2084960
1043.379, 0.1677970
1043.861, 0.2440350
1044.344, 0.3259570
1044.826, 0.4083680
1045.308, 0.4992250
1045.790, 0.6047030
1046.272, 0.5824630
1046.754, 0.2182760
1047.236, 1.4000000E-03
1047.718, 0.2359750
1048.201, 0.4687960
1048.683, 0.2870890
1049.165, 6.7142002E-02
1049.647, 7.8419998E-02
1050.129, 0.3477290
1050.611, 0.6249600
1051.093, 0.4966940
1051.575, 0.4066010
1052.057, 0.5326010
1052.540, 0.6914200
1053.022, 0.7467610
1053.504, 0.7354950
1053.986, 0.7832900
1054.468, 0.9270390
1054.950, 0.8561710
1055.432, 3.4749001E-02
1055.914, 0.2736080
1056.396, 0.1945570
1056.879, 0.9711630
1057.361, 1.257885
1057.843, 1.171035
1058.325, 0.9649580
1058.807, 0.6936230
1059.289, 0.4841560
1059.771, 0.3017830
1060.253, 0.2985420
1060.736, 0.8180610
1061.218, 1.244252
1061.700, 0.9036470
1062.182, 0.2359770
1062.664, 4.3756001E-02
1063.146, 0.4159070
1063.628, 0.6802370
1064.110, 0.4915240
1064.593, 0.2975660
1065.075, 0.3087850
1065.557, 0.3634760
1066.039, 0.3535100
1066.521, 0.2938600
1067.003, 0.1625180
1067.485, 6.7170002E-03
1067.967, 2.0377001E-02
1068.449, 0.4922050
1068.932, 0.8948410
1069.414, 1.033471
1069.896, 0.9793240
1070.378, 0.6381590
1070.860, 0.2282640
1071.342, 2.7980000E-02
1071.824, 6.4788997E-02
1072.306, 0.1795950
1072.788, 0.3717260
1073.271, 0.5037940
1073.753, 0.4618280
1074.235, 0.3880310
1074.717, 0.4125560
1075.199, 0.4488810
1075.681, 0.3264930
1076.163, 0.1085650
1076.645, 0.1202810
1077.127, 0.5892140
1077.610, 0.9181170
1078.092, 0.6842140
1078.574, 0.3786040
1079.056, 0.3014790
1079.538, 0.3640250
1080.020, 0.4722660
1080.502, 0.5970580
1080.984, 0.7301420
1081.467, 0.9001790
1081.949, 0.9181520
1082.431, 0.4818520
1082.913, 0.1185590
1083.395, 0.2631070
1083.877, 0.5629100
1084.359, 0.6555710
1084.841, 0.5558440
1085.323, 0.4013910
1085.806, 0.2167810
1086.288, 9.4483003E-02
1086.770, 5.8428001E-02
1087.252, 0.1163570
1087.734, 0.3845030
1088.216, 0.6471970
1088.698, 0.7090770
1089.180, 0.6071490
1089.662, 0.3991130
1090.145, 9.4612002E-02
1090.627, 7.0671998E-02
1091.109, 1.5960000E-03
1091.591, 0.1405530
1092.073, 0.3222160
1092.555, 0.4635390
1093.037, 0.5082180
1093.519, 0.4496670
1094.002, 0.2967780
1094.484, 8.4973998E-02
1094.966, 3.4049999E-02
1095.448, 0.4167960
1095.930, 0.6690600
1096.412, 0.4996580
1096.894, 0.2567090
1097.376, 0.1124310
1097.859, 5.9997998E-02
1098.341, 0.1086400
1098.823, 0.2312860
1099.305, 0.2906840
1099.787, 0.2354650
1100.269, 0.1567680
1100.751, 2.7543001E-02
1101.233, 6.1870001E-02
1101.715, 3.9291002E-02
1102.198, 6.7856997E-02
1102.680, 0.2839850
1103.162, 0.8076220
1103.644, 0.9931810
1104.126, 0.6319140
1104.608, 0.3796220
1105.090, 0.3956610
1105.572, 0.4480350
1106.054, 0.5323210
1106.537, 0.5710960
1107.019, 0.4705280
1107.501, 0.2813690
1107.983, 0.1018570
1108.465, 7.2571002E-02
1108.947, 3.9225001E-02
1109.429, 0.1268540
1109.911, 0.3906100
1110.394, 0.7995250
1110.876, 0.9949710
1111.358, 0.4794760
1111.840, 8.4812000E-02
1112.322, 0.1457670
1112.804, 0.3498120
1113.286, 0.7299070
1113.768, 0.6655270
1114.250, 0.5615970
1114.733, 0.3252460
1115.215, 0.1636940
1115.697, 0.2415830
1116.179, 0.3668770
1116.661, 0.2978680
1117.143, 6.8277001E-02
1117.625, 7.5287998E-02
1118.107, 4.2842001E-02
1118.589, 8.0080003E-02
1119.072, 0.1184830
1119.554, 0.2464220
1120.036, 0.1344090
1120.518, 4.1683000E-02
1121.000, 0.2488480
1121.482, 0.1258420
1121.964, 0.6345150
1122.446, 0.2404840
1122.929, 0.1431640
1123.411, 0.4789660
1123.893, 0.6174830
1124.375, 0.3423290
1124.857, 0.1027370
1125.339, 0.2003600
1125.821, 0.4720500
1126.303, 0.6591720
1126.786, 0.7545610
1127.268, 0.5649230
1127.750, 1.8518001E-02
1128.232, 7.6989003E-02
1128.714, 0.4631070
1129.196, 0.8180630
1129.678, 0.5910390
1130.160, 0.1831810
1130.642, 4.7352999E-02
1131.125, 0.1036740
1131.607, 4.0778998E-02
1132.089, 6.0768001E-02
1132.571, 2.9262999E-02
1133.053, 0.3360250
1133.535, 0.5858990
1134.017, 0.6017940
1134.499, 0.5343120
1134.981, 0.4950880
1135.464, 0.4687550
1135.946, 0.4203710
1136.428, 0.4151803
1136.910, 0.3599600
1137.392, 0.3975880
1137.874, 0.4149930
1138.356, 0.3978450
1138.838, 0.3208040
1139.321, 0.1698900
1139.803, 6.3235998E-02
1140.285, 0.1741590
1140.767, 0.3717640
1141.249, 0.4902390
1141.731, 0.5367930
1142.213, 0.4966180
1142.695, 0.3992010
1143.177, 0.3042280
1143.660, 0.2453770
1144.142, 0.3342980
1144.624, 0.7641430
1145.106, 1.102168
1145.588, 0.7122080
1146.070, 0.1174160
1146.552, 3.4086999E-02
1147.034, 0.1234710
1147.516, 0.3272650
1147.999, 0.4968610
1148.481, 0.5954510
1148.963, 0.6364240
1149.445, 0.5262880
1149.927, 5.5585999E-02
1150.409, 0.3143900
1150.891, 7.4464001E-02
1151.373, 0.2051110
1151.856, 0.4618320
1152.338, 0.5179440
1152.820, 0.5294610
1153.302, 0.5316720
1153.784, 0.5796430
1154.266, 0.8386230
1154.748, 0.9378030
1155.230, 0.5163060
1155.713, 0.1605850
1156.195, 0.4088440
1156.677, 0.8253830
1157.159, 0.7453040
1157.641, 0.2341550
1158.123, 1.9404000E-02
1158.605, 0.3400630
1159.087, 0.5835520
1159.569, 0.7355100
1160.052, 0.7874410
1160.534, 0.7402250
1161.016, 0.5900570
1161.498, 0.2345940
1161.980, 6.5245003E-02
1162.462, 2.1550000E-02
1162.944, 0.1519230
1163.426, 0.3276430
1163.908, 0.2121250
1164.391, 0.2272420
1164.873, 0.5038490
1165.355, 0.6606370
1165.837, 0.4670200
1166.319, 0.2171940
1166.801, 0.2943320
1167.283, 0.6086060
1167.765, 0.7460050
1168.247, 0.7054020
1168.730, 0.7338070
1169.212, 0.8303540
1169.694, 0.7489680
1170.176, 0.4558130
1170.658, 0.2936400
1171.140, 0.4839760
1171.622, 0.3584948
1172.104, 0.7633000
1172.587, 0.5466390
1173.069, 0.6239960
1173.551, 0.8948480
1174.033, 0.9504430
1174.515, 0.7798750
1174.997, 0.6302300
1175.479, 0.5874960
1175.961, 0.5473580
1176.443, 0.3926470
1176.926, 0.2636320
1177.408, 0.3909250
1177.890, 0.5886300
1178.372, 0.5643160
1178.854, 0.4080290
1179.336, 0.3233430
1179.818, 0.3296150
1180.300, 0.3347190
1180.782, 0.2997170
1181.265, 0.3254620
1181.747, 0.6057650
1182.229, 0.8046120
1182.711, 0.5464160
1183.193, 0.2418100
1183.675, 0.3535890
1184.157, 0.6881320
1184.639, 0.8238690
1185.122, 0.7103290
1185.604, 0.6297060
1186.086, 0.6492730
1186.568, 0.7018900
1187.050, 0.8430760
1187.532, 0.9116100
1188.014, 0.7433110
1188.496, 0.5558660
1188.979, 0.5973630
1189.461, 0.7648510
1189.943, 0.7284510
1190.425, 0.4276700
1190.907, 0.3859590
1191.389, 0.7355580
1191.871, 0.9498930
1192.353, 0.9041760
1192.835, 0.8430340
1193.318, 0.9022140
1193.800, 0.9543790
1194.282, 0.8163970
1194.764, 0.5763410
1195.246, 0.6626310
1195.728, 1.046906
1196.210, 0.9908370
1196.692, 0.4894520
1197.174, 5.7089999E-02
1197.657, 7.6513998E-02
1198.139, 0.1524760
1198.621, 1.226602
1199.103, 2.274893
1199.585, 2.131718
1200.067, 1.316312
1200.549, 0.6767130
1201.031, 0.2633050
1201.514, 0.2994210
1201.996, 0.6465730
1202.478, 0.8898260
1202.960, 0.9133960
1203.442, 0.8219730
1203.924, 0.6245100
1204.406, 0.4850610
1204.888, 0.6565940
1205.370, 0.8134750
1205.853, 0.6007550
1206.335, 0.2797140
1206.817, 0.1594860
1207.299, 0.2196840
1207.781, 0.3366200
1208.263, 0.4781140
1208.745, 0.5278580
1209.227, 0.3226570
1209.709, 0.1912780
1210.192, 0.2486940
1210.674, 0.3417210
1211.156, 0.4151770
1211.638, 0.4695520
1212.120, 0.5158560
1212.602, 0.5413080
1213.084, 0.4835270
1213.566, 0.2996750
1214.049, 0.2698090
1214.531, 0.4691580
1215.013, 0.4873650
1215.495, 0.1955400
1215.977, 1.0042000E-02
1216.459, 0.1005740
1216.941, 0.3356270
1217.423, 0.4821450
1217.906, 0.5308410
1218.388, 0.3989430
1218.870, 0.1393920
1219.352, 4.3200001E-02
1219.834, 7.8388996E-02
1220.316, 3.4072999E-02
1220.798, 0.1059200
1221.280, 8.8390000E-03
1221.762, 4.6859998E-02
1222.245, 6.5582000E-02
1222.727, 3.9159000E-02
1223.209, 0.1610120
1223.691, 0.4041000
1224.173, 0.5999410
1224.655, 0.4708940
1225.137, 0.1450190
1225.619, 2.1911999E-02
1226.101, 0.2253780
1226.584, 0.2169690
1227.066, 3.8538001E-02
1227.548, 0.3955230
1228.030, 0.4452880
1228.512, 0.3856050
1228.994, 0.1436420
1229.476, 2.2694999E-02
1229.958, 0.1907310
1230.441, 0.5631440
1230.923, 0.6882740
1231.405, 0.5746680
1231.887, 0.4944240
1232.369, 0.4677540
1232.851, 0.3973860
1233.333, 0.2360160
1233.815, 0.1899860
1234.297, 0.3345420
1234.780, 0.5889280
1235.262, 0.9415260
1235.744, 1.168437
1236.226, 0.7544150
1236.708, 4.7578000E-02
1237.190, 4.8262000E-02
1237.672, 0.5335470
1238.154, 0.6714230
1238.636, 0.3723950
1239.119, 0.2490210
1239.601, 0.4571080
1240.083, 0.6796070
1240.565, 0.7265850
1241.047, 0.6508150
1241.529, 0.4646530
1242.011, 0.2917650
1242.493, 0.2969980
1242.975, 0.3680820
1243.458, 0.3150980
1243.940, 0.2309760
1244.422, 0.4008550
1244.904, 0.8387000
1245.386, 1.086466
1245.868, 0.9364110
1246.350, 0.7540410
1246.832, 0.5029830
1247.315, 0.3579910
1247.797, 0.4817150
1248.279, 0.6019700
1248.761, 0.4804730
1249.243, 0.2827620
1249.725, 0.3389430
1250.207, 0.6196360
1250.689, 0.6607310
1251.172, 0.4355350
1251.654, 0.2266480
1252.136, 5.0990000E-02
1252.618, 2.3743000E-02
1253.100, 2.4506999E-02
1253.582, 8.3333001E-02
1254.064, 3.5108000E-02
1254.546, 3.8667999E-02
1255.028, 0.4738820
1255.510, 0.9239490
1255.993, 0.7122890
1256.475, 0.1679770
1256.957, 4.5318998E-02
1257.439, 0.2826680
1257.921, 0.5585580
1258.403, 0.7656600
1258.885, 0.8237980
1259.367, 0.6639120
1259.850, 0.4874380
1260.332, 0.3196750
1260.814, 0.2228350
1261.296, 0.3696750
1261.778, 0.5309100
1262.260, 0.4678440
1262.742, 0.3642960
1263.224, 0.6028870
1263.707, 1.111477
1264.189, 1.251177
1264.671, 0.9065160
1265.153, 0.5639260
1265.635, 0.1832580
1266.117, 2.7146000E-02
1266.599, 0.1831630
1267.081, 0.3606920
1267.563, 0.3939670
1268.046, 0.4319280
1268.528, 0.6852390
1269.010, 1.003269
1269.492, 0.8722880
1269.974, 0.5272650
1270.456, 0.6197640
1270.938, 0.9624350
1271.420, 0.9356610
1271.902, 0.5304730
1272.385, 0.1532060
1272.867, 3.9669000E-02
1273.349, 5.0070002E-03
1273.831, 0.5188580
1274.313, 0.9477440
1274.795, 0.9479020
1275.277, 0.7995600
1275.759, 0.6213520
1276.242, 0.4728970
1276.724, 0.4037280
1277.206, 0.4168990
1277.688, 0.5270390
1278.170, 0.7556010
1278.652, 0.8475780
1279.134, 0.8868950
1279.616, 0.7254060
1280.099, 0.2628170
1280.581, 2.9380000E-03
1281.063, 0.1276410
1281.545, 0.2944480
1282.027, 0.1976550
1282.509, 6.5700000E-04
1282.991, 0.2528340
1283.473, 0.3516950
1283.955, 0.0000000E+00
##END=



