##NAMES=Pseudomalachite
##RRUFFID=R050264
##IDEAL CHEMISTRY=Cu^2+^_5_(P^5+^O_4_)_2_(OH)_4_
##LOCALITY=Cerro Morita, 27 km southwest of Agua Prieta, Sonora, Mexico
##OWNER=RRUFF
##SOURCE=Marcus Origlieri
##DESCRIPTION=Blue powdery crust
##STATUS=The identification of this mineral has been confirmed by X-ray diffraction and chemical analysis
##URL=rruff.info/R050264
##MEASURED CHEMISTRY=(Cu_4.91_Al_0.04_[box]_0.03_Ca_0.02_)_Σ=5_((P_1.98_S_0.02_)_Σ=1_O_4_)_2_(OH)_4_ ; = light phase
193.4988, 0.0000000E+00
193.9810, 5.777161
194.4631, 8.126038
194.9452, 10.05414
195.4273, 9.871460
195.9094, 7.563293
196.3915, 5.618103
196.8737, 4.027710
197.3558, 2.812134
197.8379, 1.703369
198.3200, 0.6793210
198.8021, 8.4656000E-02
199.2842, 0.3883060
199.7664, 0.2115480
200.2485, 0.1795650
200.7306, 0.8660280
201.2127, 1.762207
201.6948, 2.148254
202.1769, 1.794128
202.6591, 1.707642
203.1412, 3.042358
203.6233, 6.025757
204.1054, 8.829529
204.5875, 10.88391
205.0696, 12.31146
205.5518, 14.21814
206.0339, 16.60553
206.5160, 19.40778
206.9981, 22.68536
207.4802, 26.52051
207.9623, 30.23749
208.4445, 33.77783
208.9266, 37.13165
209.4087, 39.78070
209.8908, 41.71588
210.3729, 43.01147
210.8550, 43.50659
211.3372, 42.79443
211.8193, 42.73352
212.3014, 44.22791
212.7835, 47.27155
213.2656, 48.42560
213.7477, 47.69861
214.2299, 45.69568
214.7120, 43.40424
215.1941, 41.12225
215.6762, 39.23193
216.1583, 38.00586
216.6404, 37.51526
217.1226, 36.28589
217.6047, 34.22162
218.0868, 31.53113
218.5689, 28.26245
219.0510, 23.90240
219.5331, 20.13391
220.0153, 17.22681
220.4974, 15.15320
220.9795, 14.49390
221.4616, 16.26392
221.9437, 18.41809
222.4258, 18.25629
222.9080, 14.74524
223.3901, 11.15436
223.8722, 8.269592
224.3543, 6.051331
224.8364, 4.588989
225.3185, 4.167480
225.8007, 4.210876
226.2828, 3.983093
226.7649, 3.282776
227.2470, 2.623474
227.7291, 2.035583
228.2112, 1.427856
228.6934, 1.523132
229.1755, 2.909363
229.6576, 4.476074
230.1397, 4.605957
230.6218, 2.268616
231.1039, 0.4345700
231.5861, 0.1669920
232.0682, 1.878113
232.5503, 2.323792
233.0324, 0.8016970
233.5145, 1.341553
233.9966, 2.420898
234.4788, 2.041321
234.9609, 1.195251
235.4430, 5.3162001E-02
235.9251, 1.761902
236.4072, 2.969543
236.8893, 3.459656
237.3715, 3.671326
237.8536, 4.077332
238.3357, 4.605042
238.8178, 5.462158
239.2999, 6.727539
239.7820, 8.446289
240.2642, 10.21039
240.7463, 12.23297
241.2284, 14.07996
241.7105, 15.18250
242.1926, 15.19647
242.6747, 15.02570
243.1569, 14.70148
243.6390, 14.10742
244.1211, 14.41486
244.6032, 16.31677
245.0853, 18.50317
245.5674, 19.32898
246.0496, 17.82721
246.5317, 16.80902
247.0138, 17.23120
247.4959, 19.34271
247.9780, 20.06067
248.4601, 18.53796
248.9423, 16.51587
249.4244, 16.05194
249.9065, 18.20367
250.3886, 19.85156
250.8707, 20.04095
251.3528, 18.65039
251.8350, 18.35516
252.3171, 19.48114
252.7992, 21.32629
253.2813, 23.29071
253.7634, 25.61475
254.2455, 27.45978
254.7277, 28.67773
255.2098, 29.26050
255.6919, 29.09338
256.1740, 27.87097
256.6561, 26.23938
257.1382, 24.65668
257.6204, 22.71796
258.1025, 21.89917
258.5846, 23.04089
259.0667, 25.98370
259.5488, 26.89832
260.0309, 24.86322
260.5131, 22.13635
260.9952, 20.86975
261.4773, 21.80658
261.9594, 22.18030
262.4415, 21.36438
262.9236, 19.48456
263.4058, 17.74231
263.8879, 16.17517
264.3700, 14.84003
264.8521, 13.73444
265.3342, 12.89343
265.8163, 12.03442
266.2985, 10.96558
266.7806, 9.782776
267.2627, 9.280762
267.7448, 9.816223
268.2269, 10.31488
268.7090, 9.861816
269.1912, 8.161194
269.6733, 6.731628
270.1554, 5.747375
270.6375, 5.232117
271.1196, 5.252747
271.6017, 5.907104
272.0839, 6.436401
272.5660, 6.245483
273.0481, 5.233521
273.5302, 4.237000
274.0123, 3.291382
274.4944, 2.449463
274.9766, 1.910278
275.4587, 1.791565
275.9408, 1.875793
276.4229, 1.784607
276.9050, 1.397522
277.3871, 1.274963
277.8693, 1.423584
278.3514, 1.821228
278.8335, 2.355713
279.3156, 3.068115
279.7977, 3.863159
280.2798, 4.912720
280.7620, 6.210205
281.2441, 6.613281
281.7262, 5.860107
282.2083, 4.547729
282.6904, 3.585571
283.1725, 2.953003
283.6547, 2.828369
284.1368, 3.508545
284.6189, 4.902100
285.1010, 6.109253
285.5831, 7.128052
286.0652, 7.895386
286.5474, 8.106201
287.0295, 7.778809
287.5116, 7.731445
287.9937, 8.565430
288.4758, 10.08643
288.9579, 10.97937
289.4401, 11.16724
289.9222, 11.23450
290.4043, 11.95837
290.8864, 13.26660
291.3685, 14.50537
291.8506, 15.69775
292.3328, 16.70129
292.8149, 16.56213
293.2970, 15.19910
293.7791, 13.67932
294.2612, 13.05176
294.7433, 13.21875
295.2255, 13.87903
295.7076, 15.30396
296.1897, 16.94519
296.6718, 17.57886
297.1539, 17.22302
297.6360, 16.64453
298.1182, 16.36169
298.6003, 16.34802
299.0824, 16.56616
299.5645, 17.09058
300.0466, 17.74854
300.5287, 18.50012
301.0109, 19.27795
301.4930, 19.61646
301.9751, 18.91443
302.4572, 17.59375
302.9393, 16.34668
303.4214, 15.28528
303.9036, 14.40930
304.3857, 13.86475
304.8678, 13.55872
305.3499, 13.13220
305.8320, 12.05518
306.3141, 10.86365
306.7963, 10.30164
307.2784, 10.66821
307.7605, 11.13623
308.2426, 10.93896
308.7247, 10.29309
309.2068, 9.728760
309.6890, 9.759033
310.1711, 9.816895
310.6532, 9.252441
311.1353, 7.826294
311.6174, 6.580933
312.0995, 6.435059
312.5817, 6.865601
313.0638, 7.036743
313.5459, 6.435425
314.0280, 5.602783
314.5101, 4.835449
314.9922, 4.166748
315.4744, 3.578613
315.9565, 3.144897
316.4386, 2.796509
316.9207, 2.458618
317.4028, 2.238892
317.8849, 1.943481
318.3671, 1.341431
318.8492, 0.4721680
319.3313, 7.0799999E-03
319.8134, 0.7073970
320.2955, 1.598389
320.7776, 1.844849
321.2598, 0.4882810
321.7419, 0.7222900
322.2240, 1.499634
322.7061, 1.853271
323.1882, 1.799316
323.6703, 1.155640
324.1525, 0.2509770
324.6346, 0.7471920
325.1167, 2.230225
325.5988, 3.256592
326.0809, 3.785400
326.5630, 3.813843
327.0452, 3.322632
327.5273, 1.212891
328.0094, 0.4484860
328.4915, 0.8515630
328.9736, 0.7004390
329.4557, 1.975342
329.9379, 2.766968
330.4200, 3.350708
330.9021, 4.246094
331.3842, 6.662231
331.8663, 7.744751
332.3484, 6.173950
332.8306, 1.296997
333.3127, 1.910767
333.7948, 3.088867
334.2769, 2.939941
334.7590, 2.073730
335.2411, 2.8930999E-02
335.7233, 1.751465
336.2054, 2.722900
336.6875, 3.045410
337.1696, 3.381104
337.6517, 3.645874
338.1339, 3.710938
338.6160, 3.679199
339.0981, 3.571167
339.5802, 3.782349
340.0623, 4.557373
340.5444, 5.693848
341.0266, 6.278687
341.5087, 6.090210
341.9908, 5.849854
342.4729, 6.191772
342.9550, 7.197388
343.4371, 8.790283
343.9193, 11.15515
344.4014, 13.44849
344.8835, 13.84033
345.3656, 12.36047
345.8477, 11.21741
346.3298, 11.68640
346.8120, 13.43298
347.2941, 15.19641
347.7762, 17.11133
348.2583, 18.60852
348.7404, 18.49353
349.2225, 17.21033
349.7047, 16.64014
350.1868, 18.16736
350.6689, 20.55591
351.1510, 21.42761
351.6331, 20.79382
352.1152, 20.09167
352.5974, 20.50330
353.0795, 21.68140
353.5616, 22.99036
354.0437, 24.23999
354.5258, 25.55615
355.0079, 27.29907
355.4901, 29.32397
355.9722, 31.01831
356.4543, 31.67651
356.9364, 31.97937
357.4185, 32.56702
357.9006, 33.46545
358.3828, 34.92163
358.8649, 37.72461
359.3470, 41.19824
359.8291, 44.00269
360.3112, 44.56799
360.7933, 45.02014
361.2755, 46.85999
361.7576, 50.44885
362.2397, 53.69141
362.7218, 55.50891
363.2039, 56.64624
363.6860, 57.93628
364.1682, 60.05029
364.6503, 61.91626
365.1324, 62.96692
365.6145, 63.25464
366.0966, 63.81519
366.5787, 66.07861
367.0609, 67.88794
367.5430, 67.86316
368.0251, 64.10254
368.5072, 60.60876
368.9893, 57.55884
369.4714, 54.97083
369.9536, 53.03491
370.4357, 52.44397
370.9178, 51.77893
371.3999, 50.52502
371.8820, 48.65796
372.3641, 46.22302
372.8463, 43.04468
373.3284, 39.42456
373.8105, 35.62610
374.2926, 31.12305
374.7747, 27.61670
375.2568, 25.72717
375.7390, 25.46265
376.2211, 25.42920
376.7032, 25.92749
377.1853, 25.96411
377.6674, 24.24133
378.1495, 20.44763
378.6317, 17.57227
379.1138, 16.37207
379.5959, 16.23682
380.0780, 15.33240
380.5601, 13.63525
381.0422, 11.85327
381.5244, 10.36121
382.0065, 9.209473
382.4886, 8.603882
382.9707, 8.612305
383.4528, 9.021362
383.9349, 10.04639
384.4171, 11.44934
384.8992, 11.94543
385.3813, 10.06531
385.8634, 7.070435
386.3455, 5.268921
386.8276, 4.866577
387.3098, 4.938721
387.7919, 4.903564
388.2740, 4.747681
388.7561, 4.459473
389.2382, 3.867798
389.7203, 3.274048
390.2025, 2.860474
390.6846, 2.587891
391.1667, 2.369629
391.6488, 2.711182
392.1309, 3.068848
392.6130, 2.976318
393.0952, 2.385986
393.5773, 1.385132
394.0594, 0.9460450
394.5415, 3.616333
395.0236, 4.758301
395.5057, 1.571289
395.9879, 1.317749
396.4700, 1.802856
396.9521, 0.6584470
397.4342, 2.883057
397.9163, 4.966187
398.3984, 6.309204
398.8806, 6.373047
399.3627, 2.816650
399.8448, 0.6341550
400.3269, 1.102295
400.8090, 3.775757
401.2911, 5.255737
401.7733, 4.970825
402.2554, 4.192993
402.7375, 3.586548
403.2196, 3.367432
403.7017, 2.759521
404.1838, 1.690674
404.6660, 0.2762450
405.1481, 1.468140
405.6302, 3.895508
406.1123, 5.379883
406.5944, 4.996216
407.0765, 2.859863
407.5587, 1.278320
408.0408, 0.1120610
408.5229, 4.6142999E-02
409.0050, 2.129517
409.4871, 6.401367
409.9692, 9.535522
410.4514, 10.51941
410.9335, 10.31287
411.4156, 10.76038
411.8977, 11.81787
412.3798, 13.14966
412.8619, 15.05078
413.3441, 16.95691
413.8262, 17.50732
414.3083, 16.30408
414.7904, 15.03784
415.2725, 15.77478
415.7546, 17.66821
416.2368, 18.97986
416.7189, 18.28467
417.2010, 17.14893
417.6831, 16.91345
418.1652, 17.54333
418.6473, 18.03943
419.1295, 17.57678
419.6116, 16.86755
420.0937, 16.51978
420.5758, 16.60034
421.0579, 17.17114
421.5400, 18.88342
422.0222, 21.13000
422.5043, 22.47107
422.9864, 21.37170
423.4685, 20.36548
423.9506, 20.50586
424.4327, 22.22644
424.9149, 23.87561
425.3970, 25.24048
425.8791, 26.58960
426.3612, 28.19116
426.8433, 29.95117
427.3254, 32.10278
427.8076, 34.84680
428.2897, 38.06836
428.7718, 40.77747
429.2539, 42.71326
429.7360, 44.54053
430.2181, 46.63428
430.7003, 49.03259
431.1824, 51.36755
431.6645, 53.62109
432.1466, 55.79932
432.6287, 57.74817
433.1108, 59.44971
433.5930, 61.49316
434.0751, 64.37634
434.5572, 67.76367
435.0393, 70.46106
435.5214, 72.46240
436.0035, 74.23242
436.4857, 76.19727
436.9678, 78.21936
437.4499, 80.00867
437.9320, 81.47571
438.4141, 82.72534
438.8962, 83.61511
439.3784, 84.32239
439.8605, 85.38452
440.3426, 87.46106
440.8247, 89.75293
441.3068, 91.56201
441.7889, 92.76184
442.2711, 93.98828
442.7532, 95.49817
443.2353, 97.21387
443.7174, 99.05322
444.1995, 101.3165
444.6816, 103.3501
445.1638, 104.5515
445.6459, 105.2264
446.1280, 106.8480
446.6101, 110.5305
447.0922, 114.4568
447.5743, 117.9089
448.0565, 120.8234
448.5386, 123.3573
449.0207, 125.8495
449.5028, 127.7361
449.9849, 128.2209
450.4670, 127.0392
450.9492, 125.0798
451.4313, 122.4901
451.9134, 119.2550
452.3955, 115.3759
452.8776, 110.8883
453.3597, 106.4421
453.8419, 102.1151
454.3240, 97.88757
454.8061, 94.25623
455.2882, 91.36987
455.7703, 88.64465
456.2524, 84.91382
456.7346, 80.45374
457.2167, 77.14648
457.6988, 76.26624
458.1809, 76.43689
458.6630, 75.24561
459.1451, 72.79895
459.6273, 70.27258
460.1094, 67.88806
460.5915, 66.16211
461.0736, 65.90491
461.5557, 67.76917
462.0378, 70.16052
462.5200, 72.46240
463.0021, 74.50500
463.4842, 75.96338
463.9663, 76.50610
464.4484, 76.65369
464.9305, 76.07922
465.4127, 74.66284
465.8948, 74.99695
466.3769, 79.11743
466.8590, 84.28931
467.3411, 88.51221
467.8232, 90.54114
468.3054, 93.19409
468.7875, 96.53711
469.2696, 100.5211
469.7517, 105.1511
470.2338, 110.6603
470.7159, 116.3065
471.1981, 121.8387
471.6802, 127.2480
472.1623, 132.6042
472.6444, 137.6917
473.1265, 143.1089
473.6086, 149.6234
474.0908, 157.2039
474.5729, 164.3024
475.0550, 170.5447
475.5371, 176.2883
476.0192, 182.2869
476.5013, 188.4824
476.9835, 194.2501
477.4656, 199.7078
477.9477, 204.4073
478.4298, 207.5441
478.9119, 209.0626
479.3940, 209.5394
479.8762, 209.3031
480.3583, 208.3278
480.8404, 206.6854
481.3225, 205.2722
481.8046, 202.0410
482.2867, 195.2487
482.7689, 185.8094
483.2510, 176.0360
483.7331, 166.0057
484.2152, 156.4044
484.6973, 147.5970
485.1794, 139.6477
485.6616, 132.0752
486.1437, 124.8326
486.6258, 117.9700
487.1079, 111.4855
487.5900, 105.5577
488.0721, 99.60303
488.5543, 93.50110
489.0364, 87.33533
489.5185, 81.32849
490.0006, 75.38159
490.4827, 69.98938
490.9648, 65.66919
491.4470, 62.31885
491.9291, 58.15857
492.4112, 52.99902
492.8933, 48.04749
493.3754, 44.98779
493.8575, 43.34094
494.3397, 40.87183
494.8218, 36.77563
495.3039, 32.38025
495.7860, 29.31982
496.2681, 27.43481
496.7502, 26.34290
497.2324, 26.86572
497.7145, 27.46216
498.1966, 26.24438
498.6787, 23.10669
499.1608, 20.69617
499.6429, 21.15479
500.1251, 22.43237
500.6072, 22.69385
501.0893, 20.38074
501.5714, 18.57690
502.0535, 18.39246
502.5356, 19.22668
503.0178, 19.55920
503.4999, 18.75305
503.9820, 17.82153
504.4641, 16.91040
504.9462, 16.01599
505.4283, 15.52380
505.9105, 15.09229
506.3926, 15.25928
506.8747, 17.11609
507.3568, 21.34937
507.8389, 23.55078
508.3210, 22.63562
508.8032, 20.38745
509.2853, 20.04077
509.7674, 21.42371
510.2495, 22.78992
510.7316, 23.34912
511.2137, 23.62488
511.6959, 24.76843
512.1780, 26.62903
512.6601, 28.22522
513.1422, 28.87488
513.6243, 28.86987
514.1064, 28.53625
514.5886, 27.88440
515.0707, 27.08997
515.5528, 26.12805
516.0349, 25.14929
516.5170, 24.35046
516.9991, 23.66785
517.4813, 23.34436
517.9634, 24.02148
518.4455, 25.45947
518.9276, 25.64417
519.4097, 22.45532
519.8918, 19.64380
520.3740, 19.00635
520.8561, 21.71204
521.3382, 22.56567
521.8203, 20.60730
522.3024, 17.86609
522.7845, 16.75464
523.2667, 17.55432
523.7488, 18.29578
524.2309, 18.55652
524.7130, 18.52893
525.1951, 18.78748
525.6772, 19.32483
526.1594, 19.70508
526.6415, 19.70349
527.1236, 19.38464
527.6057, 18.76172
528.0878, 17.84570
528.5699, 17.07788
529.0521, 16.57080
529.5342, 16.54382
530.0163, 17.42590
530.4984, 19.93567
530.9805, 22.25220
531.4626, 22.74255
531.9448, 22.36597
532.4269, 22.97327
532.9090, 26.13184
533.3911, 29.33325
533.8732, 31.58887
534.3553, 32.78735
534.8375, 34.55872
535.3196, 38.32190
535.8017, 41.22778
536.2838, 41.44739
536.7659, 37.61157
537.2480, 34.95752
537.7302, 33.97498
538.2123, 33.54810
538.6944, 32.02588
539.1765, 29.32739
539.6586, 26.50647
540.1407, 23.77905
540.6229, 21.23022
541.1050, 19.21619
541.5871, 17.71985
542.0692, 16.39355
542.5513, 15.41833
543.0334, 14.34192
543.5156, 12.07886
543.9977, 8.500122
544.4798, 5.586182
544.9619, 5.359497
545.4440, 6.313232
545.9261, 6.794434
546.4083, 6.083008
546.8904, 5.202148
547.3725, 4.065552
547.8546, 2.994263
548.3367, 2.668579
548.8188, 4.264526
549.3010, 5.427856
549.7831, 5.485718
550.2652, 4.442139
550.7473, 3.394775
551.2294, 2.303711
551.7115, 1.276978
552.1937, 0.2868650
552.6758, 0.7080080
553.1579, 0.9841310
553.6400, 0.2855220
554.1221, 0.5921630
554.6042, 0.5391850
555.0864, 0.3217770
555.5685, 1.319824
556.0506, 2.442261
556.5327, 3.353638
557.0148, 3.465088
557.4969, 2.925293
557.9791, 2.263916
558.4612, 1.569824
558.9433, 1.053589
559.4254, 1.255127
559.9075, 2.236450
560.3896, 2.307007
560.8718, 0.9647220
561.3539, 4.345703
561.8360, 5.351440
562.3181, 1.173096
562.8002, 1.614746
563.2823, 1.559326
563.7645, 0.3707280
564.2466, 0.7957760
564.7287, 3.841553
565.2108, 6.185913
565.6929, 7.094604
566.1750, 6.710083
566.6572, 5.377686
567.1393, 2.927612
567.6214, 0.8526610
568.1035, 0.4219970
568.5856, 1.154175
569.0677, 1.086548
569.5499, 0.1291500
570.0320, 1.028076
570.5141, 1.800049
570.9962, 2.307617
571.4783, 2.744995
571.9604, 3.176758
572.4426, 3.522583
572.9247, 3.780273
573.4068, 3.917603
573.8889, 3.884521
574.3710, 3.436890
574.8531, 3.068237
575.3353, 2.914917
575.8174, 2.995117
576.2995, 3.354004
576.7816, 4.333374
577.2637, 5.187134
577.7458, 5.488647
578.2280, 5.026367
578.7101, 5.139893
579.1922, 5.911621
579.6743, 7.067017
580.1564, 8.494873
580.6385, 10.15601
581.1207, 11.42273
581.6028, 12.12195
582.0849, 12.49561
582.5670, 12.75647
583.0491, 12.96985
583.5313, 13.37646
584.0134, 14.28760
584.4955, 15.28345
584.9776, 15.77295
585.4597, 15.91150
585.9418, 16.54846
586.4240, 19.40247
586.9061, 21.81995
587.3882, 21.89160
587.8703, 18.51477
588.3524, 16.32434
588.8345, 16.61133
589.3167, 17.82214
589.7988, 18.78271
590.2809, 19.18750
590.7630, 20.04504
591.2451, 21.69910
591.7272, 23.58569
592.2094, 24.32446
592.6915, 23.78748
593.1736, 24.05676
593.6557, 26.27197
594.1378, 29.48193
594.6199, 31.17786
595.1021, 31.54126
595.5842, 32.12561
596.0663, 34.44910
596.5484, 37.27454
597.0305, 39.00305
597.5126, 39.46753
597.9948, 40.15027
598.4769, 42.12415
598.9590, 44.56909
599.4411, 46.75757
599.9232, 47.98743
600.4053, 49.63452
600.8875, 52.37708
601.3696, 55.59351
601.8517, 58.39026
602.3338, 60.52344
602.8159, 62.65442
603.2980, 64.75732
603.7802, 67.00330
604.2623, 70.53796
604.7444, 75.58167
605.2265, 79.68286
605.7086, 80.77930
606.1907, 79.91187
606.6729, 81.12878
607.1550, 84.30762
607.6371, 86.97070
608.1192, 86.61060
608.6013, 84.80945
609.0834, 83.80725
609.5656, 84.30286
610.0477, 84.09766
610.5298, 81.30200
611.0119, 77.46033
611.4940, 74.30042
611.9761, 73.07104
612.4583, 71.55237
612.9404, 69.16748
613.4225, 66.32288
613.9046, 63.92163
614.3867, 62.14062
614.8688, 60.35437
615.3510, 58.50989
615.8331, 56.59888
616.3152, 54.24609
616.7973, 51.32959
617.2794, 48.84705
617.7615, 47.87903
618.2437, 47.84583
618.7258, 47.13989
619.2079, 45.47278
619.6900, 43.47095
620.1721, 41.63367
620.6542, 39.65137
621.1364, 37.37061
621.6185, 34.38843
622.1006, 31.82068
622.5827, 30.45593
623.0648, 29.65967
623.5469, 28.49158
624.0291, 26.74878
624.5112, 24.68591
624.9933, 22.07410
625.4754, 19.27686
625.9575, 17.63757
626.4396, 17.45300
626.9218, 17.15637
627.4039, 16.09265
627.8860, 14.44434
628.3681, 13.25244
628.8502, 12.53516
629.3323, 12.14355
629.8145, 11.81665
630.2966, 11.46790
630.7787, 11.32581
631.2608, 11.42700
631.7429, 11.40222
632.2250, 10.82446
632.7072, 10.02246
633.1893, 9.315552
633.6714, 8.588379
634.1535, 8.276367
634.6356, 8.994141
635.1177, 10.05090
635.5999, 10.33667
636.0820, 9.203369
636.5641, 8.341797
637.0462, 8.194214
637.5283, 8.462646
638.0104, 8.081909
638.4926, 6.959229
638.9747, 5.849243
639.4568, 5.102417
639.9389, 4.631348
640.4210, 4.048218
640.9031, 3.377075
641.3853, 2.854614
641.8674, 2.891113
642.3495, 3.072876
642.8316, 2.771973
643.3137, 1.848267
643.7958, 1.240356
644.2780, 1.730713
644.7601, 2.550171
645.2422, 3.029663
645.7243, 3.016846
646.2064, 2.656860
646.6885, 1.600098
647.1707, 0.4078370
647.6528, 0.1319580
648.1349, 0.1420900
648.6170, 0.4844970
649.0991, 0.7333980
649.5812, 0.9886470
650.0634, 1.616333
650.5455, 2.585693
651.0276, 3.358887
651.5097, 3.657837
651.9918, 3.644775
652.4739, 3.504395
652.9561, 3.260010
653.4382, 3.017456
653.9203, 2.924683
654.4024, 2.793701
654.8845, 2.494507
655.3666, 2.008789
655.8488, 1.394897
656.3309, 8.1665002E-02
656.8130, 0.8872070
657.2951, 0.8068850
657.7772, 0.9090580
658.2593, 2.098755
658.7415, 2.660767
659.2236, 2.868652
659.7057, 3.035889
660.1878, 3.159058
660.6699, 3.029175
661.1520, 2.535278
661.6342, 1.970459
662.1163, 1.874390
662.5984, 2.044678
663.0805, 1.917969
663.5626, 0.7589110
664.0447, 0.2675780
664.5269, 7.3608004E-02
665.0090, 0.9345700
665.4911, 1.588379
665.9732, 1.069092
666.4553, 0.5916750
666.9374, 0.7048340
667.4196, 1.369629
667.9017, 1.769165
668.3838, 1.823975
668.8659, 1.822754
669.3480, 2.047607
669.8301, 2.495361
670.3123, 2.044067
670.7944, 0.5577390
671.2765, 0.7543950
671.7586, 0.6217040
672.2407, 0.4370120
672.7228, 1.273438
673.2050, 1.711426
673.6871, 2.004028
674.1692, 2.160156
674.6513, 2.334473
675.1334, 2.758301
675.6155, 4.239746
676.0977, 4.812134
676.5798, 3.201538
677.0619, 0.6719970
677.5440, 0.9156490
678.0261, 1.352051
678.5082, 1.145020
678.9904, 1.3794000E-02
679.4725, 1.520630
679.9546, 1.349976
680.4367, 0.5096440
680.9188, 1.307861
681.4009, 1.193115
681.8831, 4.805786
682.3652, 4.913452
682.8473, 2.172119
683.3294, 0.1934810
683.8115, 6.6771999E-02
684.2936, 1.122681
684.7758, 1.869141
685.2579, 2.208008
