##NAMES=Raspite
##RRUFFID=R130514
##IDEAL CHEMISTRY=Pb^2+^W^6+^O_4_
##LOCALITY=Grand Central mine, Tombstone, Arizona, USA
##OWNER=RRUFF
##SOURCE=Bruce Murphy
##DESCRIPTION=Elongated, prismatic-to-tabular, pale yellow-to-colorless crystals, associated with chlorargyrite, emmonsite, ottoite, quartz, and jarosite.
##STATUS=The identification of this mineral is confirmed by single-crystal X-ray diffraction and chemical analysis.
##URL=rruff.info/R130514
##MEASURED CHEMISTRY=Pb_0.96_(W_0.57_Te_0.44_Al_0.01_)O_4_
99.39556, 0.0000000E+00
99.87768, 9.8217003E-02
100.3598, 0.1861590
100.8419, 0.1661130
101.3240, 3.3463001E-02
101.8061, 9.4470002E-02
102.2883, 0.3115840
102.7704, 0.4916850
103.2525, 0.4701680
103.7346, 0.1904550
104.2167, 4.9972001E-02
104.6988, 3.9900001E-04
105.1810, 0.2098860
105.6631, 0.3934240
106.1452, 0.4543130
106.6273, 0.4233740
107.1094, 0.4327940
107.5915, 0.5100100
108.0737, 0.5993600
108.5558, 0.6634970
109.0379, 0.7135080
109.5200, 0.7892210
110.0021, 0.9491890
110.4842, 1.226003
110.9664, 1.393822
111.4485, 1.375439
111.9306, 1.320210
112.4127, 1.303503
112.8948, 1.339375
113.3769, 1.373372
113.8591, 1.333544
114.3412, 1.166557
114.8233, 1.148914
115.3054, 1.326666
115.7875, 1.559864
116.2696, 1.747723
116.7517, 1.863139
117.2339, 1.924475
117.7160, 1.946966
118.1981, 1.930068
118.6802, 1.896725
119.1623, 1.863698
119.6444, 1.836766
120.1266, 1.812306
120.6087, 1.752456
121.0908, 1.660254
121.5729, 1.579844
122.0550, 1.539678
122.5371, 1.510661
123.0193, 1.484147
123.5014, 1.516877
123.9835, 1.503882
124.4656, 1.417548
124.9477, 1.310977
125.4298, 1.179256
125.9120, 1.022239
126.3941, 0.8721190
126.8762, 0.8230710
127.3583, 1.021098
127.8404, 1.124234
128.3225, 0.9790950
128.8047, 0.7021760
129.2868, 0.4730050
129.7689, 0.4044580
130.2510, 0.4486310
130.7331, 0.4785900
131.2152, 0.6081390
131.6974, 0.7469880
132.1795, 0.8678980
132.6616, 0.9487280
133.1437, 0.9547200
133.6258, 0.8929090
134.1079, 0.8034150
134.5901, 0.8788880
135.0722, 1.027568
135.5543, 1.126109
136.0364, 1.230088
136.5185, 1.349831
137.0006, 1.436588
137.4828, 1.425756
137.9649, 1.295441
138.4470, 1.161517
138.9291, 1.016078
139.4112, 0.8754010
139.8933, 0.7503770
140.3755, 0.6379540
140.8576, 0.5635770
141.3397, 0.5851000
141.8218, 0.6929330
142.3039, 0.7900750
142.7860, 0.8499500
143.2681, 0.8702600
143.7503, 0.8322210
144.2324, 0.6734060
144.7145, 0.5234110
145.1966, 0.5200800
145.6787, 0.6627240
146.1608, 0.7975670
146.6430, 0.7511940
147.1251, 0.4942940
147.6072, 0.3453010
148.0893, 0.5093890
148.5714, 0.7114960
149.0535, 0.7985750
149.5357, 0.7394580
150.0178, 0.6168990
150.4999, 0.5569660
150.9820, 0.6079490
151.4641, 0.6164890
151.9462, 0.5207000
152.4284, 0.4115990
152.9105, 0.3731470
153.3926, 0.4344920
153.8747, 0.5479830
154.3568, 0.5941310
154.8389, 0.5047310
155.3211, 0.4211450
155.8032, 0.3523190
156.2853, 0.2924810
156.7674, 0.2389980
157.2495, 0.2265650
157.7316, 0.2117560
158.2138, 0.1574530
158.6959, 3.2217000E-02
159.1780, 9.1283999E-02
159.6601, 0.2232020
160.1422, 0.3419910
160.6243, 0.3921160
161.1065, 0.3248280
161.5886, 0.1730860
162.0707, 9.5048003E-02
162.5528, 0.1182260
163.0349, 0.1706530
163.5170, 0.2264130
163.9991, 0.2843220
164.4813, 0.3277590
164.9634, 0.3502330
165.4455, 0.3464510
165.9276, 0.3083390
166.4097, 0.1991620
166.8918, 8.2800001E-02
167.3740, 2.4049999E-02
167.8561, 2.2632999E-02
168.3382, 8.1407003E-02
168.8203, 0.3099220
169.3024, 0.5765910
169.7845, 0.7054120
170.2667, 0.5943040
170.7488, 0.3261870
171.2309, 7.9577997E-02
171.7130, 0.1612760
172.1951, 0.3446160
172.6772, 0.4313510
173.1594, 0.4645420
173.6415, 0.5015180
174.1236, 0.5669800
174.6057, 0.6640870
175.0878, 0.8165150
175.5699, 1.120316
176.0521, 1.371588
176.5342, 1.498934
177.0163, 1.537354
177.4984, 1.548149
177.9805, 1.575274
178.4626, 1.619238
178.9448, 1.652273
179.4269, 1.606581
179.9090, 1.615799
180.3911, 1.732559
180.8732, 1.941975
181.3553, 2.201126
181.8375, 2.481325
182.3196, 2.789579
182.8017, 3.038311
183.2838, 3.170385
183.7659, 3.306606
184.2480, 3.527411
184.7301, 3.820969
185.2123, 4.099678
185.6944, 4.269102
186.1765, 4.306881
186.6586, 4.406460
187.1407, 4.640980
187.6228, 4.880367
188.1050, 5.025023
188.5871, 5.065327
189.0692, 5.067062
189.5513, 5.075468
190.0334, 5.091747
190.5155, 5.148161
190.9977, 5.297791
191.4798, 5.465109
191.9619, 5.537199
192.4440, 5.481644
192.9261, 5.448160
193.4082, 5.641546
193.8904, 5.991684
194.3725, 6.285528
194.8546, 6.453142
195.3367, 6.521236
195.8188, 6.533316
196.3009, 6.473139
196.7831, 6.396755
197.2652, 6.341410
197.7473, 6.302725
198.2294, 6.270304
198.7115, 6.268143
199.1936, 6.278715
199.6758, 6.196066
200.1579, 5.894907
200.6400, 5.677389
201.1221, 5.750696
201.6042, 6.027763
202.0863, 6.292479
202.5685, 6.409880
203.0506, 6.387800
203.5327, 6.288473
204.0148, 5.971558
204.4969, 5.719519
204.9790, 5.686712
205.4612, 5.808641
205.9433, 5.925554
206.4254, 5.881783
206.9075, 5.661316
207.3896, 5.537693
207.8717, 5.587749
208.3539, 5.669838
208.8360, 5.788055
209.3181, 5.909214
209.8002, 5.969427
210.2823, 5.905079
210.7644, 5.701982
211.2466, 5.515015
211.7287, 5.267792
212.2108, 5.103132
212.6929, 5.155874
213.1750, 5.363537
213.6571, 5.530098
214.1393, 5.465160
214.6214, 5.123674
215.1035, 4.861736
215.5856, 4.661697
216.0677, 4.533228
216.5498, 4.515316
217.0320, 4.582159
217.5141, 4.646563
217.9962, 4.624983
218.4783, 4.507473
218.9604, 4.448847
219.4425, 4.520926
219.9247, 4.592249
220.4068, 4.565643
220.8889, 4.443747
221.3710, 4.306538
221.8531, 4.222641
222.3352, 4.198082
222.8174, 4.159298
223.2995, 4.070711
223.7816, 3.998306
224.2637, 3.991386
224.7458, 4.052923
225.2279, 4.162952
225.7100, 4.324490
226.1922, 4.523916
226.6743, 4.675879
227.1564, 4.731468
227.6385, 4.769119
228.1206, 4.900885
228.6027, 5.144529
229.0849, 5.339996
229.5670, 5.337091
230.0491, 5.178011
230.5312, 5.001694
231.0133, 4.691784
231.4954, 4.451344
231.9776, 4.593346
232.4597, 5.177330
232.9418, 5.724380
233.4239, 5.842445
233.9060, 5.741152
234.3881, 5.732315
234.8703, 5.924524
235.3524, 6.216375
235.8345, 6.512672
236.3166, 6.846970
236.7987, 7.050917
237.2808, 6.867107
237.7630, 6.557222
238.2451, 6.430723
238.7272, 6.650024
239.2093, 6.995071
239.6914, 7.072996
240.1735, 6.771988
240.6557, 6.566860
241.1378, 6.737104
241.6199, 7.048233
242.1020, 7.299934
242.5841, 7.430180
243.0662, 7.453279
243.5484, 7.351763
244.0305, 7.033859
244.5126, 6.848185
244.9947, 6.986517
245.4768, 7.236801
245.9589, 7.429398
246.4410, 7.507355
246.9232, 7.512920
247.4053, 7.525784
247.8874, 7.574059
248.3695, 7.556297
248.8516, 7.362831
249.3337, 7.158138
249.8159, 7.100494
250.2980, 7.232864
250.7801, 7.421772
251.2622, 7.437820
251.7443, 7.202354
252.2264, 6.962826
252.7086, 6.685421
253.1907, 6.448322
253.6728, 6.314003
254.1549, 6.301430
254.6370, 6.368187
255.1191, 6.466820
255.6013, 6.673069
256.0834, 6.738426
256.5655, 6.522892
257.0476, 6.303085
257.5297, 6.317032
258.0118, 6.566166
258.4940, 6.807079
258.9761, 6.668621
259.4582, 5.860920
259.9403, 5.428890
260.4224, 5.661503
260.9045, 5.964581
261.3867, 5.900700
261.8688, 5.459614
262.3509, 4.995884
262.8330, 4.944511
263.3151, 5.496853
263.7972, 5.773598
264.2794, 5.704967
264.7615, 5.482307
265.2436, 5.135685
265.7257, 4.712662
266.2078, 4.310276
266.6899, 4.026081
267.1721, 3.871353
267.6542, 3.805695
268.1363, 3.957413
268.6184, 4.064358
269.1005, 3.964207
269.5826, 3.689835
270.0648, 3.388752
270.5469, 3.176487
271.0290, 3.056202
271.5111, 2.970612
271.9932, 2.942867
272.4753, 2.919048
272.9575, 2.891670
273.4396, 2.851421
273.9217, 2.775650
274.4038, 2.643681
274.8859, 2.461903
275.3680, 2.310959
275.8501, 2.149235
276.3322, 2.052494
276.8144, 2.105171
277.2965, 2.243496
277.7786, 2.316277
278.2607, 2.229103
278.7428, 2.032276
279.2249, 1.946159
279.7071, 2.052551
280.1892, 2.149067
280.6713, 2.152023
281.1534, 2.115227
281.6355, 2.153099
282.1176, 2.327957
282.5998, 2.562466
283.0819, 2.641163
283.5640, 2.477982
284.0461, 2.350418
284.5282, 2.351776
285.0103, 2.412838
285.4925, 2.427647
285.9746, 2.358616
286.4567, 2.252689
286.9388, 2.190449
287.4209, 2.186050
287.9030, 2.172787
288.3852, 2.110470
288.8673, 2.045902
289.3494, 2.030621
289.8315, 2.075775
290.3136, 2.181290
290.7957, 2.400703
291.2779, 2.772224
291.7600, 2.917301
292.2421, 2.547401
292.7242, 2.075672
293.2063, 1.932655
293.6884, 2.169891
294.1706, 2.517944
294.6527, 2.774921
295.1348, 2.926250
295.6169, 2.920280
296.0990, 2.531147
296.5811, 2.145847
297.0633, 2.176975
297.5454, 2.592453
298.0275, 2.873760
298.5096, 2.579575
298.9917, 1.821781
299.4738, 1.396996
299.9560, 1.536236
300.4381, 1.791710
300.9202, 1.945103
301.4023, 2.002468
301.8844, 2.000969
302.3665, 1.941040
302.8487, 1.847992
303.3308, 1.809864
303.8129, 1.925423
304.2950, 1.936481
304.7771, 1.619278
305.2592, 1.101807
305.7414, 0.7218740
306.2235, 0.6209070
306.7056, 0.6906970
307.1877, 0.7350460
307.6698, 0.7503320
308.1519, 0.7637180
308.6341, 0.8309520
309.1162, 0.8926770
309.5983, 0.8270150
310.0804, 0.5882640
310.5625, 0.2826420
311.0446, 3.7921999E-02
311.5268, 0.1504710
312.0089, 0.2905500
312.4910, 0.3187370
312.9731, 0.3292120
313.4552, 0.4710770
313.9373, 0.7716750
314.4195, 1.048817
314.9016, 1.116772
315.3837, 0.9857750
315.8658, 0.8784290
316.3479, 0.8037410
316.8300, 0.7651600
317.3121, 0.8090740
317.7943, 0.9236370
318.2764, 0.9633670
318.7585, 0.8019560
319.2406, 0.4846310
319.7227, 0.2545660
320.2048, 0.1425970
320.6870, 8.1505001E-02
321.1691, 4.8214000E-02
321.6512, 3.8479000E-02
322.1333, 4.8214000E-02
322.6154, 9.6409000E-02
323.0975, 0.1367950
323.5797, 4.3056000E-02
324.0618, 0.2424430
324.5439, 0.5113070
325.0260, 0.6699030
325.5081, 0.7651140
325.9902, 0.8540460
326.4724, 0.9309880
326.9545, 1.097610
327.4366, 1.587746
327.9187, 2.473793
328.4008, 3.200508
328.8829, 3.535755
329.3651, 3.716671
329.8472, 4.010212
330.3293, 4.462296
330.8114, 4.986919
331.2935, 5.517071
331.7756, 6.052116
332.2578, 6.559692
332.7399, 6.994137
333.2220, 7.430817
333.7041, 7.949619
334.1862, 8.536880
334.6683, 9.095131
335.1505, 9.536114
335.6326, 9.888176
336.1147, 10.34395
336.5968, 11.00171
337.0789, 11.65216
337.5610, 12.20105
338.0432, 12.67731
338.5253, 13.13021
339.0074, 13.56885
339.4895, 14.02905
339.9716, 14.62691
340.4537, 15.48130
340.9359, 16.23662
341.4180, 16.76701
341.9001, 17.18362
342.3822, 17.61709
342.8643, 18.10292
343.3464, 18.62356
343.8286, 19.16798
344.3107, 19.78175
344.7928, 20.25751
345.2749, 20.48527
345.7570, 20.64615
346.2391, 20.85542
346.7213, 21.13086
347.2034, 21.47203
347.6855, 21.89262
348.1676, 22.40164
348.6497, 22.79538
349.1318, 23.03848
349.6140, 23.22481
350.0961, 23.40892
350.5782, 23.56656
351.0603, 23.61960
351.5424, 23.50899
352.0245, 23.28798
352.5067, 23.18621
352.9888, 23.17241
353.4709, 23.31503
353.9530, 23.80991
354.4351, 24.39233
354.9172, 24.75245
355.3994, 24.78243
355.8815, 24.60041
356.3636, 24.39325
356.8457, 24.09072
357.3278, 23.91759
357.8099, 24.00207
358.2920, 24.10714
358.7741, 24.06995
359.2563, 23.88018
359.7384, 23.62365
360.2205, 23.37390
360.7026, 23.12576
361.1847, 22.93667
361.6668, 22.93550
362.1490, 22.85734
362.6311, 22.56822
363.1132, 22.13885
363.5953, 21.68777
364.0774, 21.27232
364.5595, 20.93010
365.0417, 20.84402
365.5238, 21.44063
366.0059, 21.69553
366.4880, 21.27196
366.9701, 20.58077
367.4522, 20.01519
367.9344, 19.70435
368.4165, 19.51306
368.8986, 19.21742
369.3807, 18.73024
369.8628, 18.36119
370.3449, 18.24947
370.8271, 18.14979
371.3092, 17.93659
371.7913, 17.59802
372.2734, 17.18104
372.7555, 16.71457
373.2376, 16.21228
373.7198, 15.80299
374.2019, 15.60875
374.6840, 15.35022
375.1661, 14.87419
375.6482, 14.28402
376.1303, 13.75508
376.6125, 13.38389
377.0946, 13.11866
377.5767, 12.80455
378.0588, 12.37439
378.5409, 12.06678
379.0230, 12.13626
379.5052, 12.23585
379.9873, 12.07009
380.4694, 11.58111
380.9515, 10.98746
381.4336, 10.48484
381.9157, 10.07061
382.3979, 9.734169
382.8800, 9.524498
383.3621, 9.336369
383.8442, 9.084103
384.3263, 8.787983
384.8084, 8.515572
385.2906, 8.353523
385.7727, 8.234547
386.2548, 7.968643
386.7369, 7.500496
387.2190, 7.090061
387.7011, 7.013126
388.1833, 7.051060
388.6654, 6.865910
389.1475, 6.289150
389.6296, 5.670097
390.1117, 5.366657
390.5938, 5.331585
391.0760, 5.186420
391.5581, 4.739151
392.0402, 4.215900
392.5223, 3.960018
393.0044, 3.991486
393.4865, 3.973610
393.9687, 3.725266
394.4508, 3.362667
394.9329, 3.060474
395.4150, 2.839783
395.8971, 2.688335
396.3792, 2.618328
396.8614, 2.621449
397.3435, 2.586174
397.8256, 2.512608
398.3077, 2.393818
398.7898, 2.152355
399.2719, 1.844242
399.7540, 1.680855
400.2361, 1.793324
400.7183, 2.078732
401.2004, 2.242340
401.6825, 2.249500
402.1646, 2.221115
402.6467, 2.156639
403.1288, 2.077297
403.6110, 1.996170
404.0931, 1.920761
404.5752, 1.884396
405.0573, 1.948627
405.5394, 2.141636
406.0215, 2.205410
406.5037, 2.007465
406.9858, 1.812962
407.4679, 1.774330
407.9500, 1.863415
408.4321, 1.965820
408.9142, 2.010742
409.3964, 2.013744
409.8785, 2.075264
410.3606, 2.233395
410.8427, 2.421631
411.3248, 2.699085
411.8069, 2.977592
412.2891, 3.154331
412.7712, 3.201923
413.2533, 3.190147
413.7354, 3.228954
414.2175, 3.353184
414.6996, 3.407841
415.1818, 3.379593
415.6639, 3.302635
416.1460, 3.086433
416.6281, 2.832336
417.1102, 2.774471
417.5923, 3.101288
418.0745, 3.664898
418.5566, 4.006737
419.0387, 4.085659
419.5208, 4.072727
420.0029, 3.957703
420.4850, 3.825714
420.9672, 3.728069
421.4493, 3.665829
421.9314, 3.679810
422.4135, 3.901690
422.8956, 4.316080
423.3777, 4.520454
423.8599, 4.325668
424.3420, 4.083908
424.8241, 4.110283
425.3062, 4.324802
425.7883, 4.444763
426.2704, 4.257214
426.7526, 3.955393
427.2347, 3.858103
427.7168, 3.981163
428.1989, 4.056948
428.6810, 3.894403
429.1631, 3.614475
429.6453, 3.507877
430.1274, 3.668987
430.6095, 3.795071
431.0916, 3.715521
431.5737, 3.496948
432.0558, 3.247059
432.5380, 2.983238
433.0201, 2.769344
433.5022, 2.695295
433.9843, 2.783787
434.4664, 2.849218
434.9485, 2.889843
435.4307, 2.901567
435.9128, 2.869177
436.3949, 2.803072
436.8770, 2.738075
437.3591, 2.697023
437.8412, 2.667439
438.3234, 2.603001
438.8055, 2.484703
439.2876, 2.354660
439.7697, 2.155807
440.2518, 1.981014
440.7339, 1.955406
441.2160, 2.085152
441.6982, 2.231665
442.1803, 2.226028
442.6624, 2.036718
443.1445, 1.925745
443.6266, 2.023033
444.1087, 2.064789
444.5909, 1.911606
445.0730, 1.659908
445.5551, 1.469130
446.0372, 1.424246
446.5193, 1.476494
447.0014, 1.536236
447.4836, 1.633465
447.9657, 1.647585
448.4478, 1.436977
448.9299, 1.222939
449.4120, 1.172060
449.8941, 1.278671
450.3763, 1.382250
450.8584, 1.328186
451.3405, 1.162951
451.8226, 1.110426
452.3047, 1.236675
452.7868, 1.320795
453.2690, 1.194515
453.7511, 0.9520760
454.2332, 0.7038040
454.7153, 0.4353370
455.1974, 0.2407840
455.6795, 0.2568040
456.1617, 0.4302790
456.6438, 0.5110020
457.1259, 0.3948690
457.6080, 0.2343180
458.0901, 0.2609690
458.5722, 0.4745060
459.0544, 0.6055740
459.5365, 0.5547850
460.0186, 0.4395200
460.5007, 0.3755570
460.9828, 0.3522470
461.4649, 0.2591630
461.9471, 2.8420000E-03
462.4292, 0.3503840
462.9113, 0.5275960
463.3934, 0.4346500
463.8755, 0.3032880
464.3576, 7.2819002E-02
464.8398, 0.1376380
465.3219, 0.1707120
465.8040, 1.4486000E-02
466.2861, 0.1759990
466.7682, 0.2236270
467.2503, 0.1076980
467.7325, 5.8265999E-02
468.2146, 0.1015830
468.6967, 0.1859680
469.1788, 0.3708570
469.6609, 0.5689530
470.1430, 0.6431540
470.6252, 0.5301040
471.1073, 0.3206810
471.5894, 0.1623840
472.0715, 5.4067999E-02
472.5536, 1.2760001E-03
473.0357, 2.9423000E-02
473.5179, 9.6539997E-02
474.0000, 0.2331540
474.4821, 0.4020610
474.9642, 0.4730550
475.4463, 0.2937050
475.9284, 1.0242000E-02
476.4106, 0.1667800
476.8927, 0.1636070
477.3748, 8.1991002E-02
477.8569, 0.1105820
478.3390, 0.3221720
478.8211, 0.4022790
479.3033, 0.3147850
479.7854, 0.2069610
480.2675, 0.1524260
480.7496, 0.1271690
481.2317, 0.1000650
481.7138, 6.7553997E-02
482.1959, 9.4680004E-03
482.6780, 0.1896630
483.1602, 0.4680230
483.6423, 0.6448420
484.1244, 0.6905120
484.6065, 0.6743050
485.0886, 0.5596330
485.5707, 0.4155920
486.0529, 0.3695810
486.5350, 0.4679910
487.0171, 0.6350610
487.4992, 0.7427540
487.9813, 0.7492100
488.4634, 0.8137590
488.9456, 0.9952490
489.4277, 1.168598
489.9098, 1.251394
490.3919, 1.277153
490.8740, 1.332397
491.3561, 1.472561
491.8383, 1.666336
492.3204, 1.840357
492.8025, 2.018843
493.2846, 2.109602
493.7667, 2.002756
494.2488, 1.866074
494.7310, 1.819780
495.2131, 1.864368
495.6952, 1.904364
496.1773, 1.825146
496.6594, 1.695436
497.1415, 1.732046
497.6237, 1.976395
498.1058, 2.210848
498.5879, 2.310135
499.0700, 2.324903
499.5521, 2.363413
500.0342, 2.459204
500.5164, 2.509842
500.9985, 2.393599
501.4806, 2.216549
501.9627, 2.194822
502.4448, 2.374613
502.9269, 2.578239
503.4091, 2.636503
503.8912, 2.542933
504.3733, 2.459404
504.8554, 2.400913
505.3375, 2.334738
505.8196, 2.207729
506.3018, 2.077789
506.7839, 2.045149
507.2660, 2.142805
507.7481, 2.300819
508.2302, 2.413704
508.7123, 2.471699
509.1945, 2.519907
509.6766, 2.559553
510.1587, 2.587954
510.6408, 2.572838
511.1229, 2.549892
511.6050, 2.599495
512.0872, 2.780109
512.5693, 2.991201
513.0514, 3.037460
513.5335, 2.897636
514.0156, 2.754137
514.4977, 2.601940
514.9799, 2.505341
515.4620, 2.534386
515.9441, 2.672867
516.4262, 2.806541
516.9083, 2.928398
517.3904, 2.994905
517.8726, 2.904947
518.3547, 2.672401
518.8368, 2.488396
519.3189, 2.439913
519.8010, 2.489941
520.2831, 2.579926
520.7653, 2.773619
521.2474, 2.870489
521.7295, 2.733904
522.2116, 2.565273
522.6937, 2.554552
523.1758, 2.681591
523.6580, 2.781862
524.1401, 2.725542
524.6222, 2.562117
525.1043, 2.517845
525.5864, 2.726484
526.0685, 2.849634
526.5507, 2.816870
527.0328, 2.711555
527.5149, 2.577856
527.9970, 2.445059
528.4791, 2.363522
528.9612, 2.402098
529.4434, 2.528482
529.9255, 2.554823
530.4076, 2.436396
530.8897, 2.306078
531.3718, 2.203384
531.8539, 2.120934
532.3361, 2.068823
532.8182, 2.064594
533.3003, 2.046392
533.7824, 1.951494
534.2645, 1.804947
534.7466, 1.660158
535.2288, 1.517054
535.7109, 1.445560
536.1930, 1.550081
536.6751, 1.787785
537.1572, 1.852793
537.6393, 1.531500
538.1215, 1.314634
538.6036, 1.440258
539.0857, 1.698826
539.5678, 1.829733
540.0499, 1.783176
540.5320, 1.670647
541.0142, 1.596037
541.4963, 1.556112
541.9784, 1.558670
542.4604, 1.680155
542.9426, 1.749887
543.4247, 1.712132
543.9068, 1.616076
544.3889, 1.499096
544.8710, 1.375717
545.3531, 1.290373
545.8353, 1.315758
546.3174, 1.440920
546.7995, 1.524567
547.2816, 1.534424
547.7637, 1.552675
548.2458, 1.718117
548.7280, 1.906733
549.2101, 1.872608
549.6922, 1.433681
550.1743, 1.070177
550.6564, 1.208521
551.1385, 1.616415
551.6207, 1.778502
552.1028, 1.583008
552.5849, 1.319256
553.0670, 1.253666
553.5491, 1.387436
554.0313, 1.512337
554.5134, 1.656694
554.9955, 1.760885
555.4776, 1.814560
555.9597, 1.817345
556.4418, 1.751860
556.9240, 1.620491
557.4061, 1.474409
557.8882, 1.367887
558.3703, 1.301754
558.8524, 1.269241
559.3345, 1.293106
559.8167, 1.320768
560.2988, 1.303125
560.7809, 1.291542
561.2630, 1.361324
561.7451, 1.537947
562.2272, 1.730362
562.7094, 1.884954
563.1915, 1.990288
563.6736, 1.994665
564.1557, 1.876661
564.6378, 1.739548
565.1199, 1.646631
565.6021, 1.597136
566.0842, 1.571709
566.5663, 1.586321
567.0484, 1.601463
567.5305, 1.592176
568.0126, 1.581749
568.4948, 1.601830
568.9769, 1.656610
569.4590, 1.733265
569.9411, 1.831921
570.4232, 1.945980
570.9053, 1.937510
571.3875, 1.637646
571.8696, 1.442612
572.3517, 1.437033
572.8338, 1.542255
573.3159, 1.741899
573.7980, 2.005156
574.2802, 2.189524
574.7623, 2.121511
575.2444, 1.865423
575.7265, 1.685616
576.2086, 1.589830
576.6907, 1.539690
577.1729, 1.534130
577.6550, 1.557278
578.1371, 1.586506
578.6192, 1.626799
579.1013, 1.649036
579.5834, 1.628366
580.0656, 1.591995
580.5477, 1.561802
581.0298, 1.543768
581.5119, 1.555792
581.9940, 1.615131
582.4761, 1.701483
582.9583, 1.745163
583.4404, 1.710817
583.9225, 1.685516
584.4046, 1.742060
584.8867, 1.747881
585.3688, 1.545298
585.8510, 1.204924
586.3331, 0.9524750
586.8152, 0.9369010
587.2973, 1.082634
587.7794, 1.242088
588.2615, 1.426229
588.7437, 1.551107
589.2258, 1.606071
589.7079, 1.580542
590.1900, 1.438654
590.6721, 1.200779
591.1542, 0.9986780
591.6364, 0.8600710
592.1185, 0.7841220
592.6006, 0.8209740
593.0827, 0.9251520
593.5648, 0.9435290
594.0469, 0.8141770
594.5291, 0.6549700
595.0112, 0.6429770
595.4933, 0.8374730
595.9754, 0.9084910
596.4575, 0.7557950
596.9396, 0.6105940
597.4218, 0.5403690
597.9039, 0.5324540
598.3860, 0.5843030
598.8681, 0.6905290
599.3502, 0.7735290
599.8323, 0.7112390
600.3145, 0.5112090
600.7966, 0.3885500
601.2787, 0.3793350
601.7608, 0.4128740
602.2429, 0.5026800
602.7250, 0.5886080
603.2072, 0.5595760
603.6893, 0.3539390
604.1714, 0.1760290
604.6535, 0.1651080
605.1356, 0.2304000
605.6177, 0.2294900
606.0999, 0.1506520
606.5820, 9.6233003E-02
607.0641, 0.1526280
607.5462, 0.2919140
608.0283, 0.3630750
608.5104, 0.2911850
608.9926, 0.2294290
609.4747, 0.1697860
609.9568, 0.1356450
610.4389, 0.1422040
610.9210, 0.1843510
611.4031, 0.2513290
611.8853, 0.3547840
612.3674, 0.4472680
612.8495, 0.3999960
613.3316, 0.1957230
613.8137, 6.1161000E-02
614.2958, 7.3200002E-02
614.7780, 0.1430660
615.2601, 0.2052590
615.7422, 0.2560960
616.2243, 0.2581100
616.7064, 0.1591010
617.1885, 5.2262999E-02
617.6707, 1.9300000E-04
618.1528, 1.6836001E-02
618.6349, 4.1508000E-02
619.1170, 8.6539999E-02
619.5991, 0.1248420
620.0812, 0.1275310
620.5634, 9.5454998E-02
621.0455, 1.4406000E-02
621.5276, 0.2183380
622.0097, 0.3717100
622.4918, 0.3407610
622.9739, 0.2409930
623.4561, 0.1831970
623.9382, 0.1911010
624.4203, 0.2329980
624.9023, 0.2715280
625.3845, 0.3261870
625.8666, 0.4916020
626.3487, 0.7872390
626.8308, 0.9701210
627.3129, 0.8888240
627.7950, 0.6704650
628.2772, 0.5381770
628.7593, 0.4821360
629.2414, 0.5217130
629.7235, 0.7754270
630.2056, 1.022493
630.6877, 1.086264
631.1699, 1.020046
631.6520, 0.9841940
632.1341, 1.052601
632.6162, 1.138235
633.0983, 1.059687
633.5804, 0.7518600
634.0626, 0.6233870
634.5447, 0.8424880
635.0268, 1.030053
635.5089, 0.9640810
635.9910, 0.7831490
636.4731, 0.7121690
636.9553, 0.8283480
637.4374, 0.9470800
637.9195, 0.8874190
638.4016, 0.7549650
638.8837, 0.7846730
639.3658, 0.9955470
639.8480, 1.166204
640.3301, 1.144059
640.8122, 0.9853270
641.2943, 0.8773210
641.7764, 0.8633080
642.2585, 0.8391690
642.7407, 0.8144600
643.2228, 0.7713540
643.7049, 0.6686930
644.1870, 0.5390320
644.6691, 0.4642880
645.1512, 0.4935770
645.6334, 0.5697930
646.1155, 0.6111750
646.5976, 0.6178170
647.0797, 0.5750200
647.5618, 0.4443240
648.0439, 0.3425180
648.5261, 0.4056040
649.0082, 0.5701970
649.4903, 0.6329900
649.9724, 0.5051800
650.4545, 0.3880690
650.9366, 0.3805490
651.4188, 0.4153910
651.9009, 0.4194050
652.3830, 0.3814680
652.8651, 0.3094490
653.3472, 0.1987040
653.8293, 8.0948003E-02
654.3115, 9.4392002E-02
654.7936, 0.3356040
655.2757, 0.4730380
655.7578, 0.3543870
656.2399, 0.2108110
656.7220, 0.2088980
657.2042, 0.2902300
657.6863, 0.2512400
658.1684, 7.0354000E-02
658.6505, 0.4029250
659.1326, 0.4613940
659.6147, 0.3265110
660.0969, 0.2227540
660.5790, 0.1985440
661.0611, 0.1885940
661.5432, 0.1294530
662.0253, 3.0430000E-02
662.5074, 6.8080002E-03
662.9896, 8.7700002E-02
663.4717, 0.1518150
663.9538, 0.1321540
664.4359, 0.1079050
664.9180, 0.1799660
665.4001, 0.3148810
665.8823, 0.3643350
666.3644, 0.2115660
666.8465, 3.5999000E-02
667.3286, 0.1965850
667.8107, 0.2713950
668.2928, 0.2861840
668.7750, 0.2228520
669.2571, 0.1584590
669.7392, 0.1741260
670.2213, 0.2609670
670.7034, 0.3190250
671.1855, 0.3041390
671.6677, 0.3113160
672.1498, 0.4036140
672.6319, 0.5150300
673.1140, 0.5455660
673.5961, 0.5056680
674.0782, 0.5207360
674.5604, 0.7035010
675.0425, 0.9825530
675.5246, 1.114526
676.0067, 1.064055
676.4888, 1.025606
676.9709, 1.054049
677.4531, 1.083600
677.9352, 1.022668
678.4173, 0.9153110
678.8994, 0.9220540
679.3815, 1.147743
679.8636, 1.405646
680.3458, 1.622241
680.8279, 1.785724
681.3100, 1.869902
681.7921, 1.875560
682.2742, 1.836679
682.7563, 1.773267
683.2385, 1.697350
683.7206, 1.668862
684.2027, 1.704596
684.6848, 1.750408
685.1669, 1.823080
685.6490, 1.882514
686.1312, 1.881296
686.6133, 1.845951
687.0954, 1.862013
687.5775, 1.998863
688.0596, 2.130545
688.5417, 2.118619
689.0239, 2.020702
689.5060, 1.977265
689.9881, 2.013362
690.4702, 2.063123
690.9523, 2.066142
691.4344, 2.023987
691.9166, 1.955415
692.3987, 1.772201
692.8808, 1.713305
693.3629, 1.908333
693.8450, 2.114663
694.3271, 2.181475
694.8093, 2.137473
695.2914, 2.083075
695.7735, 2.061974
696.2556, 2.060518
696.7377, 2.051179
697.2198, 2.044595
697.7020, 2.088441
698.1841, 2.193233
698.6662, 2.339044
699.1483, 2.527824
699.6304, 2.737231
700.1125, 2.879621
700.5947, 2.919206
701.0768, 2.943760
701.5589, 2.932503
702.0410, 2.926953
702.5231, 2.944777
703.0052, 2.989840
703.4874, 3.067621
703.9695, 3.189701
704.4516, 3.320892
704.9337, 3.447859
705.4158, 3.572791
705.8979, 3.701246
706.3801, 3.831869
706.8622, 3.987513
707.3442, 4.200779
707.8264, 4.432882
708.3085, 4.573172
708.7906, 4.549023
709.2727, 4.624666
709.7548, 4.877352
710.2369, 5.176216
710.7191, 5.473894
711.2012, 5.752829
711.6833, 6.001369
712.1654, 6.217040
712.6475, 6.383936
713.1296, 6.446140
713.6118, 6.431557
714.0939, 6.514271
714.5760, 6.713954
715.0581, 6.925747
715.5402, 7.123495
716.0223, 7.274082
716.5045, 7.310044
716.9866, 7.234966
717.4687, 7.170187
717.9508, 7.077704
718.4329, 7.038671
718.9150, 7.109501
719.3972, 7.256697
719.8793, 7.464476
720.3614, 7.706240
720.8435, 7.876593
721.3256, 7.860921
721.8077, 7.708508
722.2899, 7.587824
722.7720, 7.493038
723.2541, 7.423198
723.7362, 7.430004
724.2183, 7.411763
724.7004, 7.188105
725.1826, 6.751457
725.6647, 6.475294
726.1468, 6.541578
726.6289, 6.573916
727.1110, 6.401730
727.5931, 6.145500
728.0753, 5.953117
728.5574, 5.832792
729.0395, 5.685076
729.5216, 5.426453
730.0037, 5.114483
730.4858, 4.891613
730.9680, 4.762245
731.4501, 4.591937
731.9322, 4.342134
732.4143, 4.076881
732.8964, 3.840803
733.3785, 3.632668
733.8607, 3.438857
734.3428, 3.268663
734.8249, 3.100151
735.3070, 2.950229
735.7891, 2.782298
736.2712, 2.540631
736.7534, 2.253410
737.2355, 2.000607
737.7176, 1.820479
738.1997, 1.681686
738.6818, 1.554153
739.1639, 1.432849
739.6461, 1.253613
740.1282, 0.9970460
740.6103, 0.7457000
741.0924, 0.5162590
741.5745, 0.3432980
742.0566, 0.3344230
742.5388, 0.5678250
743.0209, 0.6819970
743.5030, 0.5579650
743.9851, 0.4015910
744.4672, 0.2859980
744.9493, 0.2233030
745.4315, 0.2544750
745.9136, 0.3761670
746.3957, 0.4542300
746.8778, 0.3056520
747.3599, 2.1402000E-02
747.8420, 0.1145450
748.3242, 9.9769004E-02
748.8063, 2.7871000E-02
749.2884, 9.3530998E-02
749.7705, 0.2020580
750.2526, 0.2152850
750.7347, 0.1260950
751.2169, 7.1662001E-02
751.6990, 0.1031150
752.1811, 0.1001580
752.6632, 1.4942000E-02
753.1453, 0.1385700
753.6274, 0.1778010
754.1096, 0.1320690
754.5917, 4.8005000E-02
755.0738, 6.4906001E-02
755.5559, 0.1687970
756.0380, 0.1957410
756.5201, 0.1645790
757.0023, 0.1606820
757.4844, 0.1994170
757.9665, 0.2399590
758.4486, 0.2526060
758.9307, 0.2463510
759.4128, 0.2547300
759.8950, 0.3385190
760.3771, 0.3231340
760.8592, 3.3229001E-02
761.3413, 0.1647470
761.8234, 3.0489999E-03
762.3055, 0.3414280
762.7877, 0.5187940
763.2698, 0.4378460
763.7519, 0.3343630
764.2340, 0.4004910
764.7161, 0.5452670
765.1982, 0.6237540
765.6804, 0.6416310
766.1625, 0.6647550
766.6446, 0.7187110
767.1267, 0.7853000
767.6088, 0.8424340
768.0909, 0.8909800
768.5731, 0.9207700
769.0552, 0.9013820
769.5373, 0.9132910
770.0194, 1.017605
770.5015, 1.139339
770.9836, 1.199648
771.4658, 1.194738
771.9479, 1.179622
772.4300, 1.177262
772.9121, 1.159849
773.3942, 1.071517
773.8763, 0.9714020
774.3585, 0.9796790
774.8406, 1.089901
775.3227, 1.165128
775.8048, 1.120792
776.2869, 1.017622
776.7690, 1.002805
777.2512, 1.096864
777.7333, 1.105233
778.2154, 0.9506380
778.6975, 0.8359390
779.1796, 0.8937000
779.6617, 1.050904
780.1439, 1.192922
780.6260, 1.330063
781.1081, 1.389857
781.5902, 1.330111
782.0723, 1.212459
782.5544, 1.009871
783.0366, 0.8007610
783.5187, 0.7302010
784.0008, 0.8201660
784.4829, 0.9248290
784.9650, 0.8900750
785.4471, 0.7794900
785.9293, 0.8124950
786.4114, 0.9921350
786.8935, 1.092903
787.3756, 1.044858
787.8577, 0.9437000
788.3398, 0.8596170
788.8220, 0.7969020
789.3040, 0.7964140
789.7861, 0.9800910
790.2682, 1.049580
790.7504, 0.8646920
791.2325, 0.6687150
791.7146, 0.6289880
792.1967, 0.6998560
792.6788, 0.7666160
793.1609, 0.7912050
793.6431, 0.7791480
794.1252, 0.7169520
794.6073, 0.6288590
795.0894, 0.5416570
795.5715, 0.4658580
796.0536, 0.4612420
796.5358, 0.5555560
797.0179, 0.6986730
797.5000, 0.8320830
797.9821, 0.9590320
798.4642, 0.9979760
798.9464, 0.8840110
799.4285, 0.7998000
799.9106, 0.8555500
800.3927, 0.9053320
800.8748, 0.8056970
801.3569, 0.5919860
801.8391, 0.4504400
802.3212, 0.4560780
802.8033, 0.5045330
803.2854, 0.5975760
803.7675, 0.6697910
804.2496, 0.6103910
804.7318, 0.4498730
805.2139, 0.3213980
805.6960, 0.2933430
806.1781, 0.3249100
806.6602, 0.3497500
807.1423, 0.3669340
807.6245, 0.3875880
808.1066, 0.4170700
808.5887, 0.4171240
809.0708, 0.3521520
809.5529, 0.2756170
810.0350, 0.2716610
810.5172, 0.3528380
810.9993, 0.4110660
811.4814, 0.4460510
811.9635, 0.4732880
812.4456, 0.5000870
812.9277, 0.5182950
813.4099, 0.5229570
813.8920, 0.5105110
814.3741, 0.4664040
814.8562, 0.3623110
815.3383, 0.2697980
815.8204, 0.2920850
816.3026, 0.3756100
816.7847, 0.3892350
817.2668, 0.3264360
817.7489, 0.2880550
818.2310, 0.3366770
818.7131, 0.4114210
819.1953, 0.3757370
819.6774, 0.2211640
820.1595, 0.1318680
820.6416, 0.1210340
821.1237, 0.1476020
821.6058, 0.2372110
822.0880, 0.3281120
822.5701, 0.3379000
823.0522, 0.2696520
823.5343, 0.2327480
824.0164, 0.2991260
824.4985, 0.3407420
824.9807, 0.2732490
825.4628, 0.1704230
825.9449, 0.1313660
826.4270, 0.1435070
826.9091, 9.8227002E-02
827.3912, 8.3736002E-02
827.8734, 0.2626650
828.3555, 0.1936940
828.8376, 5.3863999E-02
829.3197, 0.1800610
829.8018, 0.1577230
830.2839, 0.1206880
830.7661, 0.1353720
831.2482, 0.1697160
831.7303, 0.1763240
832.2124, 0.1597710
832.6945, 7.9510003E-02
833.1766, 0.1671810
833.6588, 0.3268270
834.1409, 0.2860710
834.6230, 0.1867440
835.1051, 0.1507610
835.5872, 0.1659980
836.0693, 0.1366940
836.5515, 5.5700000E-03
837.0336, 0.1301820
837.5157, 0.2176800
837.9978, 0.2818390
838.4799, 0.3796880
838.9620, 0.4834320
839.4442, 0.4747630
839.9263, 0.2969980
840.4084, 9.4149001E-02
840.8905, 8.2362004E-02
841.3726, 0.2262440
841.8547, 0.3243100
842.3369, 0.3711190
842.8190, 0.4058170
843.3011, 0.4449270
843.7832, 0.4689520
844.2653, 0.4554820
844.7474, 0.4048770
845.2296, 0.3311740
845.7117, 0.1385220
846.1938, 6.6900998E-02
846.6759, 0.2527140
847.1580, 0.4521700
847.6401, 0.4939340
848.1223, 0.4348440
848.6044, 0.4249450
849.0865, 0.5144130
849.5686, 0.5995880
850.0507, 0.5845580
850.5328, 0.5702690
851.0150, 0.6871710
851.4971, 0.8852940
851.9792, 1.029301
852.4613, 1.082167
852.9434, 1.127472
853.4255, 1.248111
853.9077, 1.421704
854.3898, 1.593945
854.8719, 1.765150
855.3540, 1.848031
855.8361, 1.800229
856.3182, 1.773453
856.8004, 1.895582
857.2825, 2.113326
857.7646, 2.250358
858.2467, 2.219903
858.7288, 2.297968
859.2109, 2.574119
859.6931, 2.849382
860.1752, 3.075844
860.6573, 3.252113
861.1394, 3.341593
861.6215, 3.352681
862.1036, 3.455418
862.5858, 3.794543
863.0679, 4.167233
863.5500, 4.429102
864.0321, 4.640974
864.5142, 4.898232
864.9963, 5.198932
865.4785, 5.448234
865.9606, 5.581356
866.4427, 5.715115
866.9248, 6.063639
867.4069, 6.578731
867.8890, 7.001112
868.3712, 7.312756
868.8533, 7.612377
869.3354, 7.935184
869.8175, 8.284455
870.2996, 8.658679
870.7817, 9.058348
871.2639, 9.516719
871.7459, 10.11879
872.2280, 10.62972
872.7101, 10.94075
873.1923, 11.21243
873.6744, 11.54191
874.1565, 11.90501
874.6386, 12.24726
875.1207, 12.56865
875.6028, 12.83388
876.0850, 12.94694
876.5671, 13.07842
877.0492, 13.44312
877.5313, 13.88191
878.0134, 14.11294
878.4955, 14.08108
878.9777, 13.94843
879.4598, 13.80633
879.9419, 13.67039
880.4240, 13.61346
880.9061, 13.58812
881.3882, 13.41272
881.8704, 13.06213
882.3525, 12.62745
882.8346, 12.16483
883.3167, 11.66397
883.7988, 11.08320
884.2809, 10.39196
884.7631, 9.856513
885.2452, 9.523163
885.7273, 9.202566
886.2094, 8.880656
886.6915, 8.533138
887.1736, 8.087090
887.6558, 7.550303
888.1379, 7.050956
888.6200, 6.584316
889.1021, 6.173913
889.5842, 5.843834
890.0663, 5.549071
890.5485, 5.270917
891.0306, 4.991088
891.5127, 4.698072
891.9948, 4.397676
892.4769, 4.134748
892.9590, 3.960836
893.4412, 3.805154
893.9233, 3.601062
894.4054, 3.366259
894.8875, 3.108924
895.3696, 2.845272
895.8517, 2.649078
896.3339, 2.590801
896.8160, 2.583458
897.2981, 2.428626
897.7802, 2.147038
898.2623, 1.952667
898.7444, 1.873576
899.2266, 1.784787
899.7087, 1.621816
900.1908, 1.428612
900.6729, 1.262170
901.1550, 1.120683
901.6371, 1.057474
902.1193, 1.085100
902.6014, 1.148171
903.0835, 1.338312
903.5656, 1.476745
904.0477, 1.413516
904.5298, 1.211820
905.0120, 1.021152
905.4941, 0.8353630
905.9762, 0.7250030
906.4583, 0.7626030
906.9404, 0.8219370
907.4225, 0.8621760
907.9047, 0.8600250
908.3868, 0.7646370
908.8689, 0.5875880
909.3510, 0.4360250
909.8331, 0.3743900
910.3152, 0.3662190
910.7974, 0.3824230
911.2795, 0.4201060
911.7616, 0.4890780
912.2437, 0.5786810
912.7258, 0.6430230
913.2079, 0.6599450
913.6901, 0.6530800
914.1722, 0.6664030
914.6543, 0.6862140
915.1364, 0.6032930
915.6185, 0.4107450
916.1006, 0.2912250
916.5828, 0.2979330
917.0649, 0.3546920
917.5470, 0.4091150
918.0291, 0.4541460
918.5112, 0.4642280
918.9933, 0.4322820
919.4755, 0.3833390
919.9576, 0.3000320
920.4397, 0.2239890
920.9218, 0.1575420
921.4039, 0.1163250
921.8860, 0.1318300
922.3682, 0.2008850
922.8503, 0.2479750
923.3324, 0.2429470
923.8145, 0.2422020
924.2966, 0.2925500
924.7787, 0.3244960
925.2609, 0.2467090
925.7430, 0.1162450
926.2251, 6.7707002E-02
926.7072, 0.1436030
927.1893, 0.2163730
927.6714, 0.1969540
928.1536, 0.1360300
928.6357, 4.0522002E-02
929.1178, 4.0854000E-02
929.5999, 1.8681999E-02
930.0820, 0.2046650
930.5641, 0.3314260
931.0463, 0.2729750
931.5284, 0.1429230
932.0105, 0.1247390
932.4926, 0.1912960
932.9747, 0.2317510
933.4568, 0.2397730
933.9390, 0.2253480
934.4211, 0.1918860
934.9032, 0.1410980
935.3853, 6.8802997E-02
935.8674, 1.5429000E-02
936.3495, 5.4203998E-02
936.8317, 4.0290002E-02
937.3138, 1.4980000E-02
937.7959, 1.3517000E-02
938.2780, 6.5462999E-02
938.7601, 0.1760340
939.2422, 0.2976230
939.7244, 0.3466080
940.2065, 0.3158980
940.6886, 0.2502080
941.1707, 9.8297000E-02
941.6528, 1.6065000E-02
942.1349, 6.1625000E-02
942.6171, 7.0586003E-02
943.0992, 3.8587999E-02
943.5813, 8.1080003E-03
944.0634, 3.7769999E-03
944.5455, 0.1165100
945.0276, 0.1797750
945.5098, 9.9776000E-02
945.9919, 3.5190000E-03
946.4740, 6.1712999E-02
946.9561, 8.7494001E-02
947.4382, 0.1002130
947.9203, 0.1051960
948.4025, 0.1034300
948.8846, 9.4641998E-02
949.3667, 7.9891004E-02
949.8488, 5.5813000E-02
950.3309, 2.8664000E-02
950.8130, 2.8840001E-03
951.2952, 2.7489999E-02
951.7773, 1.4960000E-03
952.2594, 8.4114999E-02
952.7415, 0.1591780
953.2236, 0.1467750
953.7057, 8.8304996E-02
954.1878, 8.9919999E-02
954.6699, 0.1416210
955.1520, 0.1789200
955.6342, 0.1926390
956.1163, 0.1914300
956.5984, 0.1796780
957.0805, 0.1594350
957.5626, 0.1358680
958.0447, 0.1084430
958.5269, 3.9981000E-02
959.0090, 0.1019590
959.4911, 0.1346730
959.9732, 2.2775000E-02
960.4553, 0.2029400
960.9374, 0.2883630
961.4196, 0.2987260
961.9017, 0.2853260
962.3838, 0.2370570
962.8659, 0.1979030
963.3480, 0.1532600
963.8301, 0.1381710
964.3123, 0.1959180
964.7944, 0.2582310
965.2765, 0.2464550
965.7586, 0.1840410
966.2407, 0.1874450
966.7228, 0.3411660
967.2050, 0.4153310
967.6871, 0.2682460
968.1692, 0.1294420
968.6513, 0.1639820
969.1334, 0.2684530
969.6155, 0.2867100
970.0977, 0.2110640
970.5798, 0.1661930
971.0619, 0.2477350
971.5440, 0.3087760
972.0261, 0.1977330
972.5082, 6.4466000E-02
972.9904, 8.8335000E-02
973.4725, 0.2214340
973.9546, 0.3288990
974.4367, 0.3708940
974.9188, 0.3941030
975.4009, 0.4412930
975.8831, 0.4812500
976.3652, 0.4475210
976.8473, 0.3831700
977.3294, 0.3925430
977.8115, 0.4729430
978.2936, 0.5431190
978.7758, 0.5639180
979.2579, 0.5539210
979.7400, 0.5379860
980.2221, 0.5121940
980.7042, 0.4409580
981.1863, 0.3353950
981.6685, 0.2821640
982.1506, 0.3025740
982.6327, 0.3801170
983.1148, 0.5327840
983.5969, 0.6801180
984.0790, 0.6401440
984.5612, 0.4135310
985.0433, 0.3020450
985.5254, 0.3331690
986.0075, 0.3257510
986.4896, 0.2102150
986.9717, 0.1261150
987.4539, 0.1981800
987.9360, 0.3819700
988.4181, 0.5516300
988.9002, 0.7329830
989.3823, 0.8076710
989.8644, 0.7128770
990.3466, 0.6473860
990.8287, 0.6924720
991.3108, 0.7685700
991.7929, 0.8029560
992.2750, 0.7924870
992.7571, 0.7628260
993.2393, 0.6954670
993.7214, 0.6637800
994.2035, 0.7230630
994.6856, 0.7493920
995.1677, 0.6651450
995.6498, 0.5543340
996.1320, 0.4934630
996.6141, 0.4881450
997.0962, 0.5405790
997.5783, 0.7195270
998.0604, 0.8460070
998.5425, 0.8080100
999.0247, 0.7625470
999.5068, 0.8501420
999.9889, 0.9852970
1000.471, 1.038113
1000.953, 0.9969220
1001.435, 0.9398590
1001.917, 0.8851210
1002.399, 0.8339270
1002.882, 0.7895080
1003.364, 0.7646630
1003.846, 0.7830140
1004.328, 0.8102510
1004.810, 0.7733380
1005.292, 0.6651370
1005.774, 0.5925860
1006.256, 0.6296150
1006.739, 0.7229860
1007.221, 0.8809920
1007.703, 1.025056
1008.185, 1.022141
1008.667, 0.9049440
1009.149, 0.7844300
1009.631, 0.7040860
1010.113, 0.6589460
1010.595, 0.6582240
1011.078, 0.6782890
1011.560, 0.6715940
1012.042, 0.6593580
1012.524, 0.7093770
1013.006, 0.8110690
1013.488, 0.8802990
1013.970, 0.8812350
1014.452, 0.8536420
1014.935, 0.8402170
1015.417, 0.8305360
1015.899, 0.7872510
1016.381, 0.7256750
1016.863, 0.7280180
1017.345, 0.8014320
1017.827, 0.8442610
1018.309, 0.7900710
1018.791, 0.7091560
1019.274, 0.7017720
1019.756, 0.7501630
1020.238, 0.7636670
1020.720, 0.7448380
1021.202, 0.7741830
1021.684, 0.8722790
1022.166, 0.8837830
1022.648, 0.7003780
1023.130, 0.4612430
1023.613, 0.3978140
1024.095, 0.5003260
1024.577, 0.5988260
1025.059, 0.7018470
1025.541, 0.6883160
1026.023, 0.4958270
1026.505, 0.3809760
1026.987, 0.5385810
1027.469, 0.7926480
1027.952, 0.7989480
1028.434, 0.5426690
1028.916, 0.4237790
1029.398, 0.4841600
1029.880, 0.5385500
1030.362, 0.5660400
1030.844, 0.5453780
1031.326, 0.4360940
1031.809, 0.2986540
1032.291, 0.2596430
1032.773, 0.3316110
1033.255, 0.4038040
1033.737, 0.5133060
1034.219, 0.5341070
1034.701, 0.3857190
1035.183, 0.2281960
1035.666, 0.1477420
1036.148, 0.1420370
1036.630, 0.2267780
1037.112, 0.4383280
1037.594, 0.5316160
1038.076, 0.4525380
1038.558, 0.3350900
1039.040, 9.1453001E-02
1039.522, 6.3693002E-02
1040.005, 0.1252370
1040.487, 0.4644720
1040.969, 0.5113440
1041.451, 0.1835900
1041.933, 3.9980002E-03
1042.415, 0.1271580
1042.897, 0.1945740
1043.379, 6.9410004E-02
1043.861, 6.1292000E-02
1044.344, 7.8354999E-02
1044.826, 1.4999000E-02
1045.308, 8.5628003E-02
1045.790, 0.2433070
1046.272, 0.2802590
1046.754, 5.9114002E-02
1047.236, 0.1273850
1047.718, 0.1609280
1048.201, 0.1482910
1048.683, 0.1577750
1049.165, 0.1543410
1049.647, 2.8343000E-02
1050.129, 0.2532870
1050.611, 0.3887780
1051.093, 0.1559020
1051.575, 1.7370000E-03
1052.057, 0.1331910
1052.540, 0.3011880
1053.022, 0.2982520
1053.504, 0.1937590
1053.986, 0.1425590
1054.468, 0.1688970
1054.950, 0.1651330
1055.432, 2.5764000E-02
1055.914, 4.5811001E-02
1056.396, 9.9598996E-02
1056.879, 0.2617650
1057.361, 0.2729510
1057.843, 0.2006470
1058.325, 0.1716050
1058.807, 0.2057930
1059.289, 0.2633140
1059.771, 0.3818250
1060.253, 0.4485800
1060.736, 0.3664020
1061.218, 0.2708720
1061.700, 0.2670630
1062.182, 0.3194050
1062.664, 0.3753640
1063.146, 0.4213950
1063.628, 0.4329380
1064.110, 0.3511740
1064.593, 0.2939930
1065.075, 0.3535740
1065.557, 0.4174170
1066.039, 0.3740810
1066.521, 0.2972130
1067.003, 0.3039620
1067.485, 0.4039530
1067.967, 0.4672220
1068.449, 0.4060720
1068.932, 0.3585460
1069.414, 0.3972160
1069.896, 0.4685560
1070.378, 0.5692540
1070.860, 0.6547780
1071.342, 0.6343970
1071.824, 0.5143220
1072.306, 0.4481980
1072.788, 0.6014440
1073.271, 0.7228810
1073.753, 0.6361180
1074.235, 0.5363060
1074.717, 0.5144310
1075.199, 0.5678370
1075.681, 0.6156540
1076.163, 0.6008640
1076.645, 0.5718500
1077.127, 0.5877080
1077.610, 0.6133690
1078.092, 0.5603580
1078.574, 0.4578230
1079.056, 0.3157770
1079.538, 0.2048800
1080.020, 0.3058930
1080.502, 0.5230920
1080.984, 0.6323620
1081.467, 0.4985030
1081.949, 0.3650530
1082.431, 0.3519570
1082.913, 0.3852140
1083.395, 0.4293400
1083.877, 0.4829080
1084.359, 0.5314370
1084.841, 0.5715050
1085.323, 0.6318630
1085.806, 0.7140690
1086.288, 0.7894340
1086.770, 0.8839570
1087.252, 0.9188330
1087.734, 0.8288970
1088.216, 0.7052330
1088.698, 0.6326500
1089.180, 0.5963970
1089.662, 0.4937100
1090.145, 0.3080310
1090.627, 0.1964860
1091.109, 0.2361220
1091.591, 0.3409880
1092.073, 0.5850010
1092.555, 0.7545390
1093.037, 0.6398120
1093.519, 0.3626730
1094.002, 0.1412750
1094.484, 2.4507999E-02
1094.966, 5.5025000E-02
1095.448, 0.4309730
1095.930, 0.6866020
1096.412, 0.5707930
1096.894, 0.3847560
1097.376, 0.2641200
1097.859, 0.2073760
1098.341, 0.2909160
1098.823, 0.4926010
1099.305, 0.5461670
1099.787, 0.2622910
1100.269, 6.5975003E-02
1100.751, 8.7325998E-02
1101.233, 0.1607820
1101.715, 0.2971690
1102.198, 0.4086110
1102.680, 0.2911340
1103.162, 2.8252000E-02
1103.644, 3.0100001E-03
1104.126, 0.2492600
1104.608, 0.0000000E+00
##END=



