##NAMES=Reevesite
##RRUFFID=R070678
##IDEAL CHEMISTRY=Ni^2+^_6_Fe^3+^_2_C^4+^O_3_(OH)_16_&#183;4H_2_O
##LOCALITY=Otway Prospect, Nullagine Region, Western Australia, Australia
##OWNER=RRUFF
##SOURCE=Michael Scott
##DESCRIPTION=Massive, golden-brown veinlet; associated with chrysotile/serpentine 
##STATUS=The identification of this mineral is not yet confirmed.
##URL=rruff.info/R070678
158.1304, 0.0000000E+00
158.6125, 0.5029300
159.0946, 9.2772998E-02
159.5768, 4.862793
160.0589, 13.20752
160.5410, 20.45312
161.0231, 14.52393
161.5052, 10.49316
161.9873, 23.08252
162.4695, 82.51562
162.9516, 138.7915
163.4337, 168.9556
163.9158, 170.5234
164.3979, 156.3345
164.8800, 116.0444
165.3622, 65.33545
165.8443, 29.56250
166.3264, 26.11328
166.8085, 37.44238
167.2906, 53.17920
167.7727, 74.39893
168.2549, 92.83545
168.7370, 99.80957
169.2191, 99.09863
169.7012, 101.6670
170.1833, 121.9648
170.6654, 145.5430
171.1476, 156.1582
171.6297, 140.7363
172.1118, 121.2949
172.5939, 120.2485
173.0760, 135.0801
173.5581, 145.3501
174.0403, 127.8003
174.5224, 96.97119
175.0045, 77.20557
175.4866, 85.21045
175.9687, 105.4360
176.4508, 120.6631
176.9330, 130.7847
177.4151, 139.4863
177.8972, 151.6602
178.3793, 165.6812
178.8614, 175.9976
179.3435, 174.6274
179.8257, 169.2319
180.3078, 175.8247
180.7899, 198.4448
181.2720, 220.9971
181.7541, 223.3276
182.2362, 207.7808
182.7184, 187.6831
183.2005, 162.1118
183.6826, 137.4492
184.1647, 133.5464
184.6468, 159.4766
185.1289, 196.7070
185.6111, 217.4102
186.0932, 221.9717
186.5753, 216.0181
187.0574, 189.5054
187.5395, 150.4907
188.0216, 142.0645
188.5037, 191.6382
188.9859, 272.3237
189.4680, 303.1504
189.9501, 264.7983
190.4322, 211.9146
190.9143, 192.4985
191.3964, 203.7524
191.8786, 212.7812
192.3607, 205.1792
192.8428, 182.7578
193.3249, 160.4028
193.8070, 136.4497
194.2891, 120.4883
194.7713, 131.8818
195.2534, 174.1729
195.7355, 216.2183
196.2176, 242.8320
196.6997, 255.6211
197.1818, 262.2202
197.6640, 265.8032
198.1461, 268.9243
198.6282, 261.3691
199.1103, 239.5098
199.5924, 219.7061
200.0745, 206.8579
200.5567, 201.9038
201.0388, 208.0249
201.5209, 224.7891
202.0030, 244.7524
202.4851, 234.9214
202.9672, 186.0830
203.4494, 141.3081
203.9315, 136.6050
204.4136, 179.4346
204.8957, 205.8345
205.3778, 204.1016
205.8599, 180.3652
206.3421, 163.5420
206.8242, 153.9893
207.3063, 149.3550
207.7884, 151.1172
208.2705, 164.7026
208.7526, 162.5820
209.2348, 131.1704
209.7169, 72.66797
210.1990, 40.25586
210.6811, 41.73486
211.1632, 57.10889
211.6453, 63.70508
212.1275, 57.68750
212.6096, 55.37939
213.0917, 64.33447
213.5738, 87.01318
214.0559, 92.56543
214.5380, 71.40625
215.0202, 41.87109
215.5023, 35.34717
215.9844, 64.41455
216.4665, 88.98828
216.9486, 94.06006
217.4307, 75.02686
217.9129, 55.50244
218.3950, 35.03662
218.8771, 14.76367
219.3592, 5.111328
219.8413, 29.81201
220.3234, 44.40771
220.8056, 39.06152
221.2877, 2.042480
221.7698, 22.28223
222.2519, 29.76855
222.7340, 24.46777
223.2161, 19.68848
223.6983, 15.90088
224.1804, 11.72998
224.6625, 5.801758
225.1446, 4.400391
225.6267, 10.51074
226.1088, 11.23975
226.5910, 7.320801
227.0731, 2.708008
227.5552, 3.354980
228.0373, 9.098145
228.5194, 12.50049
229.0015, 10.21533
229.4836, 13.68115
229.9658, 29.56982
230.4479, 56.52783
230.9300, 63.12598
231.4121, 38.01807
231.8942, 5.117676
232.3763, 14.49219
232.8585, 16.05322
233.3406, 13.06641
233.8227, 6.270508
234.3048, 4.784668
234.7869, 12.45215
235.2690, 17.88232
235.7512, 18.96338
236.2333, 12.44238
236.7154, 7.366699
237.1975, 24.84424
237.6796, 39.12939
238.1617, 52.17773
238.6439, 46.33789
239.1260, 8.067871
239.6081, 39.45850
240.0902, 63.75488
240.5723, 54.09082
241.0544, 38.83447
241.5366, 25.19287
242.0187, 13.20947
242.5008, 2.125977
242.9829, 10.91113
243.4650, 21.60303
243.9471, 21.56006
244.4293, 4.951172
244.9114, 12.99902
245.3935, 25.69092
245.8756, 28.01562
246.3577, 41.19336
246.8398, 75.50830
247.3220, 116.6802
247.8041, 131.1724
248.2862, 103.8799
248.7683, 72.26514
249.2504, 51.37402
249.7325, 40.62012
250.2147, 41.90039
250.6968, 61.05322
251.1789, 91.09229
251.6610, 112.6689
252.1431, 127.9922
252.6252, 131.7681
253.1074, 118.5493
253.5895, 76.29883
254.0716, 46.97266
254.5537, 36.18506
255.0358, 39.62402
255.5179, 40.69629
256.0001, 34.36328
256.4822, 33.21826
256.9643, 48.57227
257.4464, 95.08447
257.9285, 119.2944
258.4106, 107.7031
258.8928, 69.33936
259.3749, 52.04932
259.8570, 60.99268
260.3391, 82.35889
260.8212, 111.6304
261.3033, 160.2949
261.7855, 182.4761
262.2676, 162.7373
262.7497, 109.8477
263.2318, 81.46289
263.7139, 87.07031
264.1960, 101.5200
264.6782, 105.3745
265.1603, 94.42188
265.6424, 84.85059
266.1245, 77.98340
266.6066, 74.22852
267.0887, 78.53613
267.5709, 96.36719
268.0530, 112.2285
268.5351, 108.8115
269.0172, 78.10352
269.4993, 58.76465
269.9814, 60.28564
270.4636, 80.68359
270.9457, 100.3530
271.4278, 121.8350
271.9099, 137.3926
272.3920, 136.6489
272.8741, 115.6289
273.3563, 95.77246
273.8384, 78.54932
274.3205, 65.10596
274.8026, 73.73584
275.2847, 112.0796
275.7668, 153.6841
276.2490, 167.5781
276.7311, 149.4795
277.2132, 131.7856
277.6953, 120.6655
278.1774, 115.9893
278.6595, 116.6777
279.1417, 125.4741
279.6238, 137.5259
280.1059, 152.8403
280.5880, 172.5972
281.0701, 180.6089
281.5522, 165.4224
282.0344, 132.3853
282.5165, 122.6597
282.9986, 141.2812
283.4807, 164.3174
283.9628, 160.2085
284.4449, 128.8433
284.9271, 105.6558
285.4092, 105.8931
285.8913, 124.5396
286.3734, 134.4897
286.8555, 134.1860
287.3376, 130.5732
287.8198, 132.4653
288.3019, 139.4575
288.7840, 145.1997
289.2661, 147.9043
289.7482, 147.3481
290.2303, 141.4722
290.7124, 130.4971
291.1945, 118.0371
291.6767, 105.2554
292.1588, 93.11084
292.6409, 88.47119
293.1230, 97.99951
293.6051, 116.8169
294.0872, 130.8735
294.5694, 139.6479
295.0515, 143.9565
295.5336, 146.4268
296.0157, 146.5117
296.4978, 142.3428
296.9799, 125.2681
297.4621, 105.0942
297.9442, 113.3936
298.4263, 152.5352
298.9084, 189.2422
299.3905, 182.7051
299.8727, 144.9023
300.3548, 109.9521
300.8369, 90.63037
301.3190, 83.15283
301.8011, 84.99951
302.2832, 97.55176
302.7654, 112.0283
303.2475, 122.3286
303.7296, 128.7905
304.2117, 132.6846
304.6938, 127.5020
305.1759, 123.1558
305.6581, 135.2617
306.1402, 164.6309
306.6223, 191.2676
307.1044, 201.8291
307.5865, 198.8550
308.0686, 186.4883
308.5508, 153.7451
309.0329, 120.2056
309.5150, 103.9746
309.9971, 105.3140
310.4792, 115.0029
310.9613, 140.6641
311.4435, 167.6074
311.9256, 175.3105
312.4077, 130.6138
312.8898, 83.53955
313.3719, 67.67773
313.8540, 84.49170
314.3362, 107.2773
314.8183, 132.3013
315.3004, 153.2046
315.7825, 162.5396
316.2646, 138.3521
316.7467, 118.6738
317.2289, 127.8213
317.7110, 166.5405
318.1931, 196.4302
318.6752, 197.8989
319.1573, 185.7559
319.6394, 173.7114
320.1216, 169.1250
320.6037, 162.4385
321.0858, 145.0854
321.5679, 118.0874
322.0500, 101.4546
322.5321, 107.5405
323.0143, 121.3965
323.4964, 130.3623
323.9785, 120.8765
324.4606, 118.0957
324.9427, 133.0137
325.4248, 165.2700
325.9070, 184.0532
326.3891, 173.6968
326.8712, 156.3027
327.3533, 145.6851
327.8354, 150.6392
328.3175, 154.6567
328.7997, 154.5068
329.2818, 151.1675
329.7639, 152.3062
330.2460, 169.8491
330.7281, 183.3501
331.2102, 179.4185
331.6924, 138.3076
332.1745, 111.4165
332.6566, 108.9585
333.1387, 125.4189
333.6208, 125.0820
334.1029, 93.65283
334.5851, 64.52588
335.0672, 59.04297
335.5493, 86.66797
336.0314, 116.6133
336.5135, 153.7900
336.9956, 190.9351
337.4778, 197.7793
337.9599, 162.3369
338.4420, 121.9819
338.9241, 95.22021
339.4062, 82.49463
339.8883, 86.58252
340.3705, 114.4561
340.8526, 154.3857
341.3347, 178.6641
341.8168, 186.5708
342.2989, 181.7231
342.7810, 156.5776
343.2632, 110.6284
343.7453, 93.14990
344.2274, 114.0352
344.7095, 153.1392
345.1916, 176.6191
345.6737, 184.4116
346.1559, 182.6855
346.6380, 168.1006
347.1201, 144.9854
347.6022, 138.2368
348.0843, 153.0186
348.5664, 174.4888
349.0486, 178.8828
349.5307, 169.5474
350.0128, 165.5781
350.4949, 182.8081
350.9770, 210.5225
351.4591, 227.2812
351.9413, 231.7778
352.4234, 227.6060
352.9055, 208.8213
353.3876, 182.3369
353.8697, 167.6958
354.3518, 191.7578
354.8340, 224.9194
355.3161, 227.8198
355.7982, 198.3623
356.2803, 169.1860
356.7624, 172.3789
357.2445, 193.0259
357.7267, 207.3574
358.2088, 197.6797
358.6909, 184.4072
359.1730, 183.1763
359.6551, 194.1763
360.1372, 204.8687
360.6194, 205.1333
361.1015, 199.5449
361.5836, 194.6240
362.0657, 195.0776
362.5478, 197.6812
363.0299, 202.9951
363.5121, 211.3794
363.9942, 218.9497
364.4763, 224.7217
364.9584, 227.9966
365.4405, 228.0928
365.9226, 174.5884
366.4048, 220.4316
366.8869, 245.4277
367.3690, 250.6729
367.8511, 177.1992
368.3332, 205.4053
368.8153, 192.8848
369.2975, 178.5537
369.7796, 220.8789
370.2617, 158.8848
370.7438, 200.6826
371.2259, 201.4028
371.7080, 221.1230
372.1902, 199.6123
372.6722, 190.2119
373.1544, 221.6577
373.6365, 230.3745
374.1186, 203.3955
374.6007, 223.2744
375.0828, 159.3398
375.5649, 169.3579
376.0471, 211.5601
376.5292, 186.8169
377.0113, 207.3135
377.4934, 211.1172
377.9755, 137.9023
378.4576, 201.9331
378.9398, 204.0493
379.4219, 145.0122
379.9040, 201.4263
380.3861, 150.6689
380.8682, 138.1802
381.3503, 154.4443
381.8325, 140.6543
382.3146, 174.1226
382.7967, 162.0044
383.2788, 145.7769
383.7609, 147.2847
384.2430, 98.39648
384.7252, 142.8931
385.2073, 123.5356
385.6894, 135.8643
386.1715, 155.3452
386.6536, 119.7358
387.1357, 142.3745
387.6179, 74.58936
388.1000, 82.39062
388.5821, 82.00537
389.0642, 129.9204
389.5463, 62.41162
390.0284, 67.85547
390.5106, 104.3628
390.9927, 97.35352
391.4748, 66.14844
391.9569, 58.47461
392.4390, 78.71533
392.9211, 98.15674
393.4033, 103.2051
393.8854, 96.60303
394.3675, 84.51807
394.8496, 53.94580
395.3317, 30.11035
395.8138, 28.91455
396.2960, 59.50684
396.7781, 82.45605
397.2602, 84.88477
397.7423, 76.09814
398.2244, 68.12891
398.7065, 64.93652
399.1887, 60.10645
399.6708, 48.62891
400.1529, 28.45459
400.6350, 22.43701
401.1171, 42.17773
401.5992, 67.68457
402.0814, 83.27051
402.5635, 92.83301
403.0456, 84.29004
403.5277, 44.51611
404.0098, 18.41650
404.4919, 43.40723
404.9741, 14.15820
405.4562, 21.96094
405.9383, 29.82568
406.4204, 4.398926
406.9025, 14.52148
407.3846, 22.39258
407.8668, 22.43799
408.3489, 21.42578
408.8310, 19.38965
409.3131, 16.69971
409.7952, 16.03955
410.2773, 15.89893
410.7595, 3.679199
411.2416, 24.99170
411.7237, 51.92480
412.2058, 44.95312
412.6879, 11.77979
413.1700, 11.83252
413.6522, 4.917480
414.1343, 36.21582
414.6164, 37.13965
415.0985, 6.005859
415.5806, 25.53369
416.0627, 27.77539
416.5449, 14.08984
417.0270, 5.469238
417.5091, 23.01807
417.9912, 36.41602
418.4733, 12.78662
418.9554, 40.11279
419.4376, 75.50195
419.9197, 56.02783
420.4018, 17.33301
420.8839, 13.28613
421.3660, 30.45752
421.8481, 38.47949
422.3303, 40.23584
422.8124, 34.14844
423.2945, 16.03760
423.7766, 42.21387
424.2587, 89.74805
424.7408, 102.8892
425.2230, 57.65430
425.7051, 28.13916
426.1872, 24.82861
426.6693, 33.21631
427.1514, 32.86475
427.6335, 17.07812
428.1157, 3.227051
428.5978, 4.254395
429.0799, 5.578613
429.5620, 0.2324220
430.0441, 14.65088
430.5262, 30.90234
431.0084, 42.59521
431.4905, 50.63672
431.9726, 47.76025
432.4547, 28.06934
432.9368, 0.9316410
433.4189, 10.68506
433.9011, 0.4262700
434.3832, 9.970703
434.8653, 8.280762
435.3474, 43.99658
435.8295, 46.09375
436.3116, 1.342773
436.7938, 60.60303
437.2759, 76.78516
437.7580, 60.36523
438.2401, 45.27783
438.7222, 52.15088
439.2043, 69.81494
439.6865, 88.17871
440.1686, 107.8438
440.6507, 117.0806
441.1328, 97.26855
441.6149, 64.88037
442.0970, 41.32275
442.5792, 43.33154
443.0613, 49.36816
443.5434, 48.03125
444.0255, 40.41895
444.5076, 38.32910
444.9897, 51.41553
445.4719, 67.43555
445.9540, 80.24756
446.4361, 85.56494
446.9182, 92.19873
447.4003, 103.1743
447.8824, 115.7954
448.3646, 120.7153
448.8467, 118.5947
449.3288, 106.0454
449.8109, 76.81543
450.2930, 19.73730
450.7751, 1.740723
451.2573, 30.23730
451.7394, 77.33838
452.2215, 84.85254
452.7036, 40.89746
453.1857, 7.365723
453.6678, 1.936523
454.1500, 21.54248
454.6321, 52.21826
455.1142, 96.35791
455.5963, 132.7432
456.0784, 134.2568
456.5605, 108.8120
457.0426, 99.05469
457.5247, 117.4775
458.0069, 143.7017
458.4890, 145.9775
458.9711, 130.1807
459.4532, 119.5762
459.9353, 137.6655
460.4174, 163.5718
460.8996, 167.5918
461.3817, 143.1675
461.8638, 117.6431
462.3459, 117.6694
462.8280, 132.2280
463.3102, 141.0908
463.7923, 127.5518
464.2744, 111.0234
464.7565, 102.7778
465.2386, 102.5400
465.7207, 95.23145
466.2029, 61.35205
466.6850, 29.54688
467.1671, 17.54150
467.6492, 51.31104
468.1313, 75.06299
468.6134, 87.28711
469.0956, 90.35205
469.5777, 86.52197
470.0598, 69.98633
470.5419, 53.01318
471.0240, 36.11475
471.5061, 18.57129
471.9883, 32.63574
472.4704, 93.57080
472.9525, 155.2324
473.4346, 148.1172
473.9167, 69.33594
474.3988, 18.01172
474.8810, 30.70312
475.3631, 78.85645
475.8452, 84.07031
476.3273, 49.12207
476.8094, 13.95459
477.2915, 10.77686
477.7737, 26.83740
478.2558, 33.59424
478.7379, 23.45801
479.2200, 10.92432
479.7021, 12.33936
480.1842, 22.98682
480.6664, 31.58154
481.1485, 34.80908
481.6306, 34.15869
482.1127, 20.85303
482.5948, 6.538574
483.0769, 17.36182
483.5591, 23.26611
484.0412, 74.49463
484.5233, 100.1943
485.0054, 55.52197
485.4875, 25.56641
485.9696, 37.13965
486.4518, 78.69238
486.9339, 92.60205
487.4160, 44.29248
487.8981, 8.582520
488.3802, 24.52295
488.8623, 124.0083
489.3445, 163.0137
489.8266, 118.9834
490.3087, 43.78955
490.7908, 11.46338
491.2729, 26.88428
491.7550, 54.12402
492.2372, 90.69092
492.7193, 128.4556
493.2014, 128.8394
493.6835, 92.37109
494.1656, 58.18994
494.6477, 59.29834
495.1299, 82.66992
495.6120, 92.44189
496.0941, 77.51660
496.5762, 59.72998
497.0583, 65.45166
497.5404, 87.15088
498.0226, 105.3892
498.5047, 111.6328
498.9868, 110.4482
499.4689, 103.1021
499.9510, 89.33691
500.4331, 77.47705
500.9153, 73.09277
501.3974, 71.15332
501.8795, 67.26611
502.3616, 45.70557
502.8437, 39.18750
503.3258, 65.53223
503.8080, 113.9102
504.2901, 139.9810
504.7722, 125.4736
505.2543, 111.6094
505.7364, 115.5435
506.2185, 141.8145
506.7007, 166.0371
507.1828, 190.3057
507.6649, 209.7744
508.1470, 215.3750
508.6291, 205.4844
509.1112, 200.1367
509.5934, 206.5278
510.0755, 219.4355
510.5576, 221.3081
511.0397, 212.4619
511.5218, 208.9673
512.0039, 228.8721
512.4860, 260.7412
512.9681, 282.4097
513.4503, 288.9141
513.9324, 292.6426
514.4145, 310.1504
514.8966, 331.8037
515.3787, 340.2168
515.8608, 312.1611
516.3430, 282.9917
516.8251, 272.9478
517.3072, 281.8203
517.7893, 291.7690
518.2714, 291.6489
518.7535, 295.3389
519.2357, 312.0571
519.7178, 371.3779
520.1999, 403.9009
520.6820, 395.5938
521.1641, 364.7471
521.6462, 343.8301
522.1284, 328.4912
522.6105, 333.4751
523.0926, 372.8447
523.5747, 444.0225
524.0568, 484.2549
524.5389, 488.5601
525.0211, 479.6680
525.5032, 475.9131
525.9853, 476.7261
526.4674, 478.2036
526.9495, 478.5635
527.4316, 481.1260
527.9138, 494.9912
528.3959, 516.2446
528.8780, 531.6504
529.3601, 525.8672
529.8422, 515.4370
530.3243, 518.3535
530.8065, 536.2783
531.2886, 552.7397
531.7707, 553.0513
532.2528, 550.6133
532.7349, 558.1875
533.2170, 597.8921
533.6992, 626.3843
534.1813, 627.2720
534.6634, 609.4009
535.1455, 601.9663
535.6276, 610.6445
536.1097, 624.4243
536.5919, 642.9717
537.0740, 669.2280
537.5561, 677.1328
538.0382, 658.3691
538.5203, 636.3633
539.0024, 641.1484
539.4846, 675.1318
539.9667, 690.1504
540.4488, 669.3452
540.9309, 634.0049
541.4130, 630.7739
541.8951, 656.3579
542.3773, 684.0371
542.8594, 700.0181
543.3415, 707.3081
543.8236, 705.5728
544.3057, 693.6333
544.7878, 690.6006
545.2700, 718.0205
545.7521, 758.6973
546.2342, 793.1011
546.7163, 814.1304
547.1984, 828.3750
547.6805, 836.0806
548.1627, 838.1616
548.6448, 838.7295
549.1269, 835.8862
549.6090, 833.9512
550.0911, 835.2979
550.5732, 841.6733
551.0554, 842.9268
551.5375, 836.2236
552.0196, 828.3149
552.5017, 827.0576
552.9838, 834.2725
553.4659, 840.0889
553.9481, 841.6309
554.4302, 841.2544
554.9123, 848.2334
555.3944, 860.3921
555.8765, 864.9404
556.3586, 844.8086
556.8408, 814.0068
557.3229, 795.9424
557.8050, 791.7275
558.2871, 799.3193
558.7692, 834.4932
559.2513, 874.8530
559.7335, 890.3589
560.2156, 852.1201
560.6977, 815.0933
561.1798, 804.5835
561.6619, 812.1851
562.1440, 814.2549
562.6262, 797.7280
563.1083, 783.3252
563.5904, 778.7217
564.0725, 785.1641
564.5546, 791.6147
565.0367, 803.4951
565.5189, 808.5083
566.0010, 789.0679
566.4831, 736.7168
566.9652, 707.3008
567.4473, 713.6187
567.9294, 737.7490
568.4116, 745.7617
568.8937, 738.4907
569.3758, 729.3877
569.8579, 727.0977
570.3400, 726.2217
570.8221, 715.2183
571.3043, 694.8599
571.7864, 675.4707
572.2685, 667.7246
572.7506, 663.8535
573.2327, 656.1919
573.7148, 643.6636
574.1970, 626.7383
574.6791, 599.2539
575.1612, 567.7866
575.6433, 544.0469
576.1254, 525.0288
576.6075, 518.5879
577.0897, 530.4590
577.5718, 559.7573
578.0539, 582.6318
578.5360, 601.2383
579.0181, 609.2686
579.5002, 598.3481
579.9824, 566.7383
580.4645, 543.5029
580.9466, 531.6387
581.4287, 525.0967
581.9108, 516.7812
582.3929, 507.1733
582.8751, 496.0156
583.3572, 481.8574
583.8393, 467.3604
584.3214, 457.7119
584.8035, 451.3354
585.2856, 441.1743
585.7678, 420.6133
586.2499, 396.2456
586.7320, 372.0142
587.2141, 348.1382
587.6962, 326.7036
588.1783, 302.1494
588.6605, 283.2681
589.1426, 280.2163
589.6247, 312.9673
590.1068, 331.3247
590.5889, 327.8477
591.0710, 307.6499
591.5532, 283.6958
592.0353, 254.0566
592.5174, 228.2607
592.9995, 213.6201
593.4816, 207.7202
593.9637, 188.8560
594.4459, 155.2617
594.9280, 126.7505
595.4101, 127.9194
595.8922, 146.2446
596.3743, 156.0869
596.8564, 149.6035
597.3386, 139.8057
597.8207, 143.7217
598.3028, 151.2461
598.7849, 143.6411
599.2670, 87.29834
599.7491, 40.44678
600.2313, 33.91064
600.7134, 66.37158
601.1955, 81.94482
601.6776, 58.71533
602.1597, 35.14502
602.6418, 32.97363
603.1240, 64.70459
603.6061, 70.86719
604.0882, 40.47314
604.5703, 2.641113
605.0524, 2.848145
605.5345, 23.37598
606.0167, 48.96436
606.4988, 69.63916
606.9809, 80.68115
607.4630, 68.22461
607.9451, 36.98975
608.4272, 7.774414
608.9094, 2.321777
609.3915, 7.294922
609.8736, 22.48242
610.3557, 49.26709
610.8378, 69.72266
611.3199, 83.53027
611.8021, 83.70703
612.2842, 64.14600
612.7663, 9.069824
613.2484, 54.65820
613.7305, 54.42969
614.2126, 30.99512
614.6948, 24.36426
615.1769, 41.55518
615.6590, 54.92432
616.1411, 55.75293
616.6232, 46.91992
617.1053, 43.89160
617.5875, 47.14355
618.0696, 46.51270
618.5517, 23.40869
619.0338, 6.661621
619.5159, 1.741699
619.9980, 45.26953
620.4802, 89.31934
620.9623, 95.13721
621.4444, 76.72461
621.9265, 51.45215
622.4086, 14.16943
622.8907, 14.95312
623.3729, 24.36182
623.8550, 20.51416
624.3371, 19.95996
624.8192, 36.10791
625.3013, 41.56104
625.7834, 23.56445
626.2656, 16.63672
626.7477, 36.27100
627.2298, 30.16309
627.7119, 17.14844
628.1940, 7.809082
628.6761, 2.315430
629.1583, 6.965820
629.6404, 24.81494
630.1225, 40.52246
630.6046, 25.72852
631.0867, 3.575684
631.5688, 11.24951
632.0510, 30.50342
632.5331, 78.75732
633.0152, 105.8091
633.4973, 115.8154
633.9794, 120.2847
634.4615, 125.0659
634.9437, 123.5977
635.4258, 110.7710
635.9079, 84.86572
636.3900, 64.45166
636.8721, 52.23242
637.3542, 41.63135
637.8364, 23.73340
638.3185, 6.101074
638.8006, 7.357910
639.2827, 27.53076
639.7648, 77.40381
640.2469, 119.3511
640.7291, 152.7256
641.2112, 173.5625
641.6933, 177.1567
642.1754, 171.9849
642.6575, 162.5459
643.1396, 151.4888
643.6218, 147.9644
644.1039, 161.9810
644.5860, 179.9971
645.0681, 197.2095
645.5502, 213.5933
646.0323, 220.6030
646.5145, 202.2183
646.9966, 185.9688
647.4787, 189.8936
647.9608, 228.2910
648.4429, 245.1255
648.9250, 230.3945
649.4072, 208.4160
649.8893, 218.9175
650.3714, 260.0376
650.8535, 286.3535
651.3356, 282.0859
651.8177, 262.3521
652.2999, 247.2812
652.7820, 236.6885
653.2641, 231.1323
653.7462, 231.4048
654.2283, 236.1802
654.7104, 246.1860
655.1926, 261.3057
655.6747, 275.2129
656.1568, 294.7632
656.6389, 305.0552
657.1210, 293.1528
657.6031, 237.9458
658.0853, 216.7969
658.5674, 245.2344
659.0495, 289.2812
659.5316, 306.9609
660.0137, 295.9907
660.4958, 284.3511
660.9779, 276.1050
661.4600, 273.7441
661.9421, 283.4565
662.4243, 300.7905
662.9064, 312.5684
663.3885, 303.6792
663.8706, 293.7114
664.3527, 301.3989
664.8348, 325.5879
665.3170, 353.7080
665.7991, 397.0122
666.2812, 430.0586
666.7633, 434.1255
667.2454, 391.5884
667.7275, 367.7627
668.2097, 366.3237
668.6918, 377.2783
669.1739, 399.7578
669.6560, 441.4380
670.1381, 446.7993
670.6202, 400.0098
671.1024, 334.5674
671.5845, 308.0210
672.0666, 315.9712
672.5487, 337.0137
673.0308, 374.9292
673.5129, 410.2939
673.9951, 416.0107
674.4772, 399.9072
674.9593, 391.3174
675.4414, 417.1021
675.9235, 441.5850
676.4056, 444.1284
676.8878, 419.7944
677.3699, 396.4644
677.8520, 368.8916
678.3341, 351.0913
678.8162, 355.0249
679.2983, 385.8447
679.7805, 406.9336
680.2626, 417.1489
680.7447, 416.2773
681.2268, 400.1650
681.7089, 372.2285
682.1910, 343.3140
682.6732, 310.5972
683.1553, 289.3223
683.6374, 303.8042
684.1195, 340.4639
684.6016, 369.1538
685.0837, 376.2554
685.5659, 374.3550
686.0480, 363.2129
686.5301, 343.9102
687.0122, 335.4946
687.4943, 351.6846
687.9764, 363.2124
688.4586, 354.5312
688.9407, 323.8252
689.4228, 296.5986
689.9049, 273.8398
690.3870, 256.0815
690.8691, 241.3535
691.3513, 231.3042
691.8334, 239.9224
692.3155, 275.3125
692.7976, 302.6650
693.2797, 273.5000
693.7618, 217.6138
694.2440, 181.6255
694.7261, 198.8105
695.2082, 220.1748
695.6903, 229.1748
696.1724, 230.0054
696.6545, 235.9502
697.1367, 258.8638
697.6188, 269.0288
698.1009, 254.3701
698.5830, 219.0127
699.0651, 195.2896
699.5472, 184.7354
700.0294, 177.0879
700.5115, 162.1040
700.9936, 144.6445
701.4757, 139.3706
701.9578, 147.2559
702.4399, 157.6494
702.9221, 165.5635
703.4042, 170.4209
703.8863, 171.2852
704.3684, 167.7446
704.8505, 160.2104
705.3326, 143.6538
705.8148, 125.3452
706.2969, 114.2549
706.7790, 115.4229
707.2611, 113.7222
707.7432, 104.9717
708.2253, 94.86182
708.7075, 99.31006
709.1896, 118.4297
709.6717, 132.3291
710.1538, 132.9810
710.6359, 123.8315
711.1180, 109.3359
711.6002, 90.09521
712.0823, 69.57031
712.5644, 40.89893
713.0465, 18.73975
713.5286, 14.68213
714.0107, 30.46484
714.4929, 48.85547
714.9750, 76.21973
715.4571, 96.33887
715.9392, 98.83887
716.4213, 77.69727
716.9034, 62.44629
717.3856, 55.29541
717.8677, 48.35986
718.3498, 27.20312
718.8319, 3.894043
719.3140, 18.51855
719.7961, 8.591309
720.2783, 9.696289
720.7604, 21.60693
721.2425, 29.30322
721.7246, 36.50586
722.2067, 49.33594
722.6888, 57.20312
723.1710, 54.99756
723.6531, 44.68750
724.1352, 32.26074
724.6173, 11.26221
725.0994, 1.602051
725.5815, 0.8798830
726.0637, 11.99414
726.5458, 30.60400
727.0279, 56.11084
727.5100, 74.51904
727.9921, 72.69434
728.4742, 58.30859
728.9564, 46.44141
729.4385, 37.70459
729.9206, 34.13037
730.4027, 46.10010
730.8848, 58.90088
731.3669, 57.77588
731.8491, 33.54541
732.3312, 16.77686
732.8133, 15.40576
733.2954, 22.61475
733.7775, 36.70459
734.2596, 66.22314
734.7418, 71.49707
735.2239, 42.61426
735.7060, 0.9428710
736.1881, 21.42969
736.6702, 26.58203
737.1523, 27.15674
737.6345, 29.79346
738.1166, 25.60400
738.5987, 9.909180
739.0808, 60.08057
739.5629, 85.35107
740.0450, 42.67773
740.5272, 0.5732420
741.0093, 16.11230
741.4914, 6.825195
741.9735, 4.454590
742.4556, 13.42480
742.9377, 21.53271
743.4199, 23.80322
743.9020, 20.80811
744.3841, 20.63818
744.8662, 23.81494
745.3483, 21.20312
745.8304, 3.874512
746.3126, 35.83789
746.7947, 46.71143
747.2768, 33.05469
747.7589, 17.65039
748.2410, 7.308105
748.7231, 5.064453
749.2053, 15.10791
749.6874, 50.12061
750.1695, 71.37549
750.6516, 66.85449
751.1337, 58.79053
751.6158, 77.92725
752.0980, 131.1992
752.5801, 150.4609
753.0622, 118.6382
753.5443, 68.05762
754.0264, 45.07080
754.5085, 43.77539
754.9907, 47.44775
755.4728, 55.45264
755.9549, 59.04541
756.4370, 44.34473
756.9191, 20.66699
757.4012, 10.98730
757.8834, 32.45166
758.3655, 55.92725
758.8476, 78.71582
759.3297, 98.56885
759.8118, 100.8428
760.2939, 80.61914
760.7761, 62.66016
761.2582, 59.06641
761.7403, 66.31836
762.2224, 74.37061
762.7045, 83.36963
763.1866, 94.24268
763.6688, 112.0908
764.1509, 129.0669
764.6330, 137.7007
765.1151, 137.0728
765.5972, 132.8511
766.0793, 122.9448
766.5615, 112.9194
767.0436, 105.8906
767.5257, 102.5386
768.0078, 97.47363
768.4899, 87.53906
768.9720, 84.02686
769.4542, 106.1895
769.9363, 146.1738
770.4184, 165.1138
770.9005, 155.0908
771.3826, 136.2412
771.8647, 116.8667
772.3469, 104.5254
772.8290, 111.4458
773.3111, 160.1235
773.7932, 198.4800
774.2753, 207.7788
774.7574, 200.8823
775.2396, 196.0518
775.7217, 192.3081
776.2038, 192.0459
776.6859, 195.4692
777.1680, 201.1812
777.6501, 210.1460
778.1323, 221.3511
778.6144, 224.5923
779.0965, 211.8843
779.5786, 193.3423
780.0607, 175.8135
780.5428, 160.8408
781.0250, 154.0537
781.5071, 161.4688
781.9892, 173.1709
782.4713, 193.1973
782.9534, 216.8403
783.4355, 214.2217
783.9177, 173.9653
784.3998, 137.1416
784.8819, 122.9551
785.3640, 126.1489
785.8461, 123.2651
786.3282, 114.8989
786.8104, 113.0005
787.2925, 131.8340
787.7746, 157.5342
788.2567, 177.5259
788.7388, 190.7163
789.2209, 199.7983
789.7031, 203.5859
790.1852, 203.3945
790.6673, 200.1538
791.1494, 193.4634
791.6315, 188.3228
792.1136, 184.7349
792.5958, 183.1245
793.0779, 188.9712
793.5600, 197.3545
794.0421, 181.5352
794.5242, 136.4365
795.0063, 101.0020
795.4885, 123.7036
795.9706, 169.1484
796.4527, 196.6396
796.9348, 187.5063
797.4169, 179.7456
797.8990, 179.3394
798.3812, 184.1377
798.8633, 196.6113
799.3454, 225.9604
799.8275, 235.0269
800.3096, 215.1470
800.7917, 183.8574
801.2739, 166.1846
801.7560, 159.7695
802.2381, 154.1353
802.7202, 146.6846
803.2023, 138.8857
803.6844, 129.4307
804.1666, 121.7412
804.6487, 121.2505
805.1308, 146.4761
805.6129, 156.0342
806.0950, 132.8628
806.5771, 95.49219
807.0593, 86.13770
807.5414, 111.2847
808.0235, 126.8916
808.5056, 116.5039
808.9877, 94.44043
809.4698, 87.41992
809.9520, 93.14648
810.4341, 102.3892
810.9162, 122.2285
811.3983, 132.4907
811.8804, 110.1821
812.3625, 66.39307
812.8447, 43.12158
813.3268, 58.47705
813.8089, 80.05322
814.2910, 103.6753
814.7731, 126.3130
815.2552, 135.5225
815.7374, 131.9478
816.2195, 121.0996
816.7016, 99.23242
817.1837, 74.90625
817.6658, 60.89600
818.1479, 57.00391
818.6301, 61.79883
819.1122, 83.78467
819.5943, 106.9849
820.0764, 123.9268
820.5585, 134.0493
821.0406, 136.8926
821.5228, 129.1523
822.0049, 120.0884
822.4870, 114.8394
822.9691, 112.2593
823.4512, 101.0884
823.9333, 81.30762
824.4155, 68.22510
824.8976, 84.28174
825.3796, 106.2876
825.8618, 100.2104
826.3439, 63.72949
826.8260, 44.49512
827.3081, 82.78711
827.7902, 122.7959
828.2723, 131.2534
828.7545, 102.1108
829.2366, 88.90918
829.7187, 96.05664
830.2008, 105.0884
830.6829, 104.2295
831.1650, 94.39258
831.6472, 71.80078
832.1293, 36.01465
832.6114, 8.042480
833.0935, 6.644043
833.5756, 18.13965
834.0577, 31.70898
834.5399, 46.07471
835.0220, 62.47949
835.5041, 88.26807
835.9862, 108.2617
836.4683, 108.7168
836.9504, 87.69336
837.4326, 76.95752
837.9147, 79.67334
838.3968, 84.36670
838.8789, 78.52783
839.3610, 66.81396
839.8431, 51.44580
840.3253, 29.56592
840.8074, 24.05811
841.2895, 66.17480
841.7716, 115.9858
842.2537, 139.3359
842.7358, 128.3555
843.2180, 108.6104
843.7001, 74.14648
844.1822, 42.18848
844.6643, 36.94189
845.1464, 51.88916
845.6285, 47.35254
846.1107, 14.29639
846.5928, 9.874512
847.0749, 22.74023
847.5570, 74.69238
848.0391, 101.7090
848.5212, 80.33936
849.0034, 68.05713
849.4855, 79.19043
849.9676, 95.93262
850.4497, 103.8638
850.9318, 103.1191
851.4139, 89.83789
851.8961, 60.54834
852.3782, 30.67529
852.8603, 12.19971
853.3424, 7.369141
853.8245, 25.21240
854.3066, 78.69629
854.7888, 117.7246
855.2709, 109.3662
855.7530, 79.63477
856.2351, 54.88477
856.7172, 34.16016
857.1993, 23.97656
857.6815, 25.59912
858.1636, 35.82129
858.6457, 60.65283
859.1278, 93.22559
859.6099, 96.51025
860.0920, 58.81787
860.5742, 18.81348
861.0563, 6.894043
861.5384, 11.74707
862.0205, 21.05420
862.5026, 37.73730
862.9847, 48.77441
863.4669, 54.14453
863.9490, 52.64648
864.4311, 37.60498
864.9132, 7.094238
865.3953, 0.7578130
865.8774, 26.61670
866.3596, 58.96729
866.8417, 73.30371
867.3238, 73.44775
867.8059, 63.88086
868.2880, 41.03320
868.7701, 22.26270
869.2523, 16.01221
869.7344, 15.73828
870.2165, 14.54297
870.6986, 11.29297
871.1807, 10.62402
871.6628, 12.33301
872.1450, 17.69775
872.6271, 31.82227
873.1092, 50.84082
873.5913, 63.69629
874.0734, 68.53027
874.5555, 66.88672
875.0377, 48.50342
875.5198, 30.33154
876.0019, 30.78027
876.4840, 75.56396
876.9661, 90.79297
877.4482, 62.89355
877.9304, 24.83008
878.4125, 7.700195
878.8946, 10.12988
879.3767, 16.59521
879.8588, 26.23975
880.3409, 35.58154
880.8231, 41.37354
881.3052, 45.22949
881.7873, 51.34668
882.2694, 64.87793
882.7515, 66.99707
883.2336, 34.79102
883.7158, 3.833496
884.1979, 3.675293
884.6800, 39.73145
885.1621, 64.35449
885.6442, 76.23730
886.1263, 78.64795
886.6085, 69.21436
887.0906, 54.47070
887.5727, 45.59180
888.0548, 44.46191
888.5369, 41.75391
889.0190, 28.87305
889.5012, 16.51807
889.9833, 11.75195
890.4654, 15.08740
890.9475, 22.38916
891.4296, 35.31152
891.9117, 47.66260
892.3939, 53.96582
892.8760, 54.69580
893.3581, 57.15576
893.8402, 61.45361
894.3223, 55.64648
894.8044, 14.39111
895.2866, 25.23633
895.7687, 36.02002
896.2508, 11.57080
896.7329, 11.91406
897.2150, 37.40820
897.6971, 51.42822
898.1793, 36.18164
898.6614, 1.505371
899.1435, 1.933594
899.6256, 33.16504
900.1077, 63.16455
900.5898, 73.07764
901.0720, 72.09521
901.5541, 63.87109
902.0362, 49.08496
902.5183, 38.43896
903.0004, 32.06152
903.4825, 28.55127
903.9647, 28.32471
904.4468, 30.15137
904.9289, 26.75244
905.4110, 18.50928
905.8931, 15.54590
906.3752, 27.09180
906.8574, 44.11768
907.3395, 60.37646
907.8216, 75.03711
908.3037, 84.94043
908.7858, 92.26465
909.2679, 90.11475
909.7501, 72.41943
910.2322, 45.36914
910.7143, 31.29053
911.1964, 30.41211
911.6785, 33.29199
912.1606, 39.06641
912.6428, 43.49170
913.1249, 39.29785
913.6070, 29.70850
914.0891, 21.92432
914.5712, 18.39014
915.0533, 17.26367
915.5355, 19.26953
916.0176, 22.86084
916.4997, 24.47412
916.9818, 23.46924
917.4639, 25.68066
917.9460, 33.18115
918.4282, 42.16797
918.9103, 50.17871
919.3924, 56.09326
919.8745, 57.37451
920.3566, 50.05469
920.8387, 42.83154
921.3209, 34.50244
921.8030, 29.75439
922.2851, 35.17285
922.7672, 53.50830
923.2493, 66.73779
923.7314, 71.26367
924.2136, 78.24219
924.6957, 112.3799
925.1778, 155.3511
925.6599, 169.5728
926.1420, 140.9263
926.6241, 112.6055
927.1063, 107.5034
927.5884, 107.4551
928.0705, 95.99170
928.5526, 67.04590
929.0347, 52.63184
929.5168, 54.48584
929.9990, 63.90430
930.4811, 83.85156
930.9632, 102.9663
931.4453, 90.23877
931.9274, 43.91162
932.4095, 8.408203
932.8917, 15.51611
933.3738, 32.75732
933.8559, 39.26172
934.3380, 34.33154
934.8201, 45.31934
935.3022, 79.23389
935.7844, 102.5552
936.2665, 88.33984
936.7486, 53.72119
937.2307, 41.22314
937.7128, 46.09326
938.1949, 44.61133
938.6771, 14.56592
939.1592, 15.44531
939.6413, 37.47363
940.1234, 48.15820
940.6055, 28.15771
941.0876, 35.95703
941.5698, 79.35547
942.0519, 77.71680
942.5340, 50.57275
943.0161, 30.36328
943.4982, 16.57471
943.9803, 7.795898
944.4625, 3.394531
944.9446, 4.257324
945.4267, 18.49756
945.9088, 35.62842
946.3909, 35.90283
946.8730, 11.44238
947.3552, 0.1166990
947.8373, 9.976074
948.3194, 24.73828
948.8015, 15.74365
949.2836, 5.530273
949.7657, 12.45312
950.2479, 5.410645
950.7300, 22.90625
951.2121, 27.28027
951.6942, 27.16455
952.1763, 31.91553
952.6584, 47.17334
953.1406, 41.92383
953.6227, 10.54150
954.1048, 14.40234
954.5869, 8.450195
955.0690, 51.04297
955.5511, 53.69922
956.0333, 12.83447
956.5154, 19.07227
956.9975, 10.28418
957.4796, 9.289551
957.9617, 27.55078
958.4438, 43.44678
958.9260, 39.38477
959.4081, 10.85400
959.8902, 8.297363
960.3723, 9.696777
960.8544, 42.32520
961.3365, 48.14258
961.8187, 34.15674
962.3008, 25.07422
962.7829, 36.53809
963.2650, 48.95654
963.7471, 58.79688
964.2292, 64.36572
964.7114, 56.69189
965.1935, 32.39844
965.6756, 28.84961
966.1577, 64.14893
966.6398, 103.0952
967.1219, 90.59863
967.6041, 51.44629
968.0862, 28.95020
968.5683, 50.97217
969.0504, 65.00830
969.5325, 55.04688
970.0146, 37.26758
970.4968, 24.98584
970.9789, 18.28662
971.4610, 19.02197
971.9431, 27.89062
972.4252, 39.50781
972.9073, 56.14307
973.3895, 68.47949
973.8716, 61.97266
974.3537, 31.88525
974.8358, 10.92090
975.3179, 3.090332
975.8000, 8.126953
976.2822, 32.22510
976.7643, 71.51025
977.2464, 85.77734
977.7285, 76.40381
978.2106, 64.12451
978.6927, 58.24658
979.1749, 57.53467
979.6570, 66.39111
980.1391, 80.60352
980.6212, 82.90039
981.1033, 62.57471
981.5854, 44.91895
982.0676, 33.95459
982.5497, 29.32471
983.0318, 34.23340
983.5139, 45.74512
983.9960, 49.18115
984.4781, 34.10449
984.9603, 23.47412
985.4424, 40.12939
985.9245, 67.78955
986.4066, 85.13477
986.8887, 87.34229
987.3708, 86.87402
987.8530, 82.87988
988.3351, 78.60156
988.8172, 78.93213
989.2993, 81.19189
989.7814, 78.54785
990.2635, 70.40088
990.7456, 58.80371
991.2277, 40.44482
991.7098, 23.03271
992.1920, 8.353516
992.6741, 3.226074
993.1562, 4.538086
993.6383, 33.83887
994.1204, 60.81104
994.6025, 76.27002
995.0847, 80.60059
995.5668, 65.72461
996.0489, 39.75586
996.5310, 25.53467
997.0131, 45.39600
997.4952, 59.34033
997.9774, 56.12793
998.4595, 45.67871
998.9416, 40.64062
999.4237, 39.46191
999.9058, 43.33691
1000.388, 53.61279
1000.870, 64.85449
1001.352, 75.81055
1001.834, 82.30420
1002.316, 78.45703
1002.799, 58.83984
1003.281, 39.76758
1003.763, 16.12109
1004.245, 2.355469
1004.727, 16.87695
1005.209, 53.01807
1005.691, 58.81494
1006.173, 35.59863
1006.655, 16.60986
1007.138, 32.22852
1007.620, 51.29785
1008.102, 52.88477
1008.584, 39.26172
1009.066, 32.93945
1009.548, 36.07324
1010.030, 35.40576
1010.512, 26.15234
1010.995, 12.19922
1011.477, 3.437988
1011.959, 18.59375
1012.441, 23.45117
1012.923, 10.35742
1013.405, 3.139160
1013.887, 10.27588
1014.369, 13.82520
1014.851, 20.29053
1015.334, 30.64307
1015.816, 36.10645
1016.298, 35.56201
1016.780, 34.88281
1017.262, 44.08057
1017.744, 52.69824
1018.226, 45.87598
1018.708, 21.51904
1019.190, 9.252441
1019.673, 23.06055
1020.155, 38.58789
1020.637, 48.11768
1021.119, 52.54541
1021.601, 55.18164
1022.083, 55.87695
1022.565, 53.44727
1023.047, 41.78027
1023.530, 33.51611
1024.012, 42.02930
1024.494, 58.38037
1024.976, 64.79834
1025.458, 53.49463
1025.940, 53.87305
1026.422, 73.13184
1026.904, 91.47266
1027.386, 75.10938
1027.869, 42.42627
1028.351, 36.94482
1028.833, 67.68018
1029.315, 89.50586
1029.797, 74.95557
1030.279, 53.38428
1030.761, 37.50342
1031.243, 27.68164
1031.726, 35.82764
1032.208, 62.25244
1032.690, 80.14404
1033.172, 64.66553
1033.654, 41.78027
1034.136, 38.28223
1034.618, 47.53467
1035.100, 52.93408
1035.583, 45.09521
1036.065, 44.04004
1036.547, 55.86523
1037.029, 68.84277
1037.511, 62.85498
1037.993, 43.19922
1038.475, 27.96875
1038.957, 20.10693
1039.439, 17.11914
1039.922, 19.65820
1040.404, 24.85840
1040.886, 33.29297
1041.368, 45.60645
1041.850, 40.04102
1042.332, 13.70020
1042.814, 8.737305
1043.296, 15.54004
1043.778, 7.738770
1044.261, 25.56396
1044.743, 73.02637
1045.225, 101.0464
1045.707, 89.14404
1046.189, 68.16357
1046.671, 35.99512
1047.153, 5.301270
1047.635, 1.344727
1048.118, 19.37842
1048.600, 34.62598
1049.082, 43.88770
1049.564, 43.96387
1050.046, 14.31055
1050.528, 13.30371
1051.010, 2.646484
1051.492, 51.57764
1051.974, 81.46729
1052.457, 82.71826
1052.939, 77.86621
1053.421, 74.61084
1053.903, 76.88672
1054.385, 103.0903
1054.867, 142.4136
1055.349, 157.8501
1055.831, 107.7490
1056.313, 72.84424
1056.796, 76.30664
1057.278, 93.92871
1057.760, 84.91895
1058.242, 53.21631
1058.724, 31.49121
1059.206, 25.58691
1059.688, 27.26025
1060.170, 35.93457
1060.653, 45.36670
1061.135, 48.55420
1061.617, 43.97461
1062.099, 48.63672
1062.581, 66.42041
1063.063, 78.05762
1063.545, 70.95508
1064.027, 53.20654
1064.510, 37.53223
1064.992, 23.42676
1065.474, 9.739258
1065.956, 16.47119
1066.438, 23.59814
1066.920, 2.264160
1067.402, 38.11621
1067.884, 52.44336
1068.366, 47.62598
1068.849, 38.78418
1069.331, 26.58936
1069.813, 19.08203
1070.295, 25.79834
1070.777, 39.31250
1071.259, 57.23779
1071.741, 78.27246
1072.223, 79.65771
1072.705, 55.70459
1073.188, 41.07373
1073.670, 58.28564
1074.152, 85.42285
1074.634, 89.59619
1075.116, 77.00439
1075.598, 60.59961
1076.080, 27.44434
1076.562, 16.67725
1077.044, 42.10742
1077.527, 75.61182
1078.009, 86.13086
1078.491, 78.01514
1078.973, 75.17676
1079.455, 79.32227
1079.937, 81.67529
1080.419, 75.07178
1080.901, 66.32422
1081.384, 57.48486
1081.866, 50.00879
1082.348, 51.67236
1082.830, 63.72754
1083.312, 75.10840
1083.794, 82.24707
1084.276, 87.42334
1084.758, 97.26367
1085.240, 105.6802
1085.723, 102.7148
1086.205, 78.18359
1086.687, 56.55908
1087.169, 35.93311
1087.651, 23.45215
1088.133, 31.66602
1088.615, 51.67188
1089.097, 51.50293
1089.579, 33.71582
1090.062, 22.94482
1090.544, 32.92822
1091.026, 51.93457
1091.508, 84.82227
1091.990, 119.0083
1092.472, 123.7715
1092.954, 99.65674
1093.436, 75.30908
1093.919, 56.55762
1094.401, 40.38477
1094.883, 18.94873
1095.365, 1.862305
1095.847, 1.121582
1096.329, 21.02393
1096.811, 39.98145
1097.293, 59.85010
1097.776, 70.95264
1098.258, 58.26855
1098.740, 39.64160
1099.222, 56.62451
1099.704, 95.31836
1100.186, 117.8804
1100.668, 94.48584
1101.150, 75.05713
1101.632, 71.30322
1102.115, 70.33496
1102.597, 46.04980
1103.079, 7.410156
1103.561, 7.147949
1104.043, 51.25391
1104.525, 87.68066
1105.007, 71.75977
1105.489, 49.53027
1105.971, 51.55957
1106.454, 72.38135
1106.936, 80.82373
1107.418, 76.55371
1107.900, 72.84473
1108.382, 72.36523
1108.864, 72.10254
1109.346, 68.37646
1109.828, 64.41797
1110.311, 66.80029
1110.793, 88.90674
1111.275, 79.48096
1111.757, 24.51953
1112.239, 19.07715
1112.721, 9.967285
1113.203, 72.77881
1113.685, 90.73633
1114.167, 70.22803
1114.650, 50.87695
1115.132, 51.21094
1115.614, 48.23633
1116.096, 31.93311
1116.578, 15.55713
1117.060, 25.93701
1117.542, 57.24365
1118.024, 84.54004
1118.506, 104.9819
1118.989, 112.7173
1119.471, 91.89014
1119.953, 68.18701
1120.435, 59.61865
1120.917, 64.57617
1121.399, 61.12598
1121.881, 49.25732
1122.363, 40.06982
1122.846, 39.15234
1123.328, 42.12842
1123.810, 42.44727
1124.292, 44.14014
1124.774, 56.77637
1125.256, 91.56152
1125.738, 100.6826
1126.220, 78.61865
1126.703, 51.01562
1127.185, 37.96924
1127.667, 34.41162
1128.149, 34.86475
1128.631, 38.25586
1129.113, 40.63281
1129.595, 35.06885
1130.077, 37.23096
1130.559, 55.04980
1131.042, 74.32031
1131.524, 65.03027
1132.006, 36.84570
1132.488, 17.72461
1132.970, 12.90381
1133.452, 15.59961
1133.934, 36.03125
1134.416, 49.18896
1134.898, 37.50049
1135.381, 6.798828
1135.863, 0.1420900
1136.345, 14.53760
1136.827, 23.49414
1137.309, 7.449219
1137.791, 6.977539
1138.273, 4.603516
1138.755, 10.10986
1139.238, 33.68604
1139.720, 72.52441
1140.202, 81.63867
1140.684, 57.82764
1141.166, 32.40039
1141.648, 33.69482
1142.130, 42.18164
1142.612, 38.07227
1143.094, 23.96973
1143.577, 18.83643
1144.059, 29.14209
1144.541, 36.25000
1145.023, 34.93896
1145.505, 34.05469
1145.987, 49.75977
1146.469, 71.73340
1146.951, 85.97266
1147.433, 90.29492
1147.916, 82.05957
1148.398, 50.50830
1148.880, 27.44824
1149.362, 28.64062
1149.844, 45.22314
1150.326, 57.37061
1150.808, 66.59961
1151.290, 72.16064
1151.773, 79.18018
1152.255, 76.90479
1152.737, 53.16797
1153.219, 29.59766
1153.701, 24.54541
1154.183, 36.04004
1154.665, 49.36768
1155.147, 63.19873
1155.630, 67.47363
1156.112, 45.59619
1156.594, 24.26270
1157.076, 16.03809
1157.558, 18.19922
1158.040, 28.14990
1158.522, 45.11279
1159.004, 49.49854
1159.486, 37.54980
1159.969, 24.44971
1160.451, 20.31250
1160.933, 22.05713
1161.415, 30.64404
1161.897, 44.21729
1162.379, 48.83740
1162.861, 43.51221
1163.343, 38.65918
1163.825, 39.63037
1164.308, 37.50146
1164.790, 10.26709
1165.272, 20.31494
1165.754, 23.60352
1166.236, 14.03564
1166.718, 42.41650
1167.200, 60.76758
1167.682, 71.62842
1168.165, 70.48682
1168.647, 67.01709
1169.129, 84.24854
1169.611, 110.7632
1170.093, 117.7886
1170.575, 79.53564
1171.057, 54.84912
1171.539, 47.74023
1172.021, 52.03857
1172.504, 71.26367
1172.986, 93.67041
1173.468, 92.20996
1173.950, 68.12012
1174.432, 44.64111
1174.914, 23.88525
1175.396, 13.05029
1175.878, 15.44922
1176.360, 25.65674
1176.843, 37.88721
1177.325, 49.62500
1177.807, 53.08057
1178.289, 46.05371
1178.771, 38.39941
1179.253, 34.09766
1179.735, 31.04688
1180.217, 28.84082
1180.700, 27.01318
1181.182, 22.76172
1181.664, 17.09131
1182.146, 14.17920
1182.628, 15.01855
1183.110, 19.87207
1183.592, 36.23047
1184.074, 50.26367
1184.557, 51.07861
1185.039, 39.12598
1185.521, 21.89551
1186.003, 1.230469
1186.485, 5.430664
1186.967, 28.47900
1187.449, 61.22168
1187.931, 70.55371
1188.413, 66.18213
1188.896, 59.42383
1189.378, 50.29150
1189.860, 43.81738
1190.342, 40.26660
1190.824, 38.87646
1191.306, 36.49805
1191.788, 38.27637
1192.270, 56.84961
1192.752, 81.67285
1193.235, 73.23584
1193.717, 26.60547
1194.199, 12.91748
1194.681, 51.37695
1195.163, 93.09863
1195.645, 91.54346
1196.127, 72.61279
1196.609, 56.21875
1197.092, 44.26660
1197.574, 43.34863
1198.056, 55.99756
1198.538, 57.73584
1199.020, 35.58594
1199.502, 9.090820
1199.984, 13.58789
1200.466, 20.81396
1200.948, 11.81201
1201.431, 102.9609
1201.913, 140.6494
1202.395, 116.9858
1202.877, 85.76367
1203.359, 78.63916
1203.841, 79.64648
1204.323, 67.18896
1204.805, 49.18896
1205.287, 43.21484
1205.770, 61.19629
1206.252, 64.52588
1206.734, 50.38574
1207.216, 30.38818
1207.698, 2.499023
1208.180, 17.17773
1208.662, 0.5512700
1209.144, 46.72119
1209.627, 80.32520
1210.109, 90.90674
1210.591, 109.1816
1211.073, 145.0190
1211.555, 168.4741
1212.037, 129.2974
1212.519, 66.06152
1213.001, 33.51807
1213.484, 34.80713
1213.966, 27.33301
1214.448, 1.000977
1214.930, 17.52197
1215.412, 12.99414
1215.894, 4.239746
1216.376, 30.35986
1216.858, 55.55811
1217.340, 69.59033
1217.823, 69.23730
1218.305, 66.39355
1218.787, 62.05811
1219.269, 54.67334
1219.751, 40.06982
1220.233, 26.84033
1220.715, 39.09277
1221.197, 61.28027
1221.679, 63.37109
1222.162, 22.77588
1222.644, 2.416016
1223.126, 7.319336
1223.608, 23.23633
1224.090, 50.59082
1224.572, 76.70898
1225.054, 78.34863
1225.536, 62.03809
1226.019, 43.16797
1226.501, 14.41846
1226.983, 3.573730
1227.465, 14.51416
1227.947, 34.98535
1228.429, 64.49658
1228.911, 91.23877
1229.393, 88.68408
1229.875, 63.15527
1230.358, 42.83008
1230.840, 32.55566
1231.322, 34.91748
1231.804, 55.90088
1232.286, 74.33252
1232.768, 56.36670
1233.250, 24.11279
1233.732, 17.82324
1234.214, 37.45947
1234.697, 42.85791
1235.179, 13.71289
1235.661, 1.226563
1236.143, 19.52783
1236.625, 49.59180
1237.107, 71.11963
1237.589, 82.85645
1238.071, 79.43750
1238.553, 59.24805
1239.036, 40.42334
1239.518, 18.27979
1240.000, 16.77197
1240.482, 53.14990
1240.964, 95.76953
1241.446, 84.82178
1241.928, 49.98193
1242.410, 40.75098
1242.893, 75.99121
1243.375, 89.63281
1243.857, 74.73633
1244.339, 50.59521
1244.821, 21.39062
1245.303, 3.825684
1245.785, 9.359863
1246.267, 7.3729999E-02
1246.750, 19.35840
1247.232, 57.93408
1247.714, 74.32178
1248.196, 63.17822
1248.678, 49.68066
1249.160, 50.83838
1249.642, 58.37646
1250.124, 63.26758
1250.606, 65.16895
1251.089, 62.50146
1251.571, 49.38184
1252.053, 46.95801
1252.535, 58.97852
1253.017, 70.75146
1253.499, 62.76270
1253.981, 49.90771
1254.463, 49.01660
1254.945, 57.09229
1255.428, 64.19434
1255.910, 69.40283
1256.392, 74.00830
1256.874, 82.43701
1257.356, 85.57764
1257.838, 67.24854
1258.320, 48.26611
1258.802, 53.36914
1259.285, 75.88477
1259.767, 80.21338
1260.249, 67.82227
1260.731, 62.93164
1261.213, 70.37451
1261.695, 78.20215
1262.177, 78.30420
1262.659, 71.11963
1263.141, 49.24463
1263.624, 18.96289
1264.106, 14.48291
1264.588, 37.16846
1265.070, 48.70508
1265.552, 38.87012
1266.034, 26.83984
1266.516, 30.59082
1266.998, 36.73828
1267.480, 31.50732
1267.963, 18.79102
1268.445, 23.48486
1268.927, 44.09814
1269.409, 50.96777
1269.891, 30.78320
1270.373, 12.27979
1270.855, 16.07031
1271.337, 28.45801
1271.820, 43.72852
1272.302, 58.66113
1272.784, 43.13574
1273.266, 3.589355
1273.748, 17.51123
1274.230, 4.007813
1274.712, 23.82178
1275.194, 11.88379
1275.677, 2.590820
1276.159, 17.08252
1276.641, 48.55225
1277.123, 56.78760
1277.605, 47.36377
1278.087, 44.87158
1278.569, 63.43652
1279.051, 83.35693
1279.533, 112.4111
1280.016, 123.8887
1280.498, 80.58545
1280.980, 6.532715
1281.462, 1.941406
1281.944, 48.77979
1282.426, 86.59131
1282.908, 79.22510
1283.390, 81.38281
1283.872, 104.1089
1284.355, 126.1094
1284.837, 127.8149
1285.319, 116.5220
1285.801, 105.5000
1286.283, 95.32324
1286.765, 86.85547
1287.247, 78.99023
1287.729, 75.73535
1288.212, 78.43750
1288.694, 81.41309
1289.176, 76.65820
1289.658, 74.04395
1290.140, 64.43457
1290.622, 50.40234
1291.104, 38.14795
1291.586, 25.33936
1292.068, 26.53906
1292.551, 46.21143
1293.033, 60.16211
1293.515, 30.58203
1293.997, 1.334961
1294.479, 12.14209
1294.961, 59.81299
1295.443, 86.73389
1295.925, 91.67334
1296.407, 82.40283
1296.890, 58.93555
1297.372, 39.34131
1297.854, 48.05273
1298.336, 57.53418
1298.818, 40.57227
1299.300, 7.777344
1299.782, 1.340332
1300.264, 9.792969
1300.747, 23.92480
1301.229, 38.72119
1301.711, 44.94971
1302.193, 19.40234
1302.675, 1.300781
1303.157, 0.2763670
1303.639, 0.0000000E+00
##END=



