##NAMES=Remondite-(Ce)
##RRUFFID=R120060
##IDEAL CHEMISTRY=Na_3_(Ce^3+^,Ca,Na)_3_(CO_3_)_5_
##LOCALITY=Mont Saint-Hilaire, Rouville RCM, Montérégie, Québec, Canada
##OWNER=RRUFF
##SOURCE=Donald Doell
##DESCRIPTION=Tan to pale yellow acicular, associated with albite, calcite, and analcime
##STATUS=The identification of this mineral has been confirmed only by single crystal X-ray diffraction.
##URL=rruff.info/R120060
225.4848, 0.0000000E+00
225.9670, 0.6709590
226.4491, 0.1521000
226.9312, 0.2903440
227.4133, 1.648926
227.8954, 2.622009
228.3775, 2.856506
228.8597, 3.065491
229.3418, 3.699646
229.8239, 5.010681
230.3060, 6.051636
230.7881, 6.490845
231.2702, 6.545166
231.7524, 7.342407
232.2345, 9.302429
232.7166, 11.33374
233.1987, 12.75629
233.6808, 13.29651
234.1629, 13.75873
234.6451, 14.09021
235.1272, 14.35913
235.6093, 14.98480
236.0914, 16.43933
236.5735, 17.60059
237.0556, 17.75995
237.5378, 16.31995
238.0199, 15.19391
238.5020, 14.45502
238.9841, 14.11835
239.4662, 14.32990
239.9483, 15.62793
240.4305, 16.78210
240.9126, 17.03229
241.3947, 15.60767
241.8768, 15.07202
242.3589, 15.98346
242.8410, 17.84021
243.3232, 18.77991
243.8053, 18.07983
244.2874, 17.44342
244.7695, 17.78253
245.2516, 19.64258
245.7337, 21.21698
246.2159, 22.44464
246.6980, 23.33087
247.1801, 23.83832
247.6622, 23.65424
248.1443, 23.54114
248.6264, 23.93066
249.1086, 25.23669
249.5907, 26.02057
250.0728, 26.05621
250.5549, 25.62213
251.0370, 25.41400
251.5191, 25.33746
252.0013, 25.67639
252.4834, 26.72577
252.9655, 29.10040
253.4476, 30.55347
253.9297, 30.87317
254.4118, 30.37946
254.8940, 29.71478
255.3761, 28.70923
255.8582, 27.82788
256.3403, 27.30798
256.8224, 27.29773
257.3046, 27.06384
257.7867, 26.31464
258.2688, 25.50177
258.7509, 25.66125
259.2330, 27.35876
259.7151, 28.84192
260.1973, 29.42853
260.6794, 28.96539
261.1615, 28.15906
261.6436, 26.71637
262.1257, 25.21667
262.6078, 24.80872
263.0900, 26.17767
263.5721, 27.08319
264.0542, 26.78003
264.5363, 24.96777
265.0184, 24.19281
265.5005, 24.99542
265.9827, 26.21564
266.4648, 25.91791
266.9469, 23.34528
267.4290, 21.51385
267.9111, 21.75342
268.3932, 24.27545
268.8754, 25.06201
269.3575, 23.47528
269.8396, 21.06299
270.3217, 19.76044
270.8038, 19.73407
271.2859, 20.09729
271.7681, 20.79413
272.2502, 21.78430
272.7323, 22.05731
273.2144, 21.41058
273.6965, 20.44427
274.1786, 19.86414
274.6608, 19.75238
275.1429, 19.31293
275.6250, 18.11450
276.1071, 16.38422
276.5892, 16.16772
277.0714, 17.41748
277.5535, 18.98328
278.0356, 20.21246
278.5177, 21.18610
278.9998, 20.88617
279.4819, 18.82367
279.9641, 15.58667
280.4462, 13.55219
280.9283, 12.91229
281.4104, 12.58014
281.8925, 11.48315
282.3746, 9.619446
282.8568, 8.542480
283.3389, 8.832764
283.8210, 9.798340
284.3031, 9.139343
284.7852, 6.705261
285.2673, 4.181641
285.7495, 2.794250
286.2316, 2.519470
286.7137, 2.412842
287.1958, 2.388184
287.6779, 2.356201
288.1600, 1.992798
288.6422, 1.275146
289.1243, 0.8191530
289.6064, 0.9594730
290.0885, 1.666748
290.5706, 3.110535
291.0527, 5.619751
291.5349, 8.050171
292.0170, 8.232300
292.4991, 6.328369
292.9812, 4.298767
293.4633, 3.225220
293.9454, 2.884827
294.4276, 2.666199
294.9097, 2.576172
295.3918, 2.456726
295.8739, 2.068237
296.3560, 1.463379
296.8381, 0.8583980
297.3203, 0.3019410
297.8024, 0.1609500
298.2845, 0.3963010
298.7666, 0.3815310
299.2487, 0.3259280
299.7308, 0.9285280
300.2130, 1.735962
300.6951, 1.421570
301.1772, 2.027405
301.6593, 6.168152
302.1414, 6.996887
302.6235, 4.578674
303.1057, 1.890259
303.5878, 1.598450
304.0699, 2.732483
304.5520, 3.578613
305.0341, 3.606567
305.5162, 3.145752
305.9984, 2.193420
306.4805, 0.8785400
306.9626, 4.5779999E-03
307.4447, 0.5216670
307.9268, 1.729492
308.4089, 2.630920
308.8911, 2.961060
309.3732, 2.965393
309.8553, 2.785156
310.3374, 2.435486
310.8195, 1.946472
311.3016, 0.9518430
311.7838, 2.7649000E-02
312.2659, 0.2043460
312.7480, 0.6957400
313.2301, 1.526428
313.7122, 1.281250
314.1943, 0.4314580
314.6765, 1.1169000E-02
315.1586, 0.8690190
315.6407, 1.982727
316.1228, 2.598206
316.6049, 2.492371
317.0870, 2.465027
317.5692, 3.070129
318.0513, 3.924011
318.5334, 4.485107
319.0155, 4.593201
319.4976, 4.365662
319.9797, 3.709900
320.4619, 2.580200
320.9440, 1.626404
321.4261, 1.080811
321.9082, 0.8134770
322.3903, 0.6442260
322.8724, 0.1761470
323.3546, 0.1251830
323.8367, 2.025574
324.3188, 6.131897
324.8009, 8.540894
325.2830, 7.713745
325.7651, 5.593689
326.2473, 3.437012
326.7294, 0.5896000
327.2115, 1.363953
327.6936, 1.874023
328.1757, 1.200989
328.6578, 0.7164920
329.1400, 0.3572390
329.6221, 0.2244260
330.1042, 0.3919680
330.5863, 1.354065
331.0684, 1.810303
331.5505, 1.540100
332.0327, 0.8084720
332.5148, 0.1942750
332.9969, 0.2375490
333.4790, 0.5955810
333.9611, 0.8578490
334.4432, 0.8860470
334.9254, 1.163696
335.4075, 1.698853
335.8896, 2.448608
336.3717, 3.529663
336.8538, 5.405151
337.3359, 6.380920
337.8180, 5.677612
338.3001, 3.346008
338.7823, 1.882690
339.2644, 1.454407
339.7465, 1.605530
340.2286, 2.098083
340.7107, 3.070679
341.1928, 3.648315
341.6750, 3.652161
342.1571, 3.158325
342.6392, 2.301819
343.1213, 0.9983520
343.6034, 0.2136230
344.0855, 0.9714360
344.5677, 1.274902
345.0498, 1.292236
345.5319, 0.9696660
346.0140, 0.4854130
346.4961, 0.1926880
346.9782, 8.6914003E-02
347.4604, 1.6479000E-02
347.9425, 0.2651370
348.4246, 0.6054080
348.9067, 0.7475590
349.3888, 0.6196290
349.8709, 0.5774540
350.3531, 1.246521
350.8352, 2.423706
351.3173, 3.354553
351.7994, 3.517334
352.2815, 3.294983
352.7636, 3.292664
353.2458, 3.503601
353.7279, 3.845764
354.2100, 4.293396
354.6921, 4.808899
355.1742, 5.359375
355.6563, 6.176270
356.1385, 6.755493
356.6206, 6.316589
357.1027, 5.079956
357.5848, 4.145996
358.0669, 4.807678
358.5490, 5.782959
359.0312, 5.714050
359.5133, 3.832520
359.9954, 1.920715
360.4775, 0.6849980
360.9596, 0.1758420
361.4417, 0.5006710
361.9239, 2.946777
362.4060, 5.297180
362.8881, 6.266907
363.3702, 5.541565
363.8523, 4.400696
364.3344, 2.675781
364.8166, 0.9617920
365.2987, 7.0618004E-02
365.7808, 0.2432860
366.2629, 0.7705080
366.7450, 1.306030
367.2271, 1.841797
367.7093, 2.245117
368.1914, 2.552673
368.6735, 2.665466
369.1556, 2.522583
369.6377, 1.642761
370.1198, 1.088135
370.6020, 0.8965450
371.0841, 1.053772
371.5662, 1.580566
372.0483, 2.854187
372.5304, 4.002075
373.0125, 4.691223
373.4947, 4.868774
373.9768, 4.639832
374.4589, 3.726196
374.9410, 2.644165
375.4231, 2.280579
375.9052, 2.876221
376.3874, 3.522522
376.8695, 4.112305
377.3516, 4.665527
377.8337, 4.208435
378.3158, 2.423584
378.7979, 0.5555420
379.2801, 7.9349997E-03
379.7622, 0.8546140
380.2443, 1.462830
380.7264, 1.411194
381.2085, 1.007507
381.6906, 0.9873660
382.1728, 1.324280
382.6549, 1.963745
383.1370, 3.014160
383.6191, 4.352356
384.1012, 5.531189
384.5833, 6.537903
385.0655, 7.122803
385.5476, 7.114441
386.0297, 6.632874
386.5118, 5.837708
386.9939, 4.084045
387.4760, 2.333008
387.9582, 2.369690
388.4403, 4.200745
388.9224, 5.928162
389.4045, 6.040039
389.8866, 5.140930
390.3687, 3.964600
390.8509, 2.055603
391.3330, 0.6914670
391.8151, 1.404785
392.2972, 3.650818
392.7793, 5.214111
393.2614, 4.177795
393.7436, 2.568115
394.2257, 1.907349
394.7078, 2.913086
395.1899, 3.742920
395.6720, 3.278870
396.1541, 2.295044
396.6363, 2.035400
397.1184, 3.773193
397.6005, 5.382751
398.0826, 6.027649
398.5647, 5.529602
399.0468, 5.224548
399.5290, 5.597168
400.0111, 6.005432
400.4932, 5.929199
400.9753, 4.892578
401.4574, 3.961609
401.9395, 3.262268
402.4217, 2.784912
402.9038, 2.354126
403.3859, 1.874756
403.8680, 1.651733
404.3501, 1.846924
404.8322, 2.543640
405.3144, 3.371643
405.7965, 4.506897
406.2786, 5.565857
406.7607, 5.761292
407.2428, 4.892761
407.7249, 4.182434
408.2071, 3.998596
408.6892, 4.312378
409.1713, 5.250366
409.6534, 7.005005
410.1355, 8.525391
410.6176, 8.370544
411.0998, 6.926392
411.5819, 6.146362
412.0640, 6.598633
412.5461, 7.548645
413.0282, 8.087646
413.5103, 8.164001
413.9925, 7.526855
414.4746, 5.149597
414.9567, 2.245056
415.4388, 0.8800050
415.9209, 1.327881
416.4030, 2.237000
416.8852, 2.724976
417.3673, 2.878235
417.8494, 2.844299
418.3315, 2.680298
418.8136, 2.344971
419.2957, 1.656860
419.7779, 0.7396850
420.2600, 0.1943970
420.7421, 0.6105350
421.2242, 1.330627
421.7063, 1.859070
422.1884, 1.995300
422.6706, 2.168030
423.1527, 2.807251
423.6348, 3.554199
424.1169, 3.625671
424.5990, 1.820129
425.0811, 0.3394780
425.5633, 1.9714000E-02
426.0454, 0.9285280
426.5275, 1.608582
427.0096, 1.955933
427.4917, 2.060669
427.9738, 1.925781
428.4560, 1.184265
428.9381, 1.025085
429.4202, 1.967773
429.9023, 3.497253
430.3844, 3.735901
430.8665, 2.267517
431.3487, 0.6729740
431.8308, 0.2706300
432.3129, 0.5397340
432.7950, 0.6644290
433.2771, 0.6364140
433.7592, 0.4452510
434.2414, 3.8940001E-02
434.7235, 0.7846680
435.2056, 1.348206
435.6877, 1.585999
436.1698, 1.556885
436.6519, 1.292664
437.1341, 0.8167110
437.6162, 0.3953250
438.0983, 0.1147460
438.5804, 3.8451999E-02
439.0625, 5.9631001E-02
439.5446, 7.9712003E-02
440.0268, 0.3119510
440.5089, 0.5854490
440.9910, 0.8985600
441.4731, 1.245850
441.9552, 1.662109
442.4373, 2.071838
442.9195, 2.422974
443.4016, 2.708862
443.8837, 2.982239
444.3658, 3.535828
444.8479, 3.912720
445.3300, 3.727112
445.8122, 2.214111
446.2943, 1.046448
446.7764, 0.4921880
447.2585, 0.4630740
447.7406, 0.7469480
448.2227, 1.900757
448.7049, 2.785645
449.1870, 2.966736
449.6691, 2.282898
450.1512, 2.040710
450.6333, 2.434692
451.1154, 3.058655
451.5976, 3.568909
452.0797, 3.998718
452.5618, 4.277100
453.0439, 4.469055
453.5260, 4.467834
454.0081, 3.770081
454.4903, 2.232910
454.9724, 0.9815060
455.4545, 0.7391970
455.9366, 1.372803
456.4187, 2.049194
456.9008, 2.768127
457.3830, 3.313721
457.8651, 3.193176
458.3472, 2.627625
458.8293, 2.363159
459.3114, 2.787537
459.7935, 3.453613
460.2757, 3.818359
460.7578, 3.919556
461.2399, 3.996277
461.7220, 4.403198
462.2041, 4.745178
462.6862, 4.569397
463.1684, 3.709778
463.6505, 2.859802
464.1326, 2.371948
464.6147, 2.091187
465.0968, 1.815552
465.5789, 1.739258
466.0611, 1.454041
466.5432, 0.4841920
467.0253, 1.028564
467.5074, 1.651794
467.9895, 0.2166750
468.4716, 1.350281
468.9538, 2.093262
469.4359, 1.460754
469.9180, 1.207825
470.4001, 1.577148
470.8822, 2.142761
471.3643, 2.145630
471.8465, 1.195557
472.3286, 0.8264160
472.8107, 1.666260
473.2928, 3.411621
473.7749, 4.336304
474.2570, 4.308960
474.7392, 4.096252
475.2213, 4.511780
475.7034, 5.365723
476.1855, 5.174133
476.6676, 3.564758
477.1497, 1.653320
477.6319, 1.106506
478.1140, 1.523010
478.5961, 1.838196
479.0782, 1.410278
479.5603, 0.7447510
480.0424, 0.3211670
480.5246, 0.1478270
481.0067, 0.2926640
481.4888, 1.140625
481.9709, 2.119751
482.4530, 2.670288
482.9352, 2.496094
483.4173, 2.342224
483.8994, 2.615112
484.3815, 3.066772
484.8636, 3.322876
485.3457, 3.390564
485.8279, 3.150330
486.3100, 2.317688
486.7921, 0.9050290
487.2742, 0.1466060
487.7563, 0.5701290
488.2384, 1.126892
488.7206, 1.161987
489.2027, 0.2384640
489.6848, 3.6194000E-02
490.1669, 0.8575440
490.6490, 2.128784
491.1311, 2.996460
491.6133, 3.443237
492.0954, 3.630554
492.5775, 3.516724
493.0596, 3.163879
493.5417, 2.746033
494.0238, 2.250671
494.5060, 1.873352
494.9881, 1.742004
495.4702, 1.824219
495.9523, 2.063538
496.4344, 2.445068
496.9165, 2.955933
497.3987, 3.838623
497.8808, 4.821655
498.3629, 5.374817
498.8450, 5.118103
499.3271, 4.508118
499.8092, 3.548828
500.2914, 2.375610
500.7735, 1.738892
501.2556, 2.685364
501.7377, 3.703064
502.2198, 3.755127
502.7019, 2.074951
503.1841, 1.185303
503.6662, 2.154480
504.1483, 3.772217
504.6304, 4.621216
505.1125, 4.244507
505.5946, 3.823120
506.0768, 3.483154
506.5589, 3.225342
507.0410, 3.141113
507.5231, 3.340881
508.0052, 3.377991
508.4873, 2.895813
508.9695, 1.885681
509.4516, 1.058167
509.9337, 0.3317870
510.4158, 0.1152340
510.8979, 1.257202
511.3800, 3.438965
511.8622, 5.251648
512.3443, 6.492798
512.8264, 6.935974
513.3085, 5.707275
513.7906, 3.290161
514.2728, 1.400024
514.7549, 1.501465
515.2370, 2.294495
515.7191, 2.590820
516.2012, 2.226196
516.6833, 1.767456
517.1655, 1.427490
517.6476, 1.220703
518.1297, 1.161926
518.6118, 1.612793
519.0939, 1.774292
519.5760, 1.317444
520.0582, 0.4976200
520.5403, 9.2589997E-02
521.0224, 0.5109860
521.5045, 0.6332400
521.9866, 0.5289310
522.4688, 0.1961670
522.9509, 1.187317
523.4330, 4.197205
523.9151, 6.919128
524.3972, 7.608398
524.8793, 6.159424
525.3615, 4.888306
525.8436, 3.959167
526.3257, 3.700073
526.8078, 5.549133
527.2899, 8.897949
527.7720, 10.75739
528.2542, 8.979126
528.7363, 5.815491
529.2184, 4.066223
529.7005, 3.608826
530.1826, 3.696960
530.6647, 4.441589
531.1469, 5.202393
531.6290, 5.357971
532.1111, 4.695801
532.5932, 4.093018
533.0753, 4.326050
533.5574, 4.623413
534.0396, 4.177612
534.5217, 1.069702
535.0038, 0.6705320
535.4859, 0.4708250
535.9680, 3.439697
536.4501, 4.828491
536.9323, 3.696045
537.4144, 2.594727
537.8965, 2.610046
538.3786, 3.782471
538.8607, 3.937805
539.3428, 2.753540
539.8250, 1.512695
540.3071, 1.621216
540.7892, 2.902344
541.2713, 3.728516
541.7534, 3.764648
542.2355, 3.491760
542.7177, 3.593140
543.1998, 3.952271
543.6819, 4.193787
544.1640, 4.051270
544.6461, 3.771545
545.1282, 3.542175
545.6104, 3.372742
546.0925, 3.272949
546.5746, 3.119507
547.0567, 3.135803
547.5388, 3.636536
548.0209, 4.899780
548.5031, 5.700684
548.9852, 5.424316
549.4673, 4.840332
549.9494, 4.730896
550.4315, 5.469055
550.9136, 6.119202
551.3958, 6.659119
551.8779, 7.022095
552.3600, 6.977173
552.8421, 6.445801
553.3242, 5.761536
553.8063, 4.950806
554.2885, 4.071960
554.7706, 3.646973
555.2527, 3.714905
555.7348, 3.874207
556.2169, 3.883911
556.6990, 3.715698
557.1812, 3.195618
557.6633, 2.190002
558.1454, 1.284058
558.6275, 0.9403080
559.1096, 1.114258
559.5917, 1.722107
560.0739, 3.452393
560.5560, 4.918274
561.0381, 5.328552
561.5202, 4.848816
562.0023, 4.238403
562.4844, 3.465027
562.9666, 2.783569
563.4487, 2.299561
563.9308, 2.007751
564.4129, 1.878479
564.8950, 1.885803
565.3771, 2.070984
565.8593, 2.557007
566.3414, 3.495667
566.8235, 4.049927
567.3056, 4.094116
567.7877, 3.813904
568.2698, 3.443970
568.7520, 2.995361
569.2341, 2.714661
569.7162, 2.936035
570.1983, 3.301575
570.6804, 3.184265
571.1625, 2.588989
571.6447, 1.775330
572.1268, 0.4813230
572.6089, 0.7225950
573.0910, 1.146118
573.5731, 0.6263430
574.0552, 0.2251590
574.5374, 1.527344
575.0195, 2.848328
575.5016, 3.758179
575.9837, 3.575134
576.4658, 3.751587
576.9479, 4.819092
577.4301, 6.206543
577.9122, 6.716125
578.3943, 5.686096
578.8764, 5.089783
579.3585, 5.733643
579.8406, 7.335632
580.3228, 7.756165
580.8049, 6.825867
581.2870, 5.748718
581.7691, 5.425842
582.2512, 5.668457
582.7333, 5.697632
583.2155, 5.502014
583.6975, 5.085449
584.1796, 4.413330
584.6617, 3.732422
585.1439, 3.442871
585.6260, 3.774719
586.1081, 4.323853
586.5902, 5.167603
587.0723, 6.030884
587.5544, 6.362061
588.0366, 5.213623
588.5187, 4.305847
589.0008, 4.308044
589.4829, 5.173523
589.9650, 5.831909
590.4471, 6.262451
590.9293, 6.457886
591.4114, 6.347900
591.8935, 5.864380
592.3756, 5.488953
592.8577, 5.141785
593.3398, 5.019775
593.8220, 5.490723
594.3041, 6.429138
594.7862, 6.676697
595.2683, 5.823914
595.7504, 4.756592
596.2325, 4.745056
596.7147, 5.472534
597.1968, 6.082092
597.6789, 6.077332
598.1610, 5.941467
598.6431, 6.225403
599.1252, 6.756714
599.6074, 6.737366
600.0895, 5.118591
600.5716, 3.521790
601.0537, 2.784607
601.5358, 3.164429
602.0179, 3.525940
602.5001, 4.140381
602.9822, 4.450623
603.4643, 3.942505
603.9464, 2.324219
604.4285, 0.8931270
604.9106, 0.4786380
605.3928, 1.269897
605.8749, 0.1788330
606.3570, 2.605469
606.8391, 4.542419
607.3212, 4.505981
607.8033, 3.677979
608.2855, 3.924561
608.7676, 4.957520
609.2497, 5.763855
609.7318, 5.717651
610.2139, 5.249695
610.6960, 4.390320
611.1782, 3.197205
611.6603, 2.710510
612.1424, 4.144653
612.6245, 5.649231
613.1066, 6.081909
613.5887, 4.759949
614.0709, 3.809265
614.5530, 3.432190
615.0351, 3.254028
615.5172, 2.841492
615.9993, 2.097046
616.4814, 1.569458
616.9636, 1.294373
617.4457, 1.337585
617.9278, 2.091431
618.4099, 3.450317
618.8920, 4.359497
619.3741, 4.147583
619.8563, 3.402039
620.3384, 2.812744
620.8205, 2.397766
621.3026, 2.281067
621.7847, 2.774780
622.2668, 3.416077
622.7490, 4.010010
623.2311, 4.591248
623.7132, 4.530701
624.1953, 3.005554
624.6774, 1.250000
625.1595, 0.1333620
625.6417, 2.6366999E-02
626.1238, 4.5410000E-02
626.6059, 0.3210450
627.0880, 0.5933840
627.5701, 0.1411130
628.0522, 2.063171
628.5344, 3.143494
629.0165, 2.822693
629.4986, 1.640869
629.9807, 0.2762450
630.4628, 1.090637
630.9449, 1.821045
631.4271, 1.033447
631.9092, 9.7228996E-02
632.3913, 0.2902830
632.8734, 0.3159180
633.3555, 0.9055790
633.8376, 0.8081670
634.3198, 0.7619020
634.8019, 1.415833
635.2840, 3.114014
635.7661, 3.972717
636.2482, 3.191406
636.7303, 2.039246
637.2125, 1.356750
637.6946, 1.267151
638.1767, 1.406616
638.6588, 1.967896
639.1409, 2.419983
639.6230, 1.599609
640.1052, 0.3546750
640.5873, 1.236816
641.0694, 8.5754000E-02
641.5515, 1.725220
642.0336, 2.020691
642.5157, 1.225769
642.9979, 0.5876460
643.4800, 0.9180300
643.9621, 1.452271
644.4442, 1.638611
644.9263, 1.530884
645.4084, 1.503540
645.8906, 1.863586
646.3727, 2.166626
646.8548, 2.118530
647.3369, 1.629578
647.8190, 1.543701
648.3011, 2.196045
648.7833, 2.750488
649.2654, 2.340271
649.7475, 0.8148800
650.2296, 0.4025270
650.7117, 1.458191
651.1938, 2.726440
651.6760, 2.251465
652.1581, 0.6585690
652.6402, 2.5451999E-02
653.1223, 1.046875
653.6044, 2.495911
654.0865, 3.197510
654.5687, 3.376343
655.0508, 3.477966
655.5329, 3.860107
656.0150, 4.002197
656.4971, 3.329773
656.9792, 2.123230
657.4614, 1.881042
657.9435, 3.559937
658.4256, 4.929993
658.9077, 5.225708
659.3898, 4.486755
659.8719, 3.504456
660.3541, 2.143494
660.8362, 1.161133
661.3183, 1.451721
661.8004, 2.605103
662.2825, 2.868347
662.7646, 2.050537
663.2468, 1.194763
663.7289, 1.712585
664.2110, 2.695496
664.6931, 2.854126
665.1752, 1.549927
665.6573, 0.3938600
666.1395, 0.2630000
666.6216, 0.6162720
667.1037, 0.7852780
667.5858, 0.6757200
668.0679, 0.3416750
668.5500, 0.5228270
669.0322, 1.473511
669.5143, 1.347839
669.9964, 0.1544190
670.4785, 1.242798
670.9606, 1.193481
671.4427, 0.4787600
671.9249, 0.4390870
672.4070, 0.9982300
672.8891, 1.571228
673.3712, 1.580444
673.8533, 1.544556
674.3354, 2.346130
674.8176, 3.881653
675.2997, 4.860901
675.7818, 3.979309
676.2639, 2.837830
676.7460, 2.511108
677.2281, 3.438904
677.7103, 3.876343
678.1924, 3.254944
678.6745, 2.636719
679.1566, 2.948242
679.6387, 4.531189
680.1208, 5.367188
680.6030, 5.234009
681.0851, 4.661133
681.5672, 3.968445
682.0493, 3.330627
682.5314, 3.687622
683.0135, 5.671387
683.4957, 7.710999
683.9778, 7.812561
684.4599, 6.832886
684.9420, 6.316528
685.4241, 7.384338
685.9063, 8.313965
686.3884, 8.531128
686.8705, 8.276367
687.3526, 8.138855
687.8347, 7.906189
688.3168, 8.194580
688.7990, 9.482117
689.2811, 11.48602
689.7632, 11.98065
690.2453, 10.76636
690.7274, 9.524292
691.2095, 9.130798
691.6917, 9.420898
692.1738, 10.28827
692.6559, 11.66431
693.1380, 12.39545
693.6201, 10.55359
694.1022, 8.258972
694.5844, 7.797546
695.0665, 9.764526
695.5486, 11.46570
696.0307, 11.82068
696.5128, 11.62628
696.9949, 11.49921
697.4771, 11.39569
697.9592, 11.48041
698.4413, 11.87048
698.9234, 12.38184
699.4055, 12.62091
699.8876, 12.58832
700.3698, 12.32446
700.8519, 11.82080
701.3340, 11.19598
701.8161, 10.64404
702.2982, 10.10895
702.7803, 9.396729
703.2625, 7.936157
703.7446, 6.908081
704.2267, 7.009216
704.7088, 8.122131
705.1909, 10.01031
705.6730, 14.53278
706.1552, 17.59241
706.6373, 17.61835
707.1194, 15.28931
707.6015, 14.02228
708.0836, 14.20483
708.5657, 14.32196
709.0479, 13.59204
709.5300, 12.28461
710.0121, 11.67297
710.4942, 11.73206
710.9763, 11.92450
711.4584, 11.76971
711.9406, 11.59723
712.4227, 12.03094
712.9048, 13.06720
713.3869, 13.67883
713.8690, 13.20923
714.3511, 12.28571
714.8333, 11.24908
715.3154, 10.01715
715.7975, 9.230652
716.2796, 9.388550
716.7617, 9.424561
717.2438, 8.139343
717.7260, 5.288391
718.2081, 4.221558
718.6902, 5.448853
719.1723, 7.245972
719.6544, 7.484192
720.1365, 6.694519
720.6187, 6.223267
721.1008, 6.423401
721.5829, 6.796753
722.0650, 7.003174
722.5471, 7.120789
723.0292, 7.272583
723.5114, 7.530762
723.9935, 7.742554
724.4756, 7.584839
724.9577, 7.454407
725.4398, 8.179993
725.9219, 10.19916
726.4041, 11.63818
726.8862, 12.05164
727.3683, 11.67328
727.8504, 10.62982
728.3325, 9.025146
728.8146, 7.856506
729.2968, 7.786194
729.7789, 8.224365
730.2610, 8.630859
730.7431, 8.983765
731.2252, 9.255859
731.7073, 9.336548
732.1895, 9.457336
732.6716, 9.886719
733.1537, 10.54089
733.6358, 10.54102
734.1179, 9.617493
734.6000, 8.547974
735.0822, 7.558533
735.5643, 6.661865
736.0464, 6.165405
736.5285, 6.089294
737.0106, 6.176025
737.4927, 6.421143
737.9749, 6.639160
738.4570, 6.441101
738.9391, 5.829651
739.4212, 5.249756
739.9033, 5.057739
740.3854, 4.880920
740.8676, 4.378479
741.3497, 3.314636
741.8318, 2.820007
742.3139, 3.488159
742.7960, 4.119507
743.2781, 3.767639
743.7603, 2.208313
744.2424, 1.257080
744.7245, 1.086243
745.2066, 1.255554
745.6887, 1.104919
746.1708, 0.6895750
746.6530, 0.5430910
747.1351, 0.8474120
747.6172, 1.131897
748.0993, 0.7277220
748.5814, 0.2600100
749.0635, 0.4566650
749.5457, 2.247986
750.0278, 3.444519
750.5099, 3.278015
750.9920, 2.680359
751.4741, 2.766296
751.9562, 3.739685
752.4384, 4.459717
752.9205, 4.732666
753.4026, 4.687134
753.8847, 4.289368
754.3668, 3.692261
754.8489, 3.600586
755.3311, 4.496826
755.8132, 5.468750
756.2953, 5.769104
756.7774, 5.548279
757.2595, 5.085266
757.7416, 4.042969
758.2238, 3.283813
758.7059, 3.184509
759.1880, 3.485657
759.6701, 3.658813
760.1522, 3.747681
760.6343, 3.587830
761.1165, 3.047424
761.5986, 2.345947
762.0807, 2.189453
762.5628, 2.442322
763.0449, 2.266785
763.5270, 0.5397340
764.0092, 1.137207
764.4913, 0.9604490
764.9734, 0.5380860
765.4555, 1.755371
765.9376, 1.759644
766.4197, 1.741943
766.9019, 2.195679
767.3840, 2.967346
767.8661, 3.371582
768.3482, 3.353516
768.8303, 3.072205
769.3124, 2.362610
769.7946, 1.524414
770.2767, 1.657227
770.7588, 2.667175
771.2409, 3.996460
771.7230, 6.122681
772.2051, 7.894897
772.6873, 7.709961
773.1694, 5.762024
773.6515, 4.065186
774.1336, 3.331116
774.6157, 3.033508
775.0978, 3.088379
775.5800, 3.474976
776.0621, 3.597656
776.5442, 3.437256
777.0263, 3.221008
777.5084, 2.901489
777.9905, 2.531189
778.4727, 2.347229
778.9548, 2.376465
779.4369, 2.510925
779.9190, 2.785828
780.4011, 3.029663
780.8832, 2.982849
781.3654, 2.686829
781.8475, 2.701965
782.3296, 2.378784
782.8117, 3.065857
783.2938, 6.050171
783.7759, 11.83777
784.2581, 14.11359
784.7402, 12.04083
785.2223, 9.126648
785.7044, 7.934753
786.1865, 7.944580
786.6686, 6.745850
787.1508, 4.323364
787.6329, 2.257690
788.1150, 2.022766
788.5971, 2.542542
789.0792, 2.677490
789.5613, 2.202820
790.0435, 2.336060
790.5256, 4.524231
791.0077, 6.417786
791.4898, 6.400085
791.9719, 3.986267
792.4540, 3.081360
792.9362, 3.864868
793.4183, 5.455566
793.9004, 7.962891
794.3825, 10.60168
794.8646, 10.77118
795.3467, 8.301697
795.8289, 5.475281
796.3110, 3.411133
796.7931, 2.109009
797.2752, 1.832336
797.7573, 2.968872
798.2394, 3.537048
798.7216, 3.031860
799.2037, 2.261597
799.6858, 1.670837
800.1679, 1.265625
800.6500, 1.243164
801.1321, 1.714539
801.6143, 1.940430
802.0964, 0.5647580
802.5785, 1.335754
803.0606, 1.351318
803.5427, 0.9100950
804.0248, 2.925598
804.5070, 3.044556
804.9891, 2.435730
805.4712, 1.892761
805.9533, 1.400085
806.4354, 1.336304
806.9175, 1.902283
807.3997, 2.603455
807.8818, 3.129883
808.3639, 3.462952
808.8460, 3.446289
809.3281, 3.048584
809.8102, 2.782104
810.2924, 3.106445
810.7745, 3.777954
811.2566, 4.574036
811.7387, 5.418823
812.2208, 5.800354
812.7029, 5.153992
813.1851, 4.612122
813.6672, 5.058167
814.1493, 6.930725
814.6314, 7.871704
815.1135, 7.684143
815.5956, 7.020630
816.0778, 6.041870
816.5599, 4.960205
817.0420, 5.041748
817.5241, 6.370605
818.0062, 7.592285
818.4883, 7.311584
818.9705, 6.628357
819.4526, 6.816406
819.9347, 8.189270
820.4168, 8.817383
820.8989, 7.467896
821.3810, 5.946106
821.8632, 5.233215
822.3453, 5.570801
822.8274, 5.497803
823.3095, 4.917725
823.7916, 4.218262
824.2737, 3.835144
824.7559, 3.684570
825.2380, 3.554749
825.7201, 3.408020
826.2022, 3.135742
826.6843, 2.257996
827.1664, 1.679077
827.6486, 2.364197
828.1307, 4.711426
828.6128, 5.361511
829.0949, 3.256714
829.5770, 1.313477
830.0591, 1.337769
830.5413, 3.103943
831.0234, 4.156982
831.5055, 4.488281
831.9876, 4.535767
832.4697, 4.797485
832.9518, 4.828186
833.4340, 3.762695
833.9161, 1.690002
834.3982, 0.4176030
834.8803, 1.496277
835.3624, 2.600952
835.8445, 2.508850
836.3267, 1.308838
836.8088, 1.391113
837.2909, 3.161865
837.7730, 4.348145
838.2551, 3.133484
838.7372, 0.5946040
839.2194, 0.6179200
839.7015, 0.6268920
840.1836, 0.1710210
840.6657, 0.8372800
841.1478, 1.744812
841.6299, 2.038025
842.1121, 1.760071
842.5942, 1.511963
843.0763, 1.432556
843.5584, 1.157715
844.0405, 0.3055420
844.5226, 0.7595210
845.0048, 0.2830810
845.4869, 1.611511
845.9690, 3.281189
846.4511, 4.038025
846.9332, 4.015808
847.4153, 2.825562
847.8975, 0.9435420
848.3796, 0.2935790
848.8617, 0.2118530
849.3438, 0.6867070
849.8259, 0.4807130
850.3080, 6.4940996E-02
850.7902, 0.1025390
851.2723, 0.3976440
851.7544, 1.371033
852.2365, 3.088318
852.7186, 4.798706
853.2007, 4.863953
853.6829, 3.794067
854.1650, 3.012573
854.6471, 3.230713
855.1292, 3.670044
855.6113, 3.867493
856.0934, 4.051086
856.5756, 4.773254
857.0577, 6.963074
857.5398, 7.636963
858.0219, 5.997437
858.5040, 3.486328
858.9861, 2.409790
859.4683, 2.557129
859.9504, 2.830017
860.4325, 2.895813
860.9146, 3.055481
861.3967, 3.840576
861.8788, 4.745911
862.3610, 5.216980
862.8431, 5.007202
863.3252, 4.485535
863.8073, 3.306152
864.2894, 2.258789
864.7715, 2.432617
865.2537, 3.957581
865.7358, 4.263123
866.2179, 3.094482
866.7000, 1.302124
867.1821, 0.7127080
867.6642, 2.591187
868.1464, 3.973633
868.6285, 4.908325
869.1106, 4.500732
869.5927, 0.9773560
870.0748, 2.851563
870.5569, 5.114868
871.0391, 5.593140
871.5212, 5.723145
872.0033, 5.412109
872.4854, 4.970459
872.9675, 4.654297
873.4496, 4.340576
873.9318, 3.661621
874.4139, 2.619995
874.8960, 1.674438
875.3781, 1.307861
875.8602, 0.9285890
876.3423, 4.2969000E-02
876.8245, 1.338501
877.3066, 2.166870
877.7887, 2.320801
878.2708, 2.049316
878.7529, 1.139282
879.2350, 4.4922002E-02
879.7172, 0.1005860
880.1993, 1.311890
880.6814, 2.065674
881.1635, 0.8327640
881.6456, 0.5317380
882.1277, 0.3385010
882.6099, 0.8657230
883.0920, 1.422607
883.5741, 0.3551030
884.0562, 0.3355710
884.5383, 4.6386998E-02
885.0204, 0.6276860
885.5026, 0.2177730
885.9847, 1.213867
886.4668, 2.546143
886.9489, 3.383911
887.4310, 4.024414
887.9131, 4.922729
888.3953, 5.938477
888.8774, 6.800171
889.3595, 8.117798
889.8416, 8.173706
890.3237, 5.961060
890.8058, 3.122192
891.2880, 1.164063
891.7701, 5.4198999E-02
892.2522, 0.2465820
892.7343, 2.115112
893.2164, 3.896240
893.6985, 3.221924
894.1807, 1.422241
894.6628, 0.5833740
895.1449, 1.186646
895.6270, 1.840576
896.1091, 2.183594
896.5912, 2.193970
897.0734, 1.881836
897.5555, 1.292114
898.0376, 0.8082280
898.5197, 0.4478760
899.0018, 0.3159180
899.4839, 0.4674070
899.9661, 0.8869630
900.4482, 1.830566
900.9303, 3.171387
901.4124, 3.982788
901.8945, 3.515869
902.3766, 2.638794
902.8588, 1.393311
903.3409, 0.1406250
903.8230, 0.4151610
904.3051, 2.628784
904.7872, 4.531250
905.2693, 5.299438
905.7515, 5.362915
906.2336, 5.496948
906.7157, 5.811157
907.1978, 6.394043
907.6799, 7.788208
908.1620, 8.722900
908.6442, 8.311035
909.1263, 7.267822
909.6084, 6.798340
910.0905, 7.255249
910.5726, 7.290405
911.0547, 6.584717
911.5369, 5.983154
912.0190, 7.074829
912.5011, 9.159058
912.9832, 10.04333
913.4653, 9.164063
913.9474, 8.357300
914.4296, 8.841675
914.9117, 9.856567
915.3938, 10.84790
915.8759, 11.86169
916.3580, 12.25317
916.8401, 11.69788
917.3223, 11.26648
917.8044, 12.20154
918.2865, 13.85681
918.7686, 13.28308
919.2507, 10.76794
919.7328, 9.094482
920.2150, 11.22876
920.6971, 13.66724
921.1792, 14.05762
921.6613, 12.61279
922.1434, 11.67456
922.6255, 11.28809
923.1077, 11.54126
923.5898, 12.77405
924.0719, 14.32556
924.5540, 14.16016
925.0361, 12.76917
925.5182, 12.54626
926.0004, 15.37073
926.4825, 18.04810
926.9646, 18.08484
927.4467, 17.13086
927.9288, 17.42139
928.4109, 20.41858
928.8931, 21.51794
929.3752, 19.91528
929.8573, 17.57495
930.3394, 16.66541
930.8215, 16.89868
931.3036, 17.34216
931.7858, 17.93018
932.2679, 18.31140
932.7500, 17.91943
933.2321, 17.51746
933.7142, 17.89258
934.1964, 19.27222
934.6785, 19.77222
935.1606, 19.21509
935.6427, 18.31458
936.1248, 17.05737
936.6069, 15.88599
937.0891, 16.59265
937.5712, 18.77197
938.0533, 20.59460
938.5354, 20.43311
939.0175, 20.39771
939.4996, 22.13147
939.9818, 24.76428
940.4639, 25.76685
940.9460, 24.25842
941.4281, 23.31958
941.9102, 23.47070
942.3923, 24.28125
942.8745, 25.54834
943.3566, 26.97559
943.8387, 27.28137
944.3208, 25.67151
944.8029, 24.65125
945.2850, 26.66565
945.7672, 29.30896
946.2493, 30.12390
946.7314, 28.33240
947.2135, 27.84119
947.6956, 28.91882
948.1777, 30.41663
948.6599, 31.65625
949.1420, 32.57324
949.6241, 32.94360
950.1062, 32.78857
950.5883, 32.31042
951.0704, 31.14917
951.5526, 30.13245
952.0347, 29.61365
952.5168, 29.57800
952.9989, 30.20105
953.4810, 31.73376
953.9631, 32.69189
954.4453, 32.55444
954.9274, 31.80933
955.4095, 30.88574
955.8916, 30.03918
956.3737, 29.87598
956.8558, 31.11658
957.3380, 32.08716
957.8201, 32.06348
958.3022, 31.64001
958.7843, 31.23059
959.2664, 30.70312
959.7485, 31.24597
960.2307, 33.04724
960.7128, 34.76208
961.1949, 34.92505
961.6770, 34.38757
962.1591, 34.49011
962.6412, 35.26050
963.1234, 35.51599
963.6055, 33.87061
964.0876, 32.71960
964.5697, 33.02588
965.0518, 34.44641
965.5339, 35.68323
966.0161, 36.72754
966.4982, 37.26514
966.9803, 36.78210
967.4624, 36.36792
967.9445, 37.85205
968.4266, 40.09595
968.9088, 41.18213
969.3909, 39.67358
969.8730, 38.30273
970.3551, 37.33594
970.8372, 36.47058
971.3193, 35.11255
971.8015, 33.43567
972.2836, 33.18921
972.7657, 34.56836
973.2478, 36.01746
973.7299, 36.60266
974.2120, 36.53101
974.6942, 35.68042
975.1763, 34.05884
975.6584, 33.15430
976.1405, 33.05981
976.6226, 33.66858
977.1047, 35.44141
977.5869, 37.46619
978.0690, 36.37317
978.5511, 33.12036
979.0332, 31.39746
979.5153, 33.94678
979.9974, 36.50806
980.4796, 36.65869
980.9617, 35.48938
981.4438, 34.48291
981.9259, 33.42676
982.4080, 33.61890
982.8901, 35.51843
983.3723, 37.18579
983.8544, 36.16077
984.3365, 33.72314
984.8186, 32.29956
985.3007, 32.06152
985.7828, 31.80347
986.2650, 30.46948
986.7471, 29.62634
987.2292, 29.94031
987.7113, 31.17920
988.1934, 32.70081
988.6755, 34.57458
989.1577, 35.36560
989.6398, 34.25647
990.1219, 32.21045
990.6040, 29.44800
991.0861, 26.79626
991.5682, 25.69287
992.0504, 27.93665
992.5325, 29.64795
993.0146, 30.56091
993.4967, 30.83215
993.9788, 30.36694
994.4609, 29.30530
994.9431, 29.10596
995.4252, 29.84180
995.9073, 29.98413
996.3894, 27.66809
996.8715, 24.96838
997.3536, 23.48889
997.8358, 23.23242
998.3179, 22.65051
998.8000, 21.49341
999.2821, 20.56079
999.7642, 20.01025
1000.246, 19.92896
1000.728, 20.79382
1001.211, 22.25793
1001.693, 23.48010
1002.175, 24.55347
1002.657, 24.60400
1003.139, 22.49512
1003.621, 19.68994
1004.103, 17.45825
1004.585, 15.79968
1005.068, 14.78772
1005.550, 14.44897
1006.032, 14.32971
1006.514, 13.98157
1006.996, 13.68591
1007.478, 14.09155
1007.960, 14.97339
1008.442, 15.09802
1008.924, 12.99866
1009.407, 11.56067
1009.889, 11.57019
1010.371, 12.33984
1010.853, 12.63928
1011.335, 12.45801
1011.817, 11.52917
1012.299, 9.611572
1012.781, 7.820557
1013.263, 6.848022
1013.746, 6.536865
1014.228, 6.925415
1014.710, 8.254517
1015.192, 9.041138
1015.674, 9.322388
1016.156, 8.958252
1016.638, 7.186890
1017.120, 5.018677
1017.603, 4.889893
1018.085, 6.334595
1018.567, 7.759521
1019.049, 8.494019
1019.531, 8.972168
1020.013, 9.257446
1020.495, 9.345703
1020.977, 9.254639
1021.459, 8.969238
1021.942, 8.176758
1022.424, 6.730103
1022.906, 5.562988
1023.388, 6.145508
1023.870, 7.054810
1024.352, 6.798706
1024.834, 5.158447
1025.316, 3.527832
1025.799, 1.917847
1026.281, 0.6075440
1026.763, 0.2998050
1027.245, 0.7817380
1027.727, 0.6237790
1028.209, 1.3062000E-02
1028.691, 0.3955080
1029.173, 0.2701420
1029.656, 1.4650000E-03
1030.138, 0.7520750
1030.620, 1.237183
1031.102, 0.5024410
1031.584, 1.836914
1032.066, 3.038696
1032.548, 2.958740
1033.030, 2.472534
1033.512, 1.875977
1033.995, 1.541992
1034.477, 2.283569
1034.959, 3.862671
1035.441, 4.676025
1035.923, 3.504028
1036.405, 2.887207
1036.887, 3.634521
1037.369, 4.832397
1037.851, 4.652710
1038.334, 3.366211
1038.816, 1.878052
1039.298, 0.2922360
1039.780, 0.9843750
1040.262, 1.583740
1040.744, 1.858276
1041.226, 2.165771
1041.708, 2.556274
1042.191, 1.929077
1042.673, 6.6771999E-02
1043.155, 1.004883
1043.637, 0.6901860
1044.119, 3.027344
1044.601, 3.119629
1045.083, 1.536255
1045.565, 0.4167480
1046.047, 3.339111
1046.530, 5.111938
1047.012, 5.236450
1047.494, 4.645264
1047.976, 4.148438
1048.458, 3.805420
1048.940, 3.889771
1049.422, 4.417969
1049.904, 5.480957
1050.386, 7.883423
1050.869, 10.18323
1051.351, 11.11121
1051.833, 11.15393
1052.315, 12.37488
1052.797, 14.95325
1053.279, 17.23987
1053.761, 18.81738
1054.243, 19.97778
1054.726, 20.73132
1055.208, 21.47168
1055.690, 22.85437
1056.172, 25.32800
1056.654, 27.39185
1057.136, 28.60327
1057.618, 30.02905
1058.100, 32.33325
1058.583, 35.34607
1059.065, 38.52637
1059.547, 41.82629
1060.029, 45.07776
1060.511, 48.21277
1060.993, 51.10559
1061.475, 53.56970
1061.957, 55.85400
1062.439, 58.05090
1062.922, 60.00378
1063.404, 63.76184
1063.886, 69.71924
1064.368, 75.20715
1064.850, 77.03113
1065.332, 77.70386
1065.814, 79.93286
1066.296, 83.74524
1066.778, 87.18079
1067.261, 89.98730
1067.743, 92.22339
1068.225, 93.61572
1068.707, 95.15857
1069.189, 99.01636
1069.671, 104.3368
1070.153, 109.2604
1070.635, 113.4288
1071.118, 116.5760
1071.600, 117.6543
1072.082, 118.5005
1072.564, 120.2812
1073.046, 122.8364
1073.528, 124.1779
1074.010, 124.5231
1074.492, 125.8423
1074.974, 130.3025
1075.457, 134.4028
1075.939, 135.0710
1076.421, 134.1202
1076.903, 134.4341
1077.385, 136.8510
1077.867, 137.6129
1078.349, 136.3313
1078.831, 134.6051
1079.313, 133.6875
1079.796, 133.3503
1080.278, 133.7007
1080.760, 134.4906
1081.242, 134.2499
1081.724, 131.0778
1082.206, 128.7532
1082.688, 128.4421
1083.170, 128.9086
1083.652, 127.9569
1084.135, 125.8036
1084.617, 123.2697
1085.099, 120.4906
1085.581, 117.7288
1086.063, 115.4000
1086.545, 112.8322
1087.027, 109.3376
1087.509, 105.2029
1087.992, 102.5001
1088.474, 101.1016
1088.956, 99.37195
1089.438, 96.72632
1089.920, 93.41943
1090.402, 89.00012
1090.884, 84.38196
1091.366, 80.85107
1091.849, 79.15454
1092.331, 76.65857
1092.813, 73.11890
1093.295, 69.67407
1093.777, 67.67688
1094.259, 66.08459
1094.741, 62.76233
1095.223, 58.03345
1095.705, 53.10266
1096.188, 47.51831
1096.670, 43.12964
1097.152, 40.58679
1097.634, 38.76440
1098.116, 36.28845
1098.598, 33.23401
1099.080, 29.72668
1099.562, 25.79663
1100.044, 22.64709
1100.527, 21.94714
1101.009, 21.24976
1101.491, 18.90100
1101.973, 15.53723
1102.455, 13.61523
1102.937, 13.21667
1103.419, 12.21899
1103.901, 9.848267
1104.384, 7.619995
1104.866, 7.585815
1105.348, 8.104248
1105.830, 7.406250
1106.312, 5.136597
1106.794, 3.074707
1107.276, 1.088257
1107.758, 0.1593020
1108.240, 0.1392820
1108.723, 0.4862060
1109.205, 0.5976560
1109.687, 0.4847410
1110.169, 0.7213130
1110.651, 1.678101
1111.133, 2.664063
1111.615, 4.045532
1112.097, 4.750122
1112.579, 3.229492
1113.062, 0.3780520
1113.544, 0.6029050
1114.026, 7.8125000E-02
1114.508, 1.302246
1114.990, 3.423340
1115.472, 4.883911
1115.954, 5.231201
1116.436, 4.665039
1116.919, 2.942017
1117.401, 0.2127690
1117.883, 1.126465
1118.365, 0.8511960
1118.847, 0.2402340
1119.329, 2.9906999E-02
1119.811, 6.4208999E-02
1120.293, 0.2216800
1120.776, 0.4234620
1121.258, 0.3808590
1121.740, 1.1963000E-02
1122.222, 0.5083010
1122.704, 2.502563
1123.186, 4.135132
1123.668, 2.678589
1124.150, 0.3862300
1124.632, 0.1236570
1125.115, 1.669189
1125.597, 2.344116
1126.079, 1.557983
1126.561, 0.6402590
1127.043, 4.6631001E-02
1127.525, 0.2983400
1128.007, 0.4005130
1128.489, 0.3778080
1128.971, 0.4635010
1129.454, 0.7584230
1129.936, 0.8911130
1130.418, 0.5401610
1130.900, 0.5197750
1131.382, 1.814819
1131.864, 3.611206
1132.346, 2.967651
1132.828, 0.6231690
1133.311, 0.9583740
1133.793, 0.7503660
1134.275, 1.318115
1134.757, 0.9753420
1135.239, 3.896851
1135.721, 5.282837
1136.203, 5.307617
1136.685, 5.905396
1137.167, 7.017578
1137.650, 7.593750
1138.132, 6.120972
1138.614, 4.919800
1139.096, 5.861938
1139.578, 7.473877
1140.060, 7.145386
1140.542, 4.832886
1141.024, 3.544678
1141.506, 3.661133
1141.989, 3.915894
1142.471, 3.174194
1142.953, 2.319824
1143.435, 2.269531
1143.917, 2.764282
1144.399, 2.073120
1144.881, 0.2091060
1145.363, 0.6491700
1145.846, 1.834351
1146.328, 4.888062
1146.810, 6.409058
1147.292, 6.762817
1147.774, 5.822998
1148.256, 3.426880
1148.738, 2.963867
1149.220, 5.052856
1149.703, 6.959106
1150.185, 7.739136
1150.667, 7.836548
1151.149, 7.724854
1151.631, 7.465454
1152.113, 7.110962
1152.595, 6.569702
1153.077, 6.385010
1153.559, 6.703979
1154.042, 7.143188
1154.524, 7.633057
1155.006, 8.012451
1155.488, 7.899536
1155.970, 7.375122
1156.452, 6.609497
1156.934, 5.235352
1157.416, 4.448853
1157.898, 4.493408
1158.381, 4.927246
1158.863, 5.693115
1159.345, 6.569336
1159.827, 6.366211
1160.309, 5.373901
1160.791, 4.769775
1161.273, 5.575684
1161.755, 6.166870
1162.238, 5.927368
1162.720, 5.508179
1163.202, 5.523926
1163.684, 5.963379
1164.166, 7.063232
1164.648, 8.679810
1165.130, 9.537964
1165.612, 8.198364
1166.094, 6.693726
1166.577, 5.719971
1167.059, 5.238892
1167.541, 5.547363
1168.023, 6.550781
1168.505, 6.427124
1168.987, 4.977661
1169.469, 4.090210
1169.951, 5.611938
1170.433, 7.582642
1170.916, 9.014282
1171.398, 9.899414
1171.880, 10.35107
1172.362, 10.37341
1172.844, 9.961792
1173.326, 9.028564
1173.808, 8.289063
1174.290, 8.618896
1174.773, 9.135132
1175.255, 8.851196
1175.737, 7.981445
1176.219, 8.317871
1176.701, 9.984253
1177.183, 10.57300
1177.665, 9.122925
1178.147, 7.566162
1178.630, 8.219116
1179.112, 9.401733
1179.594, 9.278320
1180.076, 7.649048
1180.558, 6.835693
1181.040, 6.931274
1181.522, 7.149048
1182.004, 7.064209
1182.486, 6.863525
1182.969, 6.493042
1183.451, 6.319702
1183.933, 7.032959
1184.415, 8.577271
1184.897, 9.871460
1185.379, 11.00500
1185.861, 11.52441
1186.343, 10.88293
1186.825, 9.916260
1187.308, 9.695190
1187.790, 9.794189
1188.272, 9.575928
1188.754, 8.958862
1189.236, 7.550537
1189.718, 4.997437
1190.200, 3.510254
1190.682, 5.503296
1191.165, 8.574219
1191.647, 9.675659
1192.129, 9.412109
1192.611, 9.002930
1193.093, 8.316284
1193.575, 8.147705
1194.057, 8.703979
1194.539, 8.931152
1195.021, 7.247314
1195.504, 5.255493
1195.986, 5.405396
1196.468, 7.080566
1196.950, 8.455566
1197.432, 9.224487
1197.914, 9.573120
1198.396, 9.378662
1198.878, 9.050537
1199.360, 9.037598
1199.843, 9.131958
1200.325, 8.917114
1200.807, 8.500366
1201.289, 8.420532
1201.771, 8.991699
1202.253, 9.492065
1202.735, 9.816040
1203.217, 9.958984
1203.700, 9.890869
1204.182, 9.742188
1204.664, 9.510498
1205.146, 9.286255
1205.628, 9.821655
1206.110, 12.03308
1206.592, 12.88245
1207.074, 11.63452
1207.557, 9.736450
1208.039, 8.644043
1208.521, 8.255981
1209.003, 8.564697
1209.485, 9.516113
1209.967, 10.57507
1210.449, 11.77747
1210.931, 12.81812
1211.413, 13.68237
1211.896, 14.30896
1212.378, 14.75769
1212.860, 14.88562
1213.342, 14.36548
1213.824, 13.17664
1214.306, 11.97913
1214.788, 10.58020
1215.270, 9.987915
1215.752, 10.80200
1216.235, 11.78259
1216.717, 11.02551
1217.199, 9.347778
1217.681, 7.722290
1218.163, 6.237305
1218.645, 5.763672
1219.127, 6.934326
1219.609, 7.284180
1220.092, 5.730835
1220.574, 3.643921
1221.056, 2.491211
1221.538, 2.419312
1222.020, 4.095093
1222.502, 7.958496
1222.984, 10.18579
1223.466, 10.28613
1223.948, 9.688843
1224.431, 8.601074
1224.913, 7.694458
1225.395, 8.661255
1225.877, 10.10132
1226.359, 9.833984
1226.841, 6.918213
1227.323, 5.255005
1227.805, 5.231934
1228.287, 5.209229
1228.770, 4.372925
1229.252, 3.463379
1229.734, 3.638794
1230.216, 4.322754
1230.698, 4.678467
1231.180, 4.443848
1231.662, 4.748535
1232.144, 5.699341
1232.627, 6.768921
1233.109, 8.163208
1233.591, 8.813232
1234.073, 6.540161
1234.555, 3.245605
1235.037, 1.727539
1235.519, 2.735229
1236.001, 2.094849
1236.484, 0.4331050
1236.966, 2.082764
1237.448, 0.8748780
1237.930, 0.8878170
1238.412, 0.5091550
1238.894, 0.5314940
1239.376, 0.1302490
1239.858, 3.077759
1240.340, 3.109619
1240.823, 2.0385999E-02
1241.305, 2.058716
1241.787, 0.3277590
1242.269, 2.412231
1242.751, 4.254883
1243.233, 5.366943
1243.715, 5.954102
1244.197, 6.019287
1244.679, 5.678345
1245.162, 4.945679
1245.644, 4.201416
1246.126, 3.364136
1246.608, 2.957520
1247.090, 3.953125
1247.572, 5.275879
1248.054, 5.566650
1248.536, 4.823975
1249.019, 3.759155
1249.501, 2.461914
1249.983, 1.798950
1250.465, 2.924927
1250.947, 3.980591
1251.429, 4.044800
1251.911, 3.526733
1252.393, 2.516846
1252.875, 1.073242
1253.358, 1.063232
1253.840, 2.209595
1254.322, 2.805420
1254.804, 0.8458250
1255.286, 0.3953860
1255.768, 0.9077150
1256.250, 2.612305
1256.732, 2.732300
1257.214, 1.641968
1257.697, 1.625977
1258.179, 2.536621
1258.661, 3.574585
1259.143, 5.385742
1259.625, 5.743408
1260.107, 3.320557
1260.589, 0.9919430
1261.071, 1.483887
1261.554, 3.959473
1262.036, 6.380615
1262.518, 8.407959
1263.000, 9.214722
1263.482, 7.462524
1263.964, 5.748779
1264.446, 4.122070
1264.928, 2.939209
1265.411, 2.617554
1265.893, 2.885986
1266.375, 3.288818
1266.857, 3.846802
1267.339, 4.643066
1267.821, 6.367065
1268.303, 7.106201
1268.785, 6.729248
1269.267, 5.834717
1269.750, 4.501343
1270.232, 2.942017
1270.714, 2.572876
1271.196, 2.860962
1271.678, 2.893799
1272.160, 2.076172
1272.642, 2.171387
1273.124, 3.941772
1273.606, 5.490967
1274.089, 5.177246
1274.571, 4.563843
1275.053, 5.304443
1275.535, 6.597168
1276.017, 7.099854
1276.499, 6.782471
1276.981, 5.304321
1277.463, 2.697144
1277.946, 0.7561040
1278.428, 1.420044
1278.910, 2.326660
1279.392, 1.882080
1279.874, 1.008057
1280.356, 0.5479740
1280.838, 0.5240480
1281.320, 1.903198
1281.802, 4.401001
1282.285, 5.586060
1282.767, 2.664917
1283.249, 8.3495997E-02
1283.731, 0.3852540
1284.213, 9.4116002E-02
1284.695, 0.3414310
1285.177, 0.8463130
1285.659, 4.4312000E-02
1286.141, 2.017456
1286.624, 3.739624
1287.106, 5.077515
1287.588, 5.308838
1288.070, 3.932861
1288.552, 2.476563
1289.034, 2.108765
1289.516, 2.627319
1289.998, 4.039673
1290.481, 5.918457
1290.963, 7.172974
1291.445, 7.433960
1291.927, 7.009155
1292.409, 5.756226
1292.891, 4.402832
1293.373, 3.221191
1293.855, 2.413208
1294.338, 2.226196
1294.820, 2.791016
1295.302, 3.990845
1295.784, 6.260498
1296.266, 7.068359
1296.748, 6.343506
1297.230, 5.458252
1297.712, 5.107422
1298.194, 5.073486
1298.677, 5.179077
1299.159, 5.511597
1299.641, 6.235962
1300.123, 7.379639
1300.605, 7.134155
1301.087, 5.621216
1301.569, 3.823242
1302.051, 1.341187
1302.533, 3.3447001E-02
1303.016, 0.0000000E+00
##END=



