##NAMES=Reyerite
##RRUFFID=R060749
##IDEAL CHEMISTRY=Na_2_Ca_14_Al_2_Si_22_O_58_(OH)_8_&#183;6H_2_O
##LOCALITY=Drynoch, Island of Skye, Scotland
##OWNER=RRUFF
##SOURCE=Michael Scott
##DESCRIPTION=Radiating aggregates of colorless thin hexagonal plates.
##STATUS=The identification of this mineral has been confirmed by single-crystal X-ray diffraction.
##URL=rruff.info/R060749
144.6643, 0.0000000E+00
145.1465, 30.55469
145.6286, 10.50000
146.1107, 6.339844
146.5928, 67.76953
147.0749, 150.6680
147.5570, 187.6641
148.0392, 192.5586
148.5213, 126.4375
149.0034, 77.25781
149.4855, 72.04297
149.9676, 52.00000
150.4497, 17.73047
150.9319, 23.81250
151.4140, 26.80078
151.8961, 84.16797
152.3782, 192.6875
152.8603, 228.2305
153.3424, 74.47266
153.8246, 29.86328
154.3067, 16.75000
154.7888, 125.0430
155.2709, 224.9336
155.7530, 197.7578
156.2351, 138.1289
156.7173, 141.5156
157.1994, 281.8555
157.6815, 439.3164
158.1636, 568.4102
158.6457, 652.3477
159.1278, 746.8555
159.6100, 879.7148
160.0921, 1026.984
160.5742, 1151.539
161.0563, 1225.223
161.5384, 1276.836
162.0205, 1321.305
162.5027, 1361.102
162.9848, 1390.391
163.4669, 1406.531
163.9490, 1409.145
164.4311, 1400.176
164.9132, 1370.402
165.3954, 1334.902
165.8775, 1307.277
166.3596, 1306.613
166.8417, 1303.012
167.3238, 1279.250
167.8059, 1237.605
168.2881, 1190.613
168.7702, 1143.199
169.2523, 1097.043
169.7344, 1053.879
170.2165, 1005.555
170.6986, 967.3086
171.1808, 963.9414
171.6629, 998.6641
172.1450, 1021.664
172.6271, 978.3750
173.1092, 894.6367
173.5913, 821.5703
174.0734, 791.7148
174.5556, 782.4492
175.0377, 759.3984
175.5198, 712.1094
176.0019, 679.1562
176.4840, 711.9258
176.9661, 795.0781
177.4483, 877.0039
177.9304, 929.1523
178.4125, 958.5859
178.8946, 977.2422
179.3767, 982.4258
179.8588, 985.7305
180.3410, 1012.824
180.8231, 1059.105
181.3052, 1093.359
181.7873, 1066.598
182.2694, 1006.426
182.7515, 995.7383
183.2337, 1079.996
183.7158, 1203.152
184.1979, 1241.285
184.6800, 1192.465
185.1621, 1144.926
185.6442, 1224.949
186.1264, 1394.613
186.6085, 1469.105
187.0906, 1314.203
187.5727, 1026.453
188.0548, 927.0195
188.5369, 1035.656
189.0191, 1212.051
189.5012, 1295.367
189.9833, 1292.570
190.4654, 1280.852
190.9475, 1298.809
191.4296, 1339.590
191.9118, 1348.270
192.3939, 1318.863
192.8760, 1273.441
193.3581, 1247.609
193.8402, 1242.562
194.3223, 1231.988
194.8045, 1200.871
195.2866, 1150.406
195.7687, 1100.129
196.2508, 1049.680
196.7329, 1003.527
197.2150, 963.6211
197.6972, 926.9844
198.1793, 920.3711
198.6614, 985.1641
199.1435, 1126.426
199.6256, 1207.098
200.1077, 1195.422
200.5899, 1121.355
201.0720, 1074.172
201.5541, 1054.609
202.0362, 1056.652
202.5183, 1073.250
203.0004, 1107.594
203.4826, 1154.969
203.9647, 1221.410
204.4468, 1299.867
204.9289, 1346.855
205.4110, 1356.988
205.8931, 1346.000
206.3753, 1327.812
206.8574, 1302.344
207.3395, 1268.320
207.8216, 1228.727
208.3037, 1183.195
208.7858, 1109.375
209.2679, 999.0469
209.7501, 883.4844
210.2322, 798.5742
210.7143, 753.3594
211.1964, 714.7227
211.6785, 673.7852
212.1606, 632.2305
212.6428, 600.3477
213.1249, 582.6016
213.6070, 570.3164
214.0891, 543.6172
214.5712, 484.5742
215.0533, 454.3633
215.5355, 490.4219
216.0176, 622.5156
216.4997, 667.4375
216.9818, 578.2383
217.4639, 430.0625
217.9460, 380.3047
218.4282, 476.1602
218.9103, 571.4023
219.3924, 603.3633
219.8745, 548.8750
220.3566, 492.1133
220.8387, 423.4375
221.3209, 357.4492
221.8030, 342.8828
222.2851, 420.1797
222.7672, 483.6055
223.2493, 472.0469
223.7314, 341.7539
224.2136, 251.0156
224.6957, 219.8945
225.1778, 233.5625
225.6599, 236.3672
226.1420, 226.5273
226.6241, 207.5977
227.1063, 175.3750
227.5884, 105.6094
228.0705, 75.16016
228.5526, 102.8203
229.0347, 177.4141
229.5168, 232.5156
229.9990, 264.3047
230.4811, 280.9805
230.9632, 287.9805
231.4453, 284.8125
231.9274, 271.9883
232.4095, 238.5039
232.8917, 188.4258
233.3738, 184.8945
233.8559, 265.6875
234.3380, 351.6289
234.8201, 377.4023
235.3022, 313.7734
235.7844, 244.2305
236.2665, 173.4062
236.7486, 101.5508
237.2307, 67.18359
237.7128, 90.87109
238.1949, 132.7930
238.6771, 154.4727
239.1592, 142.3750
239.6413, 136.1289
240.1234, 145.2383
240.6055, 172.0977
241.0876, 192.3672
241.5698, 192.8945
242.0519, 198.6445
242.5340, 241.5156
243.0161, 350.5273
243.4982, 443.3438
243.9803, 496.0508
244.4624, 501.1289
244.9446, 510.4453
245.4267, 520.1445
245.9088, 533.3555
246.3909, 554.2383
246.8730, 583.3047
247.3551, 615.9570
247.8373, 655.6914
248.3194, 707.7227
248.8015, 730.3516
249.2836, 710.7930
249.7657, 672.2656
250.2478, 651.0391
250.7300, 669.2031
251.2121, 670.0117
251.6942, 635.1133
252.1763, 559.2031
252.6584, 481.1719
253.1405, 391.5547
253.6227, 309.8320
254.1048, 270.1406
254.5869, 293.2188
255.0690, 321.7695
255.5511, 334.5820
256.0333, 322.4414
256.5154, 330.3359
256.9975, 365.3477
257.4796, 414.2500
257.9617, 453.9570
258.4438, 472.6367
258.9260, 501.4766
259.4081, 553.9648
259.8902, 637.3711
260.3723, 714.2500
260.8544, 784.7227
261.3365, 848.2578
261.8186, 905.5000
262.3008, 948.7930
262.7829, 1005.707
263.2650, 1096.238
263.7471, 1240.371
264.2292, 1302.516
264.7113, 1256.711
265.1935, 1159.367
265.6756, 1123.660
266.1577, 1163.805
266.6398, 1223.902
267.1219, 1282.293
267.6040, 1341.324
268.0862, 1386.520
268.5683, 1415.875
269.0504, 1436.258
269.5325, 1452.512
270.0146, 1470.277
270.4967, 1472.762
270.9789, 1434.539
271.4610, 1335.367
271.9431, 1324.293
272.4252, 1438.246
272.9073, 1612.406
273.3894, 1696.980
273.8716, 1663.730
274.3537, 1637.438
274.8358, 1692.105
275.3179, 1841.387
275.8000, 1953.555
276.2821, 2015.320
276.7643, 2044.500
277.2464, 2080.805
277.7285, 2127.281
278.2106, 2161.938
278.6927, 2169.383
279.1748, 2147.816
279.6570, 2117.570
280.1391, 2067.324
280.6212, 2023.945
281.1033, 2058.387
281.5854, 2179.441
282.0675, 2295.273
282.5497, 2362.043
283.0318, 2380.199
283.5139, 2357.105
283.9960, 2286.633
284.4781, 2187.840
284.9602, 2090.547
285.4424, 1994.645
285.9245, 1907.090
286.4066, 1845.719
286.8887, 1804.176
287.3708, 1713.820
287.8529, 1552.371
288.3351, 1378.941
288.8172, 1310.742
289.2993, 1345.965
289.7814, 1375.750
290.2635, 1339.992
290.7456, 1248.082
291.2278, 1133.363
291.7099, 987.3398
292.1920, 846.8945
292.6741, 780.9805
293.1562, 782.3164
293.6383, 787.4297
294.1205, 748.6211
294.6026, 686.1523
295.0847, 666.8789
295.5668, 708.6328
296.0489, 756.8828
296.5310, 732.4414
297.0132, 648.4922
297.4953, 568.8320
297.9774, 529.4258
298.4595, 519.3867
298.9416, 513.6836
299.4237, 508.1250
299.9059, 517.6758
300.3880, 575.4961
300.8701, 666.3281
301.3522, 738.2344
301.8343, 743.1875
302.3164, 716.4258
302.7986, 705.2891
303.2807, 710.6562
303.7628, 735.1914
304.2449, 805.7578
304.7270, 898.3828
305.2091, 954.6016
305.6913, 918.2773
306.1734, 843.4219
306.6555, 788.0586
307.1376, 758.2539
307.6197, 737.0547
308.1018, 710.2109
308.5840, 679.2578
309.0661, 640.9180
309.5482, 589.6914
310.0303, 543.5195
310.5124, 514.6719
310.9945, 504.3906
311.4767, 479.1992
311.9588, 395.9922
312.4409, 291.7656
312.9230, 217.1484
313.4051, 218.1172
313.8872, 235.5977
314.3694, 239.3594
314.8515, 228.3945
315.3336, 203.4531
315.8157, 151.3828
316.2978, 90.32031
316.7799, 40.98438
317.2621, 21.58984
317.7442, 5.980469
318.2263, 13.85938
318.7084, 37.80078
319.1905, 69.10156
319.6726, 140.9727
320.1548, 205.9258
320.6369, 220.6797
321.1190, 93.13281
321.6011, 10.77344
322.0832, 20.05078
322.5653, 64.32422
323.0475, 133.3828
323.5296, 172.8945
324.0117, 186.0898
324.4938, 175.5664
324.9759, 138.2539
325.4580, 81.16797
325.9402, 14.12500
326.4223, 141.6602
326.9044, 225.5898
327.3865, 232.8164
327.8686, 213.6758
328.3507, 197.0938
328.8329, 185.3047
329.3150, 173.8164
329.7971, 158.1641
330.2792, 141.7148
330.7613, 142.9141
331.2434, 189.8945
331.7255, 226.4102
332.2076, 220.4766
332.6898, 136.2852
333.1719, 76.79688
333.6540, 47.33594
334.1361, 45.38672
334.6182, 66.10156
335.1003, 124.2539
335.5825, 180.4688
336.0646, 210.9297
336.5467, 198.6523
337.0288, 216.6758
337.5109, 281.7539
337.9930, 364.4883
338.4752, 401.0898
338.9573, 374.7617
339.4394, 350.6250
339.9215, 358.1602
340.4036, 399.8672
340.8857, 449.4648
341.3679, 513.3320
341.8500, 573.8086
342.3321, 598.8203
342.8142, 588.3555
343.2963, 562.9102
343.7784, 517.5703
344.2606, 459.6719
344.7427, 451.9180
345.2248, 503.8125
345.7069, 576.2656
346.1890, 613.9570
346.6711, 622.7617
347.1533, 653.0469
347.6354, 735.8906
348.1175, 849.2461
348.5996, 938.1406
349.0817, 1000.504
349.5638, 1050.430
350.0460, 1090.238
350.5281, 1125.707
351.0102, 1174.578
351.4923, 1270.016
351.9744, 1358.473
352.4565, 1337.484
352.9387, 1215.934
353.4208, 1100.012
353.9029, 1096.902
354.3850, 1146.926
354.8671, 1160.121
355.3492, 1109.023
355.8314, 1022.387
356.3135, 914.4961
356.7956, 791.0703
357.2777, 668.0156
357.7598, 530.8516
358.2419, 413.2930
358.7241, 351.9258
359.2062, 376.4062
359.6883, 412.8867
360.1704, 435.9336
360.6525, 441.3750
361.1346, 419.9141
361.6168, 310.9727
362.0989, 213.5703
362.5810, 201.2109
363.0631, 328.3633
363.5452, 401.1758
364.0273, 299.0781
364.5095, 119.0391
364.9916, 12.00781
365.4737, 115.1719
365.9558, 203.6523
366.4379, 185.4609
366.9200, 23.41406
367.4022, 88.84375
367.8843, 97.75781
368.3664, 62.58984
368.8485, 47.10938
369.3306, 94.97266
369.8127, 112.2852
370.2949, 70.87500
370.7770, 31.49609
371.2591, 105.7148
371.7412, 134.5039
372.2233, 149.1406
372.7054, 172.1094
373.1876, 200.1562
373.6697, 241.6992
374.1518, 310.8516
374.6339, 394.2070
375.1160, 411.5625
375.5981, 335.6094
376.0803, 251.5000
376.5624, 225.4688
377.0445, 274.6992
377.5266, 262.0000
378.0087, 156.9805
378.4908, 11.45312
378.9730, 57.46094
379.4551, 45.13672
379.9372, 11.84375
380.4193, 16.83984
380.9014, 41.10938
381.3835, 59.96484
381.8657, 75.58203
382.3478, 89.98047
382.8299, 104.8516
383.3120, 121.2539
383.7941, 141.4336
384.2762, 158.4688
384.7584, 173.6172
385.2405, 183.9062
385.7226, 186.7227
386.2047, 201.7070
386.6868, 258.7578
387.1689, 338.1953
387.6511, 399.5742
388.1332, 414.1641
388.6153, 413.8008
389.0974, 427.6016
389.5795, 454.0586
390.0616, 484.4453
390.5438, 524.9023
391.0259, 563.8516
391.5080, 591.9570
391.9901, 617.8125
392.4722, 619.9688
392.9543, 571.7422
393.4365, 490.6172
393.9186, 423.8867
394.4007, 407.4102
394.8828, 398.5781
395.3649, 371.7109
395.8470, 311.5625
396.3292, 264.8672
396.8113, 254.7109
397.2934, 260.8555
397.7755, 251.4766
398.2576, 167.3281
398.7397, 118.0234
399.2219, 152.0039
399.7040, 292.9375
400.1861, 375.1406
400.6682, 378.9492
401.1503, 336.7812
401.6324, 272.4062
402.1145, 149.2969
402.5966, 73.64453
403.0788, 79.25391
403.5609, 154.8984
404.0430, 199.7695
404.5251, 212.6836
405.0072, 198.3789
405.4893, 146.6211
405.9715, 46.19141
406.4536, 9.605469
406.9357, 9.691406
407.4178, 27.90625
407.8999, 68.82031
408.3820, 113.3633
408.8642, 147.2734
409.3463, 158.8398
409.8284, 151.3203
410.3105, 139.8008
410.7926, 122.1562
411.2747, 114.4688
411.7569, 146.0586
412.2390, 207.9180
412.7211, 264.3711
413.2032, 293.8359
413.6853, 310.7852
414.1674, 333.5977
414.6496, 362.4805
415.1317, 408.3828
415.6138, 505.5430
416.0959, 617.6172
416.5780, 694.7734
417.0602, 711.6406
417.5423, 699.6289
418.0244, 657.4844
418.5065, 598.2969
418.9886, 569.1055
419.4707, 638.8477
419.9529, 716.5547
420.4350, 731.6914
420.9171, 638.4297
421.3992, 573.5273
421.8813, 613.0859
422.3634, 702.8398
422.8456, 751.5508
423.3277, 703.4961
423.8098, 661.8984
424.2919, 672.6602
424.7740, 754.7383
425.2561, 770.0469
425.7383, 651.4219
426.2204, 522.9805
426.7025, 491.8828
427.1846, 615.6328
427.6667, 722.8789
428.1488, 794.3672
428.6310, 835.9961
429.1131, 859.5430
429.5952, 854.5195
430.0773, 844.5547
430.5594, 845.4648
431.0415, 858.8555
431.5237, 861.6797
432.0058, 847.2031
432.4879, 830.1406
432.9700, 841.4141
433.4521, 881.6953
433.9342, 918.8711
434.4164, 939.7188
434.8985, 947.5820
435.3806, 950.2969
435.8627, 947.4375
436.3448, 949.1875
436.8269, 988.3047
437.3091, 1045.668
437.7912, 1058.965
438.2733, 979.8086
438.7554, 877.0664
439.2375, 791.0859
439.7196, 732.9727
440.2018, 759.4453
440.6839, 1046.219
441.1660, 1359.309
441.6481, 1459.613
442.1302, 1233.199
442.6123, 976.0977
443.0945, 797.8789
443.5766, 686.2031
444.0587, 622.1211
444.5408, 652.3477
445.0229, 682.9141
445.5050, 680.4375
445.9872, 641.8477
446.4693, 586.3750
446.9514, 497.6094
447.4335, 404.6055
447.9156, 331.9258
448.3977, 304.3750
448.8799, 260.1484
449.3620, 170.0547
449.8441, 55.15625
450.3262, 22.14062
450.8083, 108.8984
451.2904, 203.1211
451.7726, 236.9180
452.2547, 194.9102
452.7368, 192.4961
453.2189, 247.3086
453.7010, 313.1445
454.1831, 310.2656
454.6653, 238.3164
455.1474, 171.5078
455.6295, 135.6992
456.1116, 127.1875
456.5937, 145.7578
457.0758, 192.1133
457.5580, 228.0898
458.0401, 222.8828
458.5222, 188.2422
459.0043, 143.9805
459.4864, 85.58594
459.9685, 37.10547
460.4507, 32.97266
460.9328, 60.77734
461.4149, 83.30859
461.8970, 86.73047
462.3791, 73.89453
462.8612, 34.75781
463.3434, 40.80859
463.8255, 85.31250
464.3076, 51.48047
464.7897, 20.13672
465.2718, 84.46484
465.7539, 121.7930
466.2361, 158.4219
466.7182, 195.7422
467.2003, 234.4492
467.6824, 289.4492
468.1645, 395.4648
468.6466, 483.5391
469.1288, 517.9062
469.6109, 470.2969
470.0930, 424.1836
470.5751, 376.8008
471.0572, 331.4258
471.5393, 293.6719
472.0214, 262.8750
472.5035, 240.2266
472.9857, 232.9414
473.4678, 236.4492
473.9499, 236.1445
474.4320, 240.3477
474.9141, 230.4023
475.3962, 176.0352
475.8784, 91.84375
476.3605, 47.41797
476.8426, 73.39453
477.3247, 124.5352
477.8068, 139.3516
478.2889, 126.9258
478.7711, 116.9219
479.2532, 141.1133
479.7353, 170.8945
480.2174, 167.1719
480.6995, 121.0625
481.1816, 92.37500
481.6638, 114.5781
482.1459, 168.7383
482.6280, 233.6953
483.1101, 319.2500
483.5922, 387.8594
484.0743, 416.5117
484.5565, 415.2734
485.0386, 425.0273
485.5207, 426.2969
486.0028, 458.0273
486.4849, 549.6211
486.9670, 761.2109
487.4492, 882.3555
487.9313, 878.2852
488.4134, 811.9531
488.8955, 769.6523
489.3776, 761.0547
489.8597, 757.6641
490.3419, 758.6641
490.8240, 762.1055
491.3061, 743.5625
491.7882, 700.6836
492.2703, 657.6328
492.7524, 623.8633
493.2346, 602.9062
493.7167, 624.2930
494.1988, 704.4453
494.6809, 785.3711
495.1630, 770.0117
495.6451, 688.2539
496.1273, 636.1016
496.6094, 700.7500
497.0915, 791.4961
497.5736, 814.9805
498.0557, 772.8477
498.5378, 717.7109
499.0200, 665.5078
499.5021, 622.8125
499.9842, 595.2070
500.4663, 583.0625
500.9484, 589.4453
501.4305, 650.2969
501.9127, 729.9453
502.3948, 749.7578
502.8769, 617.7383
503.3590, 505.7188
503.8411, 468.1133
504.3232, 513.8672
504.8054, 545.6250
505.2875, 558.3828
505.7696, 558.5703
506.2517, 547.6719
506.7338, 520.1055
507.2159, 503.6953
507.6981, 507.6484
508.1802, 519.1992
508.6623, 502.3555
509.1444, 456.9844
509.6265, 419.6680
510.1086, 435.5938
510.5908, 475.5977
511.0729, 434.3867
511.5550, 307.0742
512.0371, 171.8086
512.5192, 98.46875
513.0013, 68.26172
513.4835, 47.78516
513.9656, 15.48828
514.4477, 7.437500
514.9298, 80.19141
515.4119, 200.5273
515.8940, 278.8398
516.3762, 222.5898
516.8583, 157.0352
517.3404, 152.4727
517.8225, 228.0352
518.3046, 289.8750
518.7867, 319.7305
519.2689, 330.5156
519.7510, 333.4141
520.2331, 316.1523
520.7152, 311.6602
521.1973, 333.4766
521.6794, 365.8984
522.1616, 360.5352
522.6437, 298.3672
523.1258, 252.9258
523.6079, 280.2383
524.0900, 376.3359
524.5721, 374.5117
525.0543, 256.5781
525.5364, 130.2500
526.0185, 131.0312
526.5006, 224.7695
526.9827, 279.4141
527.4648, 245.7695
527.9470, 184.2578
528.4291, 184.1328
528.9112, 223.3008
529.3933, 229.1445
529.8754, 104.1406
530.3575, 29.14062
530.8397, 53.96484
531.3218, 50.81641
531.8039, 117.2656
532.2860, 32.81250
532.7681, 95.19922
533.2502, 174.8281
533.7324, 144.6875
534.2145, 116.4219
534.6966, 100.7656
535.1787, 93.67578
535.6608, 86.29688
536.1429, 70.86719
536.6251, 65.42969
537.1072, 77.77344
537.5893, 108.2070
538.0714, 138.9609
538.5535, 173.9102
539.0356, 198.8242
539.5178, 202.9961
539.9999, 186.5469
540.4820, 143.8242
540.9641, 64.40625
541.4462, 18.29297
541.9283, 40.86719
542.4105, 18.91797
542.8926, 16.34375
543.3747, 79.12891
543.8568, 168.9727
544.3389, 254.5156
544.8210, 333.7852
545.3032, 389.2852
545.7853, 398.0195
546.2674, 387.7344
546.7495, 380.5000
547.2316, 375.5078
547.7137, 384.6172
548.1959, 411.4727
548.6780, 455.1875
549.1601, 515.1953
549.6422, 639.1758
550.1243, 714.3867
550.6064, 687.5156
551.0886, 569.5781
551.5707, 554.2070
552.0528, 671.9219
552.5349, 814.6641
553.0170, 906.6328
553.4991, 948.3906
553.9813, 999.6484
554.4634, 1065.137
554.9455, 1138.676
555.4276, 1202.000
555.9097, 1263.285
556.3918, 1355.445
556.8740, 1521.609
557.3561, 1697.008
557.8382, 1791.320
558.3203, 1823.699
558.8024, 1880.852
559.2845, 2033.809
559.7667, 2212.680
560.2488, 2363.160
560.7309, 2465.734
561.2130, 2598.590
561.6951, 2802.512
562.1772, 3036.871
562.6594, 3261.543
563.1415, 3461.852
563.6236, 3665.922
564.1057, 3886.863
564.5878, 4109.473
565.0699, 4269.559
565.5521, 4342.402
566.0342, 4427.930
566.5163, 4574.273
566.9984, 4777.406
567.4805, 4974.273
567.9626, 5164.441
568.4448, 5352.801
568.9269, 5577.430
569.4090, 5807.668
569.8911, 5946.484
570.3732, 5962.656
570.8553, 5922.078
571.3375, 5889.016
571.8196, 5847.699
572.3017, 5767.672
572.7838, 5618.484
573.2659, 5445.625
573.7480, 5274.438
574.2302, 5104.586
574.7123, 4908.207
575.1944, 4680.242
575.6765, 4424.902
576.1586, 4135.867
576.6407, 3777.859
577.1228, 3486.531
577.6049, 3288.711
578.0870, 3136.957
578.5692, 2972.547
579.0513, 2792.219
579.5334, 2618.398
580.0155, 2448.473
580.4976, 2292.898
580.9797, 2191.168
581.4619, 2140.379
581.9440, 2095.055
582.4261, 2023.164
582.9082, 1939.871
583.3903, 1884.355
583.8724, 1856.652
584.3546, 1801.918
584.8367, 1612.477
585.3188, 1406.852
585.8009, 1316.629
586.2830, 1457.523
586.7651, 1568.965
587.2473, 1523.980
587.7294, 1398.316
588.2115, 1318.465
588.6936, 1372.031
589.1757, 1401.531
589.6578, 1347.812
590.1400, 1226.258
590.6221, 1192.398
591.1042, 1291.914
591.5863, 1388.273
592.0684, 1390.668
592.5505, 1300.008
593.0327, 1230.531
593.5148, 1183.949
593.9969, 1164.340
594.4790, 1199.715
594.9611, 1264.953
595.4432, 1285.652
595.9254, 1215.723
596.4075, 1141.930
596.8896, 1163.395
597.3717, 1248.910
597.8538, 1321.855
598.3359, 1334.176
598.8181, 1342.855
599.3002, 1379.863
599.7823, 1442.379
600.2644, 1487.332
600.7465, 1490.707
601.2286, 1488.695
601.7108, 1493.047
602.1929, 1481.203
602.6750, 1542.172
603.1571, 1705.441
603.6392, 1901.320
604.1213, 2041.637
604.6035, 2126.672
605.0856, 2161.910
605.5677, 2128.941
606.0498, 2072.492
606.5319, 2082.668
607.0140, 2152.020
607.4962, 2240.066
607.9783, 2346.414
608.4604, 2446.984
608.9425, 2517.410
609.4246, 2556.039
609.9067, 2576.734
610.3889, 2553.629
610.8710, 2535.156
611.3531, 2562.508
611.8352, 2679.375
612.3173, 2768.168
612.7994, 2803.910
613.2816, 2811.211
613.7637, 2821.527
614.2458, 2855.102
614.7279, 2844.477
615.2100, 2760.617
615.6921, 2635.949
616.1743, 2580.066
616.6564, 2599.086
617.1385, 2602.809
617.6206, 2526.926
618.1027, 2402.141
618.5848, 2307.156
619.0670, 2241.754
619.5491, 2195.621
620.0312, 2190.453
620.5133, 2185.477
620.9954, 2119.793
621.4775, 1949.680
621.9597, 1813.734
622.4418, 1802.352
622.9239, 1849.535
623.4060, 1875.246
623.8881, 1869.488
624.3702, 1835.184
624.8524, 1760.773
625.3345, 1659.012
625.8166, 1571.465
626.2987, 1505.602
626.7808, 1435.996
627.2629, 1345.559
627.7451, 1241.055
628.2272, 1179.430
628.7093, 1164.102
629.1914, 1149.188
629.6735, 1076.105
630.1556, 982.7422
630.6378, 958.4141
631.1199, 1027.672
631.6020, 1086.555
632.0841, 1049.023
632.5662, 957.0938
633.0483, 862.9297
633.5305, 744.9141
634.0126, 671.7344
634.4947, 697.8359
634.9768, 781.2031
635.4589, 811.2578
635.9410, 771.1250
636.4232, 694.0938
636.9053, 566.7109
637.3874, 397.8047
637.8695, 309.7969
638.3516, 316.6641
638.8337, 336.0547
639.3159, 316.8984
639.7980, 264.6016
640.2801, 197.3828
640.7622, 115.3984
641.2443, 37.39062
641.7264, 30.10156
642.2086, 76.05469
642.6907, 76.57812
643.1728, 4.679688
643.6549, 75.83594
644.1370, 65.17188
644.6191, 18.67188
645.1013, 11.55469
645.5834, 96.52344
646.0655, 180.7344
646.5476, 242.5312
647.0297, 286.4062
647.5118, 343.6719
647.9940, 421.6484
648.4761, 491.9297
648.9582, 526.5625
649.4403, 527.5781
649.9224, 566.6328
650.4045, 645.0312
650.8867, 725.5938
651.3688, 783.6875
651.8509, 821.0234
652.3330, 831.5469
652.8151, 809.1562
653.2972, 818.6797
653.7794, 942.7500
654.2615, 1111.062
654.7436, 1237.008
655.2257, 1276.719
655.7078, 1295.398
656.1899, 1314.594
656.6721, 1322.922
657.1542, 1291.086
657.6363, 1198.391
658.1184, 1104.039
658.6005, 1019.602
659.0826, 942.4453
659.5648, 876.5625
660.0469, 825.4609
660.5290, 761.5000
661.0111, 649.1953
661.4932, 514.0703
661.9753, 419.3984
662.4575, 368.9609
662.9396, 350.8516
663.4217, 358.1719
663.9038, 381.9766
664.3859, 415.6094
664.8680, 451.3672
665.3502, 513.7266
665.8323, 660.7266
666.3144, 818.7344
666.7965, 890.0703
667.2786, 805.8203
667.7607, 731.3125
668.2429, 662.4219
668.7250, 617.3281
669.2071, 664.1016
669.6892, 814.5547
670.1713, 941.3281
670.6534, 997.6562
671.1356, 994.2031
671.6177, 948.3359
672.0998, 864.3047
672.5819, 774.3984
673.0640, 703.1641
673.5461, 637.9922
674.0283, 578.0078
674.5104, 526.6719
674.9925, 443.0078
675.4746, 244.6562
675.9567, 63.42969
676.4388, 6.500000
676.9210, 125.0781
677.4031, 194.8516
677.8852, 179.3984
678.3673, 128.0859
678.8494, 86.91406
679.3315, 49.86719
679.8137, 58.02344
680.2958, 132.6016
680.7779, 222.4922
681.2600, 218.0703
681.7421, 144.4297
682.2242, 115.2734
682.7064, 235.7656
683.1885, 373.6172
683.6706, 390.3906
684.1527, 312.4141
684.6348, 236.9609
685.1169, 198.2266
685.5991, 178.0312
686.0812, 179.0547
686.5633, 206.0781
687.0454, 206.3594
687.5275, 156.5547
688.0096, 117.0938
688.4918, 131.0078
688.9739, 205.8359
689.4560, 259.6875
689.9381, 289.7031
690.4202, 305.5781
690.9023, 321.7344
691.3845, 330.8828
691.8666, 304.3516
692.3487, 220.9297
692.8308, 151.2031
693.3129, 171.9609
693.7950, 239.0781
694.2772, 289.0938
694.7593, 300.9609
695.2414, 292.9375
695.7235, 250.6250
696.2056, 192.7188
696.6877, 167.6562
697.1699, 189.6250
697.6520, 222.6250
698.1341, 269.0547
698.6162, 320.1953
699.0983, 327.0234
699.5804, 289.2344
700.0626, 237.5547
700.5447, 175.2656
701.0268, 118.4922
701.5089, 96.35938
701.9910, 108.4219
702.4731, 139.1953
702.9553, 221.8750
703.4374, 289.9062
703.9195, 276.1562
704.4016, 146.3906
704.8837, 38.38281
705.3658, 37.14844
705.8480, 72.01562
706.3301, 53.09375
706.8122, 44.89062
707.2943, 125.6797
707.7764, 192.0859
708.2585, 226.6562
708.7407, 190.0703
709.2228, 92.07031
709.7049, 4.390625
710.1870, 89.44531
710.6691, 152.6797
711.1512, 174.9531
711.6334, 166.3672
712.1155, 149.2812
712.5976, 124.4766
713.0797, 101.5078
713.5618, 85.65625
714.0439, 76.21875
714.5261, 69.81250
715.0082, 77.32031
715.4903, 75.20312
715.9724, 54.98438
716.4545, 19.37500
716.9366, 11.63281
717.4188, 35.07812
717.9009, 67.50000
718.3829, 150.9453
718.8651, 248.8203
719.3472, 227.8281
719.8293, 87.37500
720.3114, 32.35938
720.7935, 15.44531
721.2756, 63.29688
721.7578, 138.4297
722.2399, 200.3672
722.7220, 253.7656
723.2041, 321.4062
723.6862, 365.7109
724.1683, 351.2344
724.6505, 241.6797
725.1326, 164.7266
725.6147, 131.8672
726.0968, 121.7891
726.5789, 99.03125
727.0610, 67.50781
727.5432, 68.56250
728.0253, 126.1016
728.5074, 191.5000
728.9895, 200.4297
729.4716, 175.1953
729.9537, 160.5078
730.4359, 174.5078
730.9180, 190.2266
731.4001, 231.1094
731.8822, 277.9375
732.3643, 256.0547
732.8464, 82.57031
733.3286, 41.32031
733.8107, 51.40625
734.2928, 32.13281
734.7749, 97.78125
735.2570, 145.1719
735.7391, 175.3672
736.2213, 178.8828
736.7034, 168.0000
737.1855, 172.0312
737.6676, 190.4453
738.1497, 208.3359
738.6318, 216.3203
739.1140, 222.1797
739.5961, 232.1094
740.0782, 247.9688
740.5603, 273.3125
741.0424, 317.6797
741.5245, 372.4219
742.0067, 428.6484
742.4888, 474.0312
742.9709, 504.8281
743.4530, 506.3516
743.9351, 540.2031
744.4172, 721.5391
744.8994, 997.0078
745.3815, 1144.227
745.8636, 1107.281
746.3457, 1025.133
746.8278, 992.6406
747.3099, 997.2734
747.7921, 1030.195
748.2742, 1147.695
748.7563, 1213.125
749.2384, 1172.406
749.7205, 1078.391
750.2026, 1006.617
750.6848, 943.3750
751.1669, 1026.203
751.6490, 1076.094
752.1311, 1093.320
752.6132, 991.4453
753.0953, 1037.875
753.5775, 1023.852
754.0596, 1007.000
754.5417, 1073.273
755.0238, 985.7344
755.5059, 1050.523
755.9880, 1054.445
756.4702, 1086.023
756.9523, 1057.039
757.4344, 1046.422
757.9165, 1095.898
758.3986, 1111.930
758.8807, 1075.773
759.3629, 1108.977
759.8450, 1015.133
760.3271, 1035.875
760.8092, 1017.602
761.2913, 962.9844
761.7734, 924.9297
762.2556, 949.7109
762.7377, 1008.656
763.2198, 1068.914
763.7019, 1128.906
764.1840, 1174.383
764.6661, 1178.836
765.1483, 1176.133
765.6304, 1197.055
766.1125, 1254.891
766.5946, 1261.641
767.0767, 1177.602
767.5588, 1093.320
768.0410, 1078.609
768.5231, 1133.062
769.0052, 1140.320
769.4873, 1091.242
769.9694, 1038.344
770.4515, 1051.688
770.9337, 1088.781
771.4158, 1078.781
771.8979, 1005.242
772.3800, 905.0469
772.8621, 759.6094
773.3442, 619.9922
773.8264, 538.1094
774.3085, 570.8125
774.7906, 582.8438
775.2727, 569.5547
775.7548, 543.0312
776.2369, 515.1328
776.7191, 486.7266
777.2012, 471.7031
777.6833, 477.4531
778.1654, 478.7031
778.6475, 428.2500
779.1296, 362.7891
779.6118, 353.2031
780.0939, 477.9141
780.5760, 574.7578
781.0581, 560.2891
781.5402, 472.6094
782.0223, 372.1406
782.5045, 232.2422
782.9866, 134.6875
783.4687, 97.39062
783.9508, 100.6641
784.4329, 111.5781
784.9150, 130.6719
785.3972, 134.4219
785.8793, 113.7422
786.3614, 78.83594
786.8435, 17.93750
787.3256, 45.91406
787.8077, 57.85938
788.2899, 81.89062
788.7720, 200.0156
789.2541, 201.2891
789.7362, 118.9531
790.2183, 84.80469
790.7004, 119.3203
791.1826, 157.1797
791.6647, 189.4297
792.1468, 220.6953
792.6289, 240.2500
793.1110, 247.1484
793.5931, 269.1562
794.0753, 364.6641
794.5574, 451.8359
795.0395, 396.2812
795.5216, 235.9922
796.0037, 119.2578
796.4858, 149.0000
796.9680, 189.8438
797.4501, 187.7656
797.9322, 146.6406
798.4143, 82.37500
798.8964, 38.92188
799.3785, 92.89844
799.8607, 12.75781
800.3428, 224.2422
800.8249, 293.4062
801.3070, 230.9297
801.7891, 161.1328
802.2712, 181.2188
802.7534, 220.8516
803.2355, 189.5547
803.7176, 95.25000
804.1997, 48.84375
804.6818, 166.7422
805.1639, 263.1016
805.6461, 248.7578
806.1282, 123.3906
806.6103, 19.04688
807.0924, 65.98438
807.5745, 122.8359
808.0566, 142.6094
808.5388, 130.2578
809.0209, 94.12500
809.5030, 36.01562
809.9851, 18.62500
810.4672, 51.37500
810.9493, 73.85938
811.4315, 95.32812
811.9136, 116.2812
812.3957, 131.1406
812.8778, 124.3828
813.3599, 126.5938
813.8420, 156.6562
814.3242, 216.3125
814.8063, 262.8828
815.2884, 298.0000
815.7705, 304.4375
816.2526, 227.6172
816.7347, 126.3047
817.2169, 141.3594
817.6990, 277.0625
818.1811, 369.1875
818.6632, 264.0859
819.1453, 127.3516
819.6274, 82.17188
820.1096, 167.2188
820.5917, 189.9062
821.0738, 111.2344
821.5559, 36.88281
822.0380, 43.39844
822.5201, 124.1406
823.0023, 178.2266
823.4844, 204.0547
823.9665, 219.7344
824.4486, 212.1562
824.9307, 216.9531
825.4128, 302.6250
825.8950, 483.7500
826.3771, 597.1484
826.8592, 509.3516
827.3413, 399.8438
827.8234, 377.5312
828.3055, 457.6172
828.7877, 518.8281
829.2698, 562.0234
829.7519, 582.6719
830.2340, 563.2734
830.7161, 519.6953
831.1982, 514.3984
831.6804, 550.2734
832.1625, 551.1797
832.6446, 412.2031
833.1267, 252.0859
833.6088, 173.2812
834.0909, 205.4141
834.5731, 213.9453
835.0552, 161.1406
835.5373, 117.6484
836.0194, 132.4453
836.5015, 206.5781
836.9836, 243.3672
837.4658, 239.3594
837.9479, 228.2891
838.4300, 231.7578
838.9121, 247.4453
839.3942, 280.4688
839.8763, 330.7734
840.3585, 365.4688
840.8406, 379.7422
841.3227, 364.7734
841.8048, 292.3438
842.2869, 148.5234
842.7690, 123.6953
843.2512, 260.3750
843.7333, 390.9688
844.2154, 374.8203
844.6975, 255.9141
845.1796, 248.3516
845.6617, 351.5156
846.1439, 444.5312
846.6260, 412.9844
847.1081, 340.7422
847.5902, 285.6875
848.0723, 252.7891
848.5544, 250.6719
849.0366, 326.3750
849.5187, 372.2656
850.0008, 324.3750
850.4829, 191.9766
850.9650, 148.7422
851.4471, 201.1875
851.9293, 236.1328
852.4114, 137.2969
852.8935, 0.2968750
853.3756, 41.50781
853.8577, 7.835938
854.3398, 86.35938
854.8220, 235.3125
855.3041, 348.7109
855.7862, 356.5625
856.2683, 264.8047
856.7504, 202.3906
857.2325, 178.7422
857.7147, 169.8984
858.1968, 145.0469
858.6789, 130.2266
859.1610, 184.4297
859.6431, 293.0938
860.1252, 422.9141
860.6073, 617.1172
861.0894, 784.8203
861.5715, 857.7812
862.0536, 848.9531
862.5358, 847.6172
863.0179, 887.3828
863.5000, 873.3047
863.9821, 744.1016
864.4642, 553.2109
864.9464, 522.5547
865.4285, 641.0391
865.9106, 717.8750
866.3927, 632.1797
866.8748, 499.1719
867.3569, 432.5234
867.8391, 418.6484
868.3212, 415.4609
868.8033, 437.6094
869.2854, 435.9375
869.7675, 374.8203
870.2496, 294.0625
870.7318, 304.0078
871.2139, 418.1250
871.6960, 512.8906
872.1781, 550.3125
872.6602, 557.3828
873.1423, 563.4297
873.6245, 571.4062
874.1066, 589.9219
874.5887, 639.7031
875.0708, 675.0000
875.5529, 644.3828
876.0350, 596.8906
876.5172, 621.2656
876.9993, 758.2188
877.4814, 842.0078
877.9635, 844.4844
878.4456, 801.3984
878.9277, 747.9609
879.4099, 693.4375
879.8920, 675.9922
880.3741, 721.0859
880.8562, 759.8594
881.3383, 738.7422
881.8204, 690.0938
882.3026, 649.5000
882.7847, 622.6719
883.2668, 608.9922
883.7489, 625.5391
884.2310, 626.6094
884.7131, 521.1094
885.1953, 335.9844
885.6774, 314.2031
886.1595, 497.2969
886.6416, 673.2188
887.1237, 623.9531
887.6058, 494.9688
888.0880, 442.0156
888.5701, 511.7344
889.0522, 557.0234
889.5343, 530.2734
890.0164, 506.9453
890.4985, 533.2344
890.9807, 609.3672
891.4628, 708.3906
891.9449, 831.9609
892.4270, 913.4922
892.9091, 840.3906
893.3912, 726.5469
893.8734, 731.9609
894.3555, 855.1172
894.8376, 943.2891
895.3197, 919.0625
895.8018, 870.1406
896.2839, 828.6562
896.7661, 794.6172
897.2482, 784.5938
897.7303, 810.0156
898.2124, 770.7812
898.6945, 560.2031
899.1766, 299.1641
899.6588, 202.4844
900.1409, 233.7266
900.6230, 260.8828
901.1051, 172.9531
901.5872, 128.9219
902.0693, 249.2891
902.5515, 454.1719
903.0336, 545.9375
903.5157, 504.0625
903.9978, 418.1641
904.4799, 283.8438
904.9620, 159.9062
905.4442, 181.2969
905.9263, 294.8438
906.4084, 367.3281
906.8905, 343.5859
907.3726, 282.7031
907.8547, 151.0000
908.3369, 24.14844
908.8190, 20.05469
909.3011, 235.5703
909.7832, 304.2969
910.2653, 160.5625
910.7474, 29.95312
911.2296, 33.22656
911.7117, 84.25781
912.1938, 107.6562
912.6759, 14.47656
913.1580, 125.4453
913.6401, 111.4766
914.1223, 54.79688
914.6044, 15.02344
915.0865, 15.62500
915.5686, 37.75000
916.0507, 218.5000
916.5328, 375.6562
917.0150, 370.5859
917.4971, 248.5000
917.9792, 178.3281
918.4613, 160.7109
918.9434, 170.0859
919.4255, 226.6172
919.9077, 272.0703
920.3898, 267.7656
920.8719, 211.6484
921.3540, 133.5625
921.8361, 33.45312
922.3182, 82.89844
922.8004, 224.7266
923.2825, 368.7188
923.7646, 447.5000
924.2467, 464.3750
924.7288, 453.9531
925.2109, 375.5547
925.6931, 332.3203
926.1752, 451.4531
926.6573, 646.4688
927.1394, 726.5000
927.6215, 637.8281
928.1036, 498.5859
928.5858, 279.4297
929.0679, 88.28125
929.5500, 153.5000
930.0321, 409.3906
930.5142, 539.3359
930.9963, 454.3125
931.4785, 339.7500
931.9606, 347.6953
932.4427, 393.2656
932.9248, 383.2734
933.4069, 258.8828
933.8890, 201.1719
934.3712, 231.7812
934.8533, 285.0156
935.3354, 321.4219
935.8175, 337.5938
936.2996, 290.4766
936.7817, 183.9766
937.2639, 137.4531
937.7460, 338.1875
938.2281, 540.5703
938.7102, 513.1797
939.1923, 255.0703
939.6744, 200.0625
940.1566, 462.4141
940.6387, 709.4531
941.1208, 829.1797
941.6029, 846.0703
942.0850, 785.9141
942.5671, 673.4219
943.0493, 627.8125
943.5314, 776.7578
944.0135, 925.1875
944.4956, 936.6719
944.9777, 869.4766
945.4598, 838.6172
945.9420, 856.8125
946.4241, 908.4609
946.9062, 1015.219
947.3883, 1111.609
947.8704, 1051.727
948.3525, 906.5469
948.8347, 944.1016
949.3168, 1257.914
949.7989, 1494.086
950.2810, 1308.070
950.7631, 1022.328
951.2452, 928.0547
951.7274, 1081.500
952.2095, 1189.992
952.6916, 1250.258
953.1737, 1270.117
953.6558, 1220.359
954.1379, 1139.555
954.6201, 1166.422
955.1022, 1281.805
955.5843, 1350.078
956.0664, 1209.141
956.5485, 1088.672
957.0306, 1145.531
957.5128, 1329.508
957.9949, 1441.406
958.4770, 1485.766
958.9591, 1418.289
959.4412, 1166.906
959.9233, 903.1094
960.4055, 983.3594
960.8876, 1266.570
961.3697, 1426.719
961.8518, 1280.781
962.3339, 1132.914
962.8160, 1094.492
963.2982, 1106.555
963.7803, 1103.961
964.2624, 1073.547
964.7445, 1114.930
965.2266, 1247.492
965.7087, 1364.547
966.1909, 1394.258
966.6730, 1327.336
967.1551, 1076.156
967.6372, 642.0391
968.1193, 363.1953
968.6014, 534.6953
969.0836, 713.6562
969.5657, 703.7500
970.0478, 540.7578
970.5299, 459.2266
971.0120, 454.7266
971.4941, 498.3672
971.9763, 615.2266
972.4584, 727.3906
972.9405, 718.2734
973.4226, 636.1484
973.9047, 575.2656
974.3868, 587.8047
974.8690, 604.1016
975.3511, 618.1406
975.8332, 638.8438
976.3153, 678.7344
976.7974, 734.9531
977.2795, 807.5469
977.7617, 901.1875
978.2438, 971.1172
978.7259, 951.2266
979.2080, 907.5234
979.6901, 899.8828
980.1722, 936.7422
980.6544, 968.9219
981.1365, 978.4609
981.6186, 1017.750
982.1007, 1132.867
982.5828, 1293.289
983.0649, 1393.641
983.5471, 1440.406
984.0292, 1462.992
984.5113, 1455.000
984.9934, 1450.312
985.4755, 1462.133
985.9576, 1492.898
986.4398, 1540.562
986.9219, 1597.492
987.4040, 1704.211
987.8861, 1882.055
988.3682, 2067.523
988.8503, 2162.578
989.3325, 2209.484
989.8146, 2299.453
990.2967, 2461.047
990.7788, 2596.078
991.2609, 2619.242
991.7430, 2644.977
992.2252, 2751.141
992.7073, 2939.703
993.1894, 3069.625
993.6715, 3135.648
994.1536, 3219.617
994.6357, 3386.242
995.1179, 3589.172
995.6000, 3761.406
996.0821, 3918.672
996.5642, 4103.688
997.0463, 4399.617
997.5284, 4623.297
998.0106, 4721.547
998.4927, 4763.492
998.9748, 4877.484
999.4569, 5049.219
999.9390, 5158.992
1000.421, 5173.961
1000.903, 5185.250
1001.385, 5300.172
1001.867, 5421.789
1002.350, 5452.781
1002.832, 5359.172
1003.314, 5279.945
1003.796, 5212.719
1004.278, 5167.875
1004.760, 5189.664
1005.242, 5226.039
1005.724, 5083.961
1006.206, 4816.836
1006.689, 4635.641
1007.171, 4807.133
1007.653, 4897.922
1008.135, 4630.000
1008.617, 4211.211
1009.099, 4004.234
1009.581, 4038.031
1010.063, 4048.055
1010.546, 3991.344
1011.028, 3910.461
1011.510, 3841.422
1011.992, 3782.758
1012.474, 3739.133
1012.956, 3715.875
1013.438, 3655.938
1013.920, 3507.844
1014.402, 3378.898
1014.885, 3328.391
1015.367, 3340.648
1015.849, 3333.586
1016.331, 3304.445
1016.813, 3244.656
1017.295, 3104.203
1017.777, 2981.562
1018.259, 2954.000
1018.742, 2989.023
1019.224, 3022.133
1019.706, 3069.508
1020.188, 3056.477
1020.670, 2963.820
1021.152, 2871.289
1021.634, 2889.578
1022.116, 2963.727
1022.598, 2981.625
1023.081, 2926.078
1023.563, 2893.531
1024.045, 2941.594
1024.527, 3006.547
1025.009, 3057.188
1025.491, 3090.977
1025.973, 3113.039
1026.455, 3122.633
1026.938, 3104.969
1027.420, 3043.648
1027.902, 2964.578
1028.384, 2895.258
1028.866, 2827.172
1029.348, 2739.484
1029.830, 2604.078
1030.312, 2500.188
1030.794, 2437.297
1031.277, 2398.086
1031.759, 2378.883
1032.241, 2370.242
1032.723, 2326.633
1033.205, 2249.477
1033.687, 2202.828
1034.169, 2273.656
1034.651, 2338.719
1035.134, 2304.344
1035.616, 2208.172
1036.098, 2231.898
1036.580, 2390.836
1037.062, 2453.500
1037.544, 2316.250
1038.026, 2137.523
1038.508, 2123.938
1038.990, 2182.195
1039.473, 2179.906
1039.955, 2058.336
1040.437, 1939.227
1040.919, 1810.406
1041.401, 1727.266
1041.883, 1771.312
1042.365, 1902.625
1042.847, 1921.516
1043.329, 1840.547
1043.812, 1739.547
1044.294, 1625.328
1044.776, 1550.938
1045.258, 1578.828
1045.740, 1661.227
1046.222, 1675.203
1046.704, 1604.938
1047.186, 1573.656
1047.669, 1608.648
1048.151, 1650.672
1048.633, 1615.055
1049.115, 1557.859
1049.597, 1545.375
1050.079, 1586.438
1050.561, 1691.055
1051.043, 1909.867
1051.526, 2100.664
1052.008, 2193.594
1052.490, 2214.844
1052.972, 2263.836
1053.454, 2325.906
1053.936, 2338.320
1054.418, 2218.742
1054.900, 2110.188
1055.382, 2086.883
1055.865, 2110.109
1056.347, 2151.844
1056.829, 2220.430
1057.311, 2161.406
1057.793, 1962.508
1058.275, 1762.227
1058.757, 1698.953
1059.239, 1693.000
1059.721, 1675.375
1060.204, 1626.422
1060.686, 1498.633
1061.168, 1225.602
1061.650, 1028.766
1062.132, 997.2812
1062.614, 1024.109
1063.096, 824.4141
1063.578, 489.7031
1064.061, 341.3438
1064.543, 510.3906
1065.025, 670.4141
1065.507, 655.1250
1065.989, 566.9062
1066.471, 469.9062
1066.953, 363.3750
1067.435, 319.7812
1067.917, 339.9297
1068.400, 346.2734
1068.882, 266.1875
1069.364, 176.2188
1069.846, 124.2812
1070.328, 120.4922
1070.810, 200.4375
1071.292, 476.9922
1071.774, 580.4453
1072.256, 437.6875
1072.739, 235.2734
1073.221, 185.8047
1073.703, 225.0938
1074.185, 217.6406
1074.667, 155.2344
1075.149, 91.84375
1075.631, 37.41406
1076.113, 8.296875
1076.595, 36.17969
1077.078, 83.39062
1077.560, 14.83594
1078.042, 151.1094
1078.524, 266.4609
1079.006, 283.1641
1079.488, 261.8750
1079.970, 204.4062
1080.452, 160.6797
1080.935, 199.9766
1081.417, 344.0000
1081.899, 404.6406
1082.381, 374.2344
1082.863, 316.7578
1083.345, 264.5391
1083.827, 216.1328
1084.309, 182.5469
1084.792, 151.8906
1085.274, 92.74219
1085.756, 52.92969
1086.238, 150.9297
1086.720, 180.5312
1087.202, 177.3281
1087.684, 177.1172
1088.166, 178.4766
1088.648, 177.5547
1089.130, 174.5000
1089.613, 155.5078
1090.095, 63.45312
1090.577, 12.93750
1091.059, 90.75781
1091.541, 240.0781
1092.023, 301.4297
1092.505, 275.7500
1092.987, 261.5781
1093.470, 278.9922
1093.952, 319.0234
1094.434, 408.4609
1094.916, 491.7422
1095.398, 499.8828
1095.880, 410.1406
1096.362, 364.8672
1096.844, 372.6016
1097.327, 387.3516
1097.809, 400.0547
1098.291, 392.8125
1098.773, 297.3516
1099.255, 164.9141
1099.737, 103.8281
1100.219, 264.2031
1100.701, 310.5859
1101.183, 157.1953
1101.666, 8.429688
1102.148, 4.625000
1102.630, 149.3281
1103.112, 241.7422
1103.594, 276.1641
1104.076, 268.9688
1104.558, 144.9766
1105.040, 73.52344
1105.522, 168.5234
1106.005, 336.2266
1106.487, 420.3047
1106.969, 420.1406
1107.451, 353.7500
1107.933, 211.1641
1108.415, 126.2734
1108.897, 325.1328
1109.379, 547.3672
1109.862, 535.4141
1110.344, 290.3984
1110.826, 167.1562
1111.308, 189.3828
1111.790, 216.0156
1112.272, 211.3203
1112.754, 164.6562
1113.236, 8.492188
1113.719, 208.7578
1114.201, 271.4531
1114.683, 87.49219
1115.165, 9.789063
1115.647, 20.99219
1116.129, 93.68750
1116.611, 197.1953
1117.093, 287.6719
1117.575, 189.5156
1118.057, 34.34375
1118.540, 181.9531
1119.022, 132.6719
1119.504, 41.10156
1119.986, 104.8594
1120.468, 223.2188
1120.950, 213.3828
1121.432, 87.47656
1121.914, 32.60938
1122.397, 146.6406
1122.879, 272.2031
1123.361, 440.5781
1123.843, 604.8203
1124.325, 742.2656
1124.807, 851.8438
1125.289, 907.8203
1125.771, 897.8203
1126.254, 938.7812
1126.736, 1056.367
1127.218, 1222.461
1127.700, 1462.062
1128.182, 1713.078
1128.664, 1897.812
1129.146, 2008.992
1129.628, 2166.273
1130.110, 2343.484
1130.593, 2485.883
1131.075, 2585.312
1131.557, 2638.539
1132.039, 2650.508
1132.521, 2672.984
1133.003, 2734.898
1133.485, 2841.508
1133.967, 3026.445
1134.449, 3293.391
1134.932, 3559.508
1135.414, 3796.812
1135.896, 3994.117
1136.378, 4077.852
1136.860, 4129.641
1137.342, 4296.523
1137.824, 4757.828
1138.306, 5170.289
1138.789, 5465.016
1139.271, 5722.469
1139.753, 5979.500
1140.235, 6252.805
1140.717, 6665.953
1141.199, 7210.289
1141.681, 7731.070
1142.163, 8150.789
1142.646, 8565.836
1143.128, 9003.789
1143.610, 9458.133
1144.092, 9953.289
1144.574, 10481.21
1145.056, 10891.98
1145.538, 11179.35
1146.020, 11490.26
1146.502, 11975.97
1146.984, 12499.21
1147.467, 12945.81
1147.949, 13305.33
1148.431, 13766.19
1148.913, 14285.83
1149.395, 14796.20
1149.877, 15370.36
1150.359, 15901.20
1150.841, 16247.08
1151.324, 16459.12
1151.806, 16675.92
1152.288, 16873.53
1152.770, 16987.23
1153.252, 17024.38
1153.734, 16903.04
1154.216, 16539.66
1154.698, 16099.42
1155.181, 15838.59
1155.663, 15622.04
1156.145, 15247.77
1156.627, 14606.00
1157.109, 14025.24
1157.591, 13532.46
1158.073, 13021.22
1158.555, 12443.73
1159.037, 11804.44
1159.520, 11068.04
1160.002, 10282.07
1160.484, 9553.234
1160.966, 8922.773
1161.448, 8344.406
1161.930, 7829.922
1162.412, 7330.039
1162.894, 6777.078
1163.376, 6208.938
1163.859, 5732.039
1164.341, 5336.516
1164.823, 4975.031
1165.305, 4651.625
1165.787, 4336.039
1166.269, 3997.531
1166.751, 3703.219
1167.233, 3545.508
1167.716, 3494.273
1168.198, 3467.875
1168.680, 3453.516
1169.162, 3385.141
1169.644, 3130.727
1170.126, 2934.383
1170.608, 2870.203
1171.090, 2898.344
1171.573, 3000.234
1172.055, 3137.234
1172.537, 3093.094
1173.019, 2826.375
1173.501, 2546.750
1173.983, 2424.125
1174.465, 2264.508
1174.947, 1952.570
1175.429, 1546.602
1175.911, 1247.125
1176.394, 1042.000
1176.876, 846.3750
1177.358, 641.1875
1177.840, 434.7812
1178.322, 160.3750
1178.804, 35.57031
1179.286, 2.250000
1179.768, 235.2031
1180.251, 206.1172
1180.733, 7.820313
1181.215, 0.0000000E+00
##END=



