##NAMES=Romarchite
##RRUFFID=R080006
##IDEAL CHEMISTRY=SnO
##LOCALITY=Boundary Falls, Winnipeg River, Ontario, Canada
##OWNER=RRUFF
##SOURCE=Royal Ontario Museum
##DESCRIPTION=Incrusted lustrous black crystals, reported to be fine-grained psuedomorphs of an unknown phase. Co-type material.
##STATUS=The identification of this mineral has been confirmed by X-ray diffraction and chemical analysis
##URL=rruff.info/R080006
##MEASURED CHEMISTRY=Sn_1.00_O
121.3690, 0.0000000E+00
121.8511, 3.8635001E-02
122.3332, 0.9578700
122.8154, 2.212067
123.2975, 3.315353
123.7796, 4.324783
124.2617, 5.277771
124.7438, 6.047134
125.2259, 6.971893
125.7081, 8.524872
126.1902, 10.46777
126.6723, 11.20355
127.1544, 10.57250
127.6365, 9.720398
128.1186, 9.095276
128.6008, 8.802567
129.0829, 8.763092
129.5650, 9.069778
130.0471, 9.695816
130.5292, 10.11688
131.0113, 9.794922
131.4935, 8.808182
131.9756, 7.640366
132.4577, 6.262405
132.9398, 4.859650
133.4219, 4.011780
133.9040, 3.742157
134.3862, 3.769577
134.8683, 3.942749
135.3504, 4.255005
135.8325, 4.313110
136.3146, 3.756241
136.7967, 2.708878
137.2789, 2.524796
137.7610, 3.415665
138.2431, 4.663025
138.7252, 5.404755
139.2073, 5.652985
139.6894, 6.027008
140.1716, 5.509064
140.6537, 3.809265
141.1358, 2.511017
141.6179, 1.656784
142.1000, 1.128494
142.5821, 0.7355500
143.0643, 0.4935000
143.5464, 0.3409730
144.0285, 0.2493290
144.5106, 0.2144320
144.9927, 0.2626800
145.4748, 0.4473110
145.9570, 0.7064210
146.4391, 0.8526310
146.9212, 0.7840730
147.4033, 0.7245940
147.8854, 0.7921140
148.3675, 1.234848
148.8497, 1.404846
149.3318, 1.107910
149.8139, 0.4666600
150.2960, 9.9854000E-02
150.7781, 0.2129360
151.2602, 0.4477390
151.7424, 0.6127320
152.2245, 0.6926270
152.7066, 0.7184300
153.1887, 0.6908870
153.6708, 0.6102750
154.1529, 0.4721530
154.6351, 0.1955110
155.1172, 9.8159999E-02
155.5993, 0.3271330
156.0814, 0.2755430
156.5635, 0.3750000
157.0456, 0.9284210
157.5278, 1.926834
158.0099, 2.414520
158.4920, 1.856705
158.9741, 0.8658600
159.4562, 1.2375000E-02
159.9383, 0.4044800
160.4205, 0.8934480
160.9026, 1.814606
161.3847, 3.220673
161.8668, 4.365387
162.3489, 4.842590
162.8310, 4.969223
163.3132, 5.111450
163.7953, 5.171509
164.2774, 5.445297
164.7595, 6.152313
165.2416, 7.360260
165.7237, 8.614059
166.2059, 9.630692
166.6880, 10.56126
167.1701, 11.63651
167.6522, 13.24174
168.1343, 14.84006
168.6164, 15.92230
169.0986, 16.29445
169.5807, 16.82022
170.0628, 18.21088
170.5449, 20.16777
171.0270, 22.10080
171.5091, 23.73349
171.9913, 25.19992
172.4734, 26.61072
172.9555, 27.97256
173.4376, 29.33569
173.9197, 30.69925
174.4018, 32.09409
174.8840, 33.59763
175.3661, 35.20816
175.8482, 36.95413
176.3303, 38.88022
176.8124, 41.02515
177.2945, 43.28745
177.7767, 45.54192
178.2588, 47.82599
178.7409, 50.20882
179.2230, 52.85875
179.7051, 55.65096
180.1872, 58.25804
180.6694, 60.53392
181.1515, 62.81123
181.6336, 65.56273
182.1157, 68.74365
182.5978, 72.02505
183.0799, 75.16203
183.5621, 78.25217
184.0442, 81.52548
184.5263, 85.12653
185.0084, 88.83630
185.4905, 92.29361
185.9726, 95.49800
186.4547, 98.79027
186.9369, 102.5693
187.4190, 106.7223
187.9011, 110.5773
188.3832, 113.9067
188.8653, 117.0021
189.3474, 120.5146
189.8296, 124.4826
190.3117, 128.6746
190.7938, 132.9696
191.2759, 137.3591
191.7580, 141.7546
192.2401, 146.2242
192.7223, 150.6882
193.2044, 154.9724
193.6865, 159.1160
194.1686, 163.0632
194.6507, 166.5052
195.1328, 169.4808
195.6150, 173.0090
196.0971, 177.5572
196.5792, 182.7468
197.0613, 187.0547
197.5434, 190.3508
198.0255, 193.3449
198.5077, 196.7021
198.9898, 200.4777
199.4719, 204.0082
199.9540, 207.0628
200.4361, 209.6701
200.9182, 212.3060
201.4004, 215.0895
201.8825, 217.5730
202.3646, 219.3059
202.8467, 220.2595
203.3288, 220.7090
203.8109, 220.5871
204.2931, 219.9307
204.7752, 219.3887
205.2573, 219.1822
205.7394, 218.6482
206.2215, 216.9986
206.7036, 214.1113
207.1858, 210.8202
207.6679, 207.2551
208.1500, 203.4301
208.6321, 199.6142
209.1142, 195.9505
209.5963, 192.0324
210.0785, 187.3470
210.5606, 181.7758
211.0427, 175.9990
211.5248, 170.0851
212.0069, 164.0360
212.4890, 158.0840
212.9712, 152.2358
213.4533, 146.4342
213.9354, 140.7103
214.4175, 134.9899
214.8996, 129.3634
215.3817, 123.7513
215.8639, 118.2306
216.3460, 112.9359
216.8281, 107.9474
217.3102, 103.1067
217.7923, 98.23221
218.2744, 93.18054
218.7566, 88.32648
219.2387, 83.84177
219.7208, 79.68253
220.2029, 75.81898
220.6850, 72.42400
221.1671, 69.16118
221.6493, 65.66611
222.1314, 61.66948
222.6135, 57.96997
223.0956, 54.79364
223.5777, 52.09726
224.0598, 49.92636
224.5420, 48.56358
225.0241, 47.39388
225.5062, 45.67334
225.9883, 43.06952
226.4704, 40.64781
226.9525, 38.77797
227.4347, 37.46852
227.9168, 35.78987
228.3989, 33.41205
228.8810, 31.01582
229.3631, 29.42419
229.8452, 29.12566
230.3274, 28.63382
230.8095, 27.60266
231.2916, 26.00844
231.7737, 24.40590
232.2558, 22.72183
232.7379, 21.11534
233.2201, 19.76280
233.7022, 18.69296
234.1843, 17.83524
234.6664, 17.31015
235.1485, 17.13495
235.6306, 16.51106
236.1128, 15.14418
236.5949, 13.61542
237.0770, 12.47757
237.5591, 11.91890
238.0412, 11.38676
238.5233, 10.78535
239.0055, 10.11112
239.4876, 9.480682
239.9697, 8.837189
240.4518, 8.301254
240.9339, 8.014008
241.4160, 8.188522
241.8982, 8.183121
242.3803, 7.852295
242.8624, 7.204407
243.3445, 6.570999
243.8266, 5.789841
244.3087, 5.192963
244.7909, 5.141647
245.2730, 6.126953
245.7551, 6.643402
246.2372, 6.273422
246.7193, 5.109344
247.2014, 4.475662
247.6836, 4.697388
248.1657, 5.060577
248.6478, 5.005325
249.1299, 4.307236
249.6120, 3.670181
250.0941, 3.152496
250.5762, 2.758423
251.0584, 2.561295
251.5405, 2.777954
252.0226, 2.911407
252.5047, 2.531601
252.9868, 1.222290
253.4689, 0.4010310
253.9511, 0.4112240
254.4332, 1.068848
254.9153, 1.302795
255.3974, 0.9815060
255.8795, 0.4442140
256.3617, 0.1531370
256.8438, 0.9648740
257.3259, 1.414673
257.8080, 1.332428
258.2901, 0.8659360
258.7722, 0.6064450
259.2544, 0.6116330
259.7365, 0.7313540
260.2186, 0.9440460
260.7007, 1.376892
261.1828, 1.489639
261.6649, 1.125977
262.1471, 0.4707640
262.6292, 8.0948003E-02
263.1113, 5.7280999E-02
263.5934, 0.1032260
264.0755, 8.6929001E-02
264.5576, 1.5121000E-02
265.0398, 0.1455990
265.5219, 0.4474950
266.0040, 0.8083950
266.4861, 1.059402
266.9682, 1.219696
267.4503, 1.221680
267.9325, 0.9744720
268.4146, 0.3698880
268.8967, 1.2589000E-02
269.3788, 6.9426998E-02
269.8609, 5.6595001E-02
270.3430, 0.3187870
270.8252, 0.7915190
271.3073, 1.165512
271.7894, 1.254593
272.2715, 1.017395
272.7536, 0.9575200
273.2357, 1.141754
273.7179, 1.408417
274.2000, 1.487762
274.6821, 1.329178
275.1642, 1.199646
275.6463, 1.190445
276.1284, 1.300659
276.6106, 1.467911
277.0927, 1.722900
277.5748, 1.968903
278.0569, 2.069305
278.5390, 2.010590
279.0211, 1.917084
279.5032, 1.792603
279.9854, 1.656815
280.4675, 1.689957
280.9496, 1.928955
281.4317, 2.219284
281.9138, 2.368271
282.3959, 2.369400
282.8781, 2.464066
283.3602, 2.793228
283.8423, 3.251709
284.3244, 3.355377
284.8065, 3.070038
285.2886, 2.649673
285.7708, 2.314865
286.2529, 2.058304
286.7350, 1.719574
287.2171, 1.132263
287.6992, 0.5296780
288.1813, 0.7389370
288.6635, 1.802689
289.1456, 2.854675
289.6277, 3.104050
290.1098, 2.675690
290.5919, 2.436295
291.0740, 2.581757
291.5562, 2.886017
292.0383, 2.884918
292.5204, 2.590744
293.0025, 2.285751
293.4846, 2.130829
293.9667, 2.110092
294.4489, 2.170486
294.9310, 2.312729
295.4131, 2.523758
295.8952, 2.927338
296.3773, 3.460831
296.8594, 3.722275
297.3416, 3.192429
297.8237, 2.257446
298.3058, 1.878006
298.7879, 2.192017
299.2700, 2.688278
299.7521, 2.746078
300.2343, 2.479965
300.7164, 2.258850
301.1985, 2.243530
301.6806, 2.379761
302.1627, 2.616470
302.6448, 2.958740
303.1270, 3.293381
303.6091, 3.480896
304.0912, 3.583603
304.5733, 3.736893
305.0554, 4.138000
305.5375, 4.539322
306.0197, 4.572113
306.5018, 4.259949
306.9839, 3.997894
307.4660, 4.261017
307.9481, 4.714828
308.4302, 4.869766
308.9124, 4.246384
309.3945, 3.588303
309.8766, 3.648102
310.3587, 4.285355
310.8408, 4.757111
311.3229, 4.371323
311.8051, 3.713562
312.2872, 3.425323
312.7693, 3.894592
313.2514, 4.333954
313.7335, 4.066757
314.2156, 3.343155
314.6978, 2.913727
315.1799, 3.633713
315.6620, 4.546448
316.1441, 4.926849
316.6262, 4.484665
317.1083, 3.910385
317.5905, 3.381912
318.0726, 2.920242
318.5547, 2.553986
319.0368, 2.501419
319.5189, 2.459854
320.0010, 2.242889
320.4832, 1.747711
320.9653, 1.374008
321.4474, 1.363571
321.9295, 1.496292
322.4116, 1.513718
322.8937, 1.174652
323.3759, 0.8996580
323.8580, 0.8996430
324.3401, 1.181595
324.8222, 1.255203
325.3043, 0.6350400
325.7864, 9.6739996E-03
326.2686, 9.2499003E-02
326.7507, 1.226425
327.2328, 2.131485
327.7149, 2.158630
328.1970, 1.413589
328.6791, 1.039673
329.1613, 1.341675
329.6434, 1.753555
330.1255, 1.996002
330.6076, 1.828217
331.0897, 1.906830
331.5718, 2.384201
332.0540, 3.065414
332.5361, 3.516373
333.0182, 3.777740
333.5003, 3.817551
333.9824, 3.562805
334.4645, 2.820663
334.9467, 2.411316
335.4288, 2.479752
335.9109, 2.758942
336.3930, 2.825317
336.8751, 2.545074
337.3572, 2.387146
337.8394, 2.569031
338.3215, 3.118576
338.8036, 3.321243
339.2857, 3.053253
339.7678, 2.677597
340.2499, 2.556976
340.7321, 2.651703
341.2142, 2.870377
341.6963, 3.321182
342.1784, 3.930420
342.6605, 4.338196
343.1426, 4.523529
343.6248, 4.581894
344.1069, 4.561401
344.5890, 4.466415
345.0711, 4.344635
345.5532, 4.172440
346.0353, 4.018600
346.5175, 4.053162
346.9996, 4.271729
347.4817, 4.512909
347.9638, 4.826660
348.4459, 5.108154
348.9280, 4.853577
349.4102, 3.903549
349.8923, 2.882767
350.3744, 2.710999
350.8565, 3.212494
351.3386, 3.721359
351.8207, 3.954971
352.3029, 3.992722
352.7850, 3.970688
353.2671, 3.891205
353.7492, 2.618195
354.2313, 3.926224
354.7134, 4.642899
355.1956, 4.797043
355.6777, 2.708771
356.1598, 3.509369
356.6419, 3.152451
357.1240, 2.748917
357.6061, 3.957031
358.0883, 2.191788
358.5704, 3.372696
359.0525, 3.377945
359.5346, 3.921112
360.0167, 3.297791
360.4988, 3.034317
360.9810, 3.938309
361.4631, 4.197388
361.9452, 3.441620
362.4273, 4.019577
362.9094, 2.215210
363.3915, 2.502060
363.8737, 3.690826
364.3558, 2.993408
364.8379, 3.591904
365.3200, 3.696518
365.8021, 1.556488
366.2842, 1.949066
366.7664, 1.972977
367.2485, 2.513321
367.7306, 2.858276
368.2127, 2.841141
368.6948, 2.653992
369.1769, 2.429443
369.6591, 2.156448
370.1412, 1.864487
370.6233, 1.490280
371.1054, 1.088486
371.5875, 0.8767850
372.0696, 0.9636380
372.5518, 1.107346
373.0339, 1.214844
373.5160, 1.264420
373.9981, 1.315277
374.4802, 1.314896
374.9623, 1.356735
375.4445, 1.691299
375.9266, 2.579147
376.4087, 3.008224
376.8908, 2.489075
377.3729, 1.067413
377.8550, 0.2957760
378.3372, 0.3230740
378.8193, 0.6167600
379.3014, 0.6752170
379.7835, 0.4890750
380.2656, 0.2712550
380.7477, 3.6160001E-03
381.2299, 0.2216640
381.7120, 7.9727001E-02
382.1941, 0.4376680
382.6762, 0.9016270
383.1583, 0.9938660
383.6404, 0.7823940
384.1226, 0.5090180
384.6047, 0.1854100
385.0868, 0.1154170
385.5689, 0.3280180
386.0510, 0.4503330
386.5331, 0.4668430
387.0153, 0.2142640
387.4974, 8.9188002E-02
387.9795, 2.8853999E-02
388.4616, 0.3980710
388.9437, 0.7184450
389.4258, 0.4070130
389.9080, 0.2056270
390.3901, 0.6459350
390.8722, 0.7641750
391.3543, 0.6732330
391.8364, 0.2888180
392.3185, 0.2832180
392.8007, 0.6676790
393.2828, 0.5782780
393.7649, 0.3010860
394.2470, 1.5549000E-02
394.7291, 0.2709960
395.2112, 0.4912410
395.6934, 0.7041780
396.1755, 0.8168490
396.6576, 0.6904600
397.1397, 0.2836150
397.6218, 0.9605410
398.1039, 0.7990260
398.5861, 0.3156890
399.0682, 1.122971
399.5503, 1.295273
400.0324, 1.238693
400.5145, 1.257080
400.9966, 1.548294
401.4788, 1.637100
401.9609, 1.369675
402.4430, 0.8662260
402.9251, 0.6056520
403.4072, 0.7267760
403.8893, 0.8832860
404.3714, 0.9406740
404.8535, 0.9103240
405.3357, 0.7006380
405.8178, 0.2142030
406.2999, 0.3210140
406.7820, 0.5610350
407.2641, 0.4687500
407.7462, 0.2947080
408.2284, 7.6935001E-02
408.7105, 0.1617740
409.1926, 0.2965240
409.6747, 0.3121490
410.1568, 0.3392490
410.6389, 0.5490420
411.1211, 0.8935850
411.6032, 1.090591
412.0853, 1.066620
412.5674, 0.9357300
413.0495, 0.8297270
413.5316, 0.7559660
414.0138, 0.7491000
414.4959, 0.9312440
414.9780, 1.155197
415.4601, 1.135559
415.9422, 0.8373870
416.4243, 0.5891880
416.9065, 0.7393190
417.3886, 1.087158
417.8707, 1.330643
418.3528, 1.246353
418.8349, 1.137482
419.3170, 1.223831
419.7992, 1.463730
420.2813, 1.657928
420.7634, 1.729736
421.2455, 1.721512
421.7276, 1.638107
422.2097, 1.415619
422.6919, 1.273254
423.1740, 1.399338
423.6561, 1.604446
424.1382, 1.611542
424.6203, 0.9396670
425.1024, 0.5050510
425.5846, 0.6445010
426.0667, 1.399734
426.5488, 1.945404
427.0309, 2.241943
427.5130, 2.368393
427.9951, 2.356018
428.4773, 2.086853
428.9594, 1.944229
429.4415, 2.006790
429.9236, 2.190613
430.4057, 2.302063
430.8878, 2.364426
431.3700, 2.279205
431.8521, 1.925110
432.3342, 1.302948
432.8163, 0.9220580
433.2984, 0.8095860
433.7805, 0.8544010
434.2627, 0.9390560
434.7448, 1.066574
435.2269, 1.281128
435.7090, 1.665726
436.1911, 2.080322
436.6732, 2.197754
437.1554, 2.046722
437.6375, 1.866440
438.1196, 1.775360
438.6017, 1.766632
439.0838, 1.845703
439.5659, 2.050034
440.0481, 2.268448
440.5302, 2.495743
441.0123, 2.656235
441.4944, 2.624680
441.9765, 1.949249
442.4586, 1.399780
442.9408, 1.638840
443.4229, 2.550583
443.9050, 3.206451
444.3871, 2.963531
444.8692, 2.529633
445.3513, 2.385162
445.8335, 2.906265
446.3156, 3.118225
446.7977, 2.517929
447.2798, 1.598022
447.7619, 1.168518
448.2440, 1.713379
448.7262, 2.236038
449.2083, 2.530655
449.6904, 2.591034
450.1725, 2.525513
450.6546, 2.255432
451.1367, 1.978561
451.6189, 1.853012
452.1010, 1.941605
452.5831, 1.948624
453.0652, 1.822586
453.5473, 1.623825
454.0294, 1.489395
454.5116, 1.425827
454.9937, 1.340363
455.4758, 1.123596
455.9579, 0.8735200
456.4400, 0.9335330
456.9221, 1.277588
457.4043, 1.657043
457.8864, 1.853088
458.3685, 1.891953
458.8506, 1.846970
459.3327, 1.704773
459.8148, 1.532532
460.2970, 1.425705
460.7791, 1.360794
461.2612, 1.261520
461.7433, 0.9455720
462.2254, 0.6635590
462.7076, 0.7117770
463.1897, 1.150208
463.6718, 1.500900
464.1539, 1.310959
464.6360, 0.9774020
465.1181, 0.9114230
465.6003, 1.667419
466.0824, 2.227951
466.5645, 2.182541
467.0466, 1.685867
467.5287, 1.357376
468.0108, 1.438950
468.4930, 1.543884
468.9751, 1.548187
469.4572, 1.450958
469.9393, 1.221146
470.4214, 0.6635440
470.9035, 0.1502230
471.3857, 0.1651610
471.8678, 0.9562380
472.3499, 1.475296
472.8320, 1.477951
473.3141, 1.115463
473.7962, 0.9037320
474.2784, 0.8555450
474.7605, 0.8754880
475.2426, 0.8640750
475.7247, 0.8574520
476.2068, 1.166595
476.6889, 1.868240
477.1711, 2.484756
477.6532, 2.356476
478.1353, 0.5643160
478.6174, 1.876831
479.0995, 2.597107
479.5816, 2.756927
480.0638, 0.6782070
480.5459, 1.490097
481.0280, 1.143478
481.5101, 0.7493440
481.9922, 1.967941
482.4743, 0.2133940
482.9565, 1.403336
483.4386, 1.417755
483.9207, 1.972778
484.4028, 1.362122
484.8849, 1.111801
485.3670, 2.028122
485.8492, 2.297760
486.3313, 1.552765
486.8134, 2.141739
487.2955, 0.3472600
487.7776, 1.601563
488.2597, 2.193848
488.7419, 2.381210
489.2240, 2.076019
489.7061, 1.765182
490.1882, 1.381348
490.6703, 1.098984
491.1524, 1.194702
491.6346, 1.739395
492.1167, 2.014557
492.5988, 1.789474
493.0809, 1.307037
493.5630, 1.150406
494.0451, 1.310913
494.5273, 1.609924
495.0094, 2.083939
495.4915, 2.593201
495.9736, 2.843033
496.4557, 2.813538
496.9378, 2.643616
497.4200, 2.209198
497.9021, 1.738861
498.3842, 1.662964
498.8663, 2.428772
499.3484, 3.158524
499.8305, 3.160461
500.3127, 2.688324
500.7948, 2.385422
501.2769, 2.846481
501.7590, 3.208496
502.2411, 2.967728
502.7232, 1.974808
503.2054, 1.210770
503.6875, 0.8582150
504.1696, 0.7558590
504.6517, 0.8051760
505.1338, 1.117432
505.6159, 1.386917
506.0981, 1.617401
506.5802, 1.781631
507.0623, 1.808258
507.5444, 1.671051
508.0265, 1.465591
508.5086, 1.150940
508.9908, 0.7786100
509.4729, 0.7925420
509.9550, 1.228226
510.4371, 1.679535
510.9192, 1.725204
511.4013, 1.481201
511.8835, 1.401810
512.3655, 1.603119
512.8477, 1.850464
513.3298, 1.788498
513.8119, 1.537460
514.2940, 1.406128
514.7761, 1.776611
515.2582, 2.150742
515.7404, 2.021255
516.2225, 1.464401
516.7046, 1.102600
517.1867, 1.349747
517.6688, 1.818649
518.1509, 2.279404
518.6331, 2.759125
519.1152, 2.969040
519.5973, 2.627991
520.0794, 2.120270
520.5615, 1.924759
521.0436, 2.310944
521.5258, 2.551880
522.0079, 2.483948
522.4900, 2.163864
522.9721, 1.876724
523.4542, 1.614899
523.9363, 1.451935
524.4185, 1.433167
524.9006, 1.564941
525.3827, 1.839828
525.8648, 2.319565
526.3469, 2.727921
526.8290, 2.550446
527.3112, 1.959229
527.7933, 1.679306
528.2754, 1.975739
528.7575, 2.499863
529.2396, 3.028534
529.7217, 3.480896
530.2039, 3.599640
530.6860, 2.787796
531.1681, 1.936844
531.6502, 1.801804
532.1323, 2.396393
532.6144, 2.812592
533.0966, 2.527985
533.5787, 2.033264
534.0608, 1.657715
534.5429, 1.411636
535.0250, 1.386963
535.5071, 1.693497
535.9893, 2.161469
536.4714, 2.590454
536.9535, 3.157837
537.4356, 3.327316
537.9177, 2.799454
538.3998, 1.748901
538.8820, 1.339752
539.3641, 1.696472
539.8462, 2.153290
540.3283, 2.340897
540.8104, 2.278351
541.2925, 2.010315
541.7747, 1.503418
542.2568, 1.039795
542.7389, 0.9407500
543.2210, 1.119873
543.7031, 1.386688
544.1852, 1.770905
544.6674, 2.090042
545.1495, 2.149368
545.6316, 2.007172
546.1137, 1.808075
546.5958, 1.608673
547.0779, 1.378387
547.5601, 1.035080
548.0422, 0.5703740
548.5243, 0.3036960
549.0064, 0.2450870
549.4885, 0.4483490
549.9706, 1.006866
550.4528, 2.567810
550.9349, 3.197250
551.4170, 2.409103
551.8991, 1.081055
552.3812, 0.5845030
552.8633, 1.176819
553.3455, 1.514435
553.8276, 1.136139
554.3097, 0.3580020
554.7918, 0.3169400
555.2739, 1.012970
555.7560, 1.663437
556.2382, 1.753876
556.7203, 1.466751
557.2024, 1.126343
557.6845, 0.7426300
558.1666, 0.4992220
558.6487, 0.6694030
559.1309, 1.029175
559.6130, 1.295334
560.0951, 1.403748
560.5772, 1.402390
561.0593, 1.226837
561.5414, 0.9689180
562.0236, 0.7931060
562.5057, 0.7148280
562.9878, 0.7439580
563.4699, 0.9895320
563.9520, 1.408997
564.4341, 1.557648
564.9163, 1.308365
565.3984, 0.9627530
565.8805, 0.6274570
566.3626, 0.2729950
566.8447, 0.1347960
567.3268, 0.2656860
567.8090, 0.4584500
568.2911, 0.4748380
568.7732, 0.3320310
569.2553, 0.1629330
569.7374, 4.1138001E-02
570.2195, 0.1865390
570.7017, 5.9340999E-02
571.1838, 0.2500150
571.6659, 0.4514470
572.1480, 0.3213350
572.6301, 8.5922003E-02
573.1122, 4.8705999E-02
573.5944, 9.8205999E-02
574.0765, 0.2192840
574.5586, 0.7000580
575.0407, 1.112061
575.5228, 1.138550
576.0049, 0.5166630
576.4871, 0.1477660
576.9692, 0.2762910
577.4513, 0.5750890
577.9334, 0.7561040
578.4155, 0.8108220
578.8976, 0.7469330
579.3798, 0.5172120
579.8619, 0.2050480
580.3440, 3.5994999E-02
580.8261, 2.2857999E-02
581.3082, 1.9073000E-02
581.7903, 0.2553100
582.2725, 0.5520320
582.7546, 0.4191590
583.2367, 0.1082310
583.7188, 0.5815280
584.2009, 0.6044620
584.6830, 0.4017030
585.1652, 0.2436830
585.6473, 0.1607820
586.1294, 0.1590880
586.6115, 0.3177950
587.0936, 0.5274510
587.5757, 0.6717380
588.0579, 0.7949370
588.5400, 0.7668760
589.0221, 0.4281160
589.5042, 6.6650003E-02
589.9863, 0.3673400
590.4684, 0.4388730
590.9506, 0.3553160
591.4327, 5.5588000E-02
591.9148, 0.4125980
592.3969, 0.5955960
592.8790, 0.4430540
593.3611, 0.2162630
593.8433, 4.8859000E-02
594.3254, 5.6244001E-02
594.8075, 5.6015000E-02
595.2896, 6.5079004E-02
595.7717, 0.1356050
596.2538, 0.1601870
596.7360, 0.5987400
597.2181, 0.7359620
597.7002, 0.3040310
598.1823, 0.1173710
598.6644, 3.7857000E-02
599.1465, 0.2995150
599.6287, 0.4777830
600.1108, 0.1182710
600.5929, 0.1712800
601.0750, 0.1420750
601.5571, 0.1629940
602.0392, 0.3458710
602.5214, 0.3436130
603.0035, 0.2942960
603.4856, 0.2166750
603.9677, 9.5138997E-02
604.4498, 0.1702420
604.9319, 0.4845730
605.4141, 0.8596650
605.8962, 1.130783
