##NAMES=Scainiite
##RRUFFID=R100085
##IDEAL CHEMISTRY=Pb^2+^_14_Sb^3+^_30_S^2-^_54_O_5_
##LOCALITY=Dúbrava, Northern Low Tatra Mts, Žilina Region, Slovakia
##OWNER=RRUFF
##SOURCE=William W Pinch
##DESCRIPTION=Parallel aggregates of metallic gray acicular crystals
##STATUS=The identification of this mineral has been confirmed by single-crystal X-ray diffraction.
##URL=rruff.info/R100085
124.7225, 0.0000000E+00
125.2046, 1.629638
125.6867, 2.452550
126.1688, 2.277458
126.6509, 0.8725510
127.1331, 8.5497998E-02
127.6152, 0.1719000
128.0973, 0.6905870
128.5794, 1.687913
129.0615, 2.923813
129.5436, 3.551677
130.0258, 3.163563
130.5079, 3.607106
130.9900, 3.733133
131.4721, 4.905270
131.9542, 5.857143
132.4363, 5.073281
132.9185, 2.916512
133.4006, 1.380223
133.8827, 1.361134
134.3648, 2.424658
134.8469, 2.284310
135.3290, 0.7982770
135.8112, 0.7234440
136.2933, 0.4536700
136.7754, 1.751187
137.2575, 3.506611
137.7396, 3.889043
138.2217, 2.929340
138.7039, 2.088190
139.1860, 1.358021
139.6681, 0.7576970
140.1502, 0.3098500
140.6323, 2.4837000E-02
141.1144, 0.1339310
141.5966, 0.1429880
142.0787, 4.9603999E-02
142.5608, 0.1101150
143.0429, 0.1376410
143.5250, 0.4207270
144.0071, 1.155219
144.4893, 1.398815
144.9714, 2.870002
145.4535, 3.932767
145.9356, 4.588453
146.4177, 4.825672
146.8998, 4.401409
147.3820, 3.529949
147.8641, 3.090651
148.3462, 3.229428
148.8283, 3.665847
149.3104, 4.270959
149.7925, 5.260119
150.2747, 6.131365
150.7568, 6.768805
151.2389, 7.198862
151.7210, 7.745708
152.2031, 8.572037
152.6852, 9.409112
153.1674, 10.10042
153.6495, 10.81383
154.1316, 11.18896
154.6137, 10.98063
155.0958, 10.17379
155.5779, 9.659054
156.0601, 9.764571
156.5422, 10.10439
157.0243, 10.34653
157.5064, 10.23234
157.9885, 10.20063
158.4706, 10.45305
158.9528, 11.04750
159.4349, 11.48078
159.9170, 11.22231
160.3991, 10.85523
160.8812, 11.05317
161.3633, 12.86344
161.8455, 14.59612
162.3276, 15.45339
162.8097, 15.21137
163.2918, 14.78071
163.7739, 14.38802
164.2560, 14.01610
164.7382, 13.49943
165.2203, 12.76534
165.7024, 12.29439
166.1845, 12.44839
166.6666, 13.47011
167.1487, 14.43386
167.6309, 15.01966
168.1130, 15.20407
168.5951, 14.91912
169.0772, 13.40359
169.5593, 11.80606
170.0414, 11.23625
170.5236, 12.26718
171.0057, 13.42292
171.4878, 13.71169
171.9699, 13.27803
172.4520, 12.54488
172.9341, 11.29948
173.4163, 10.04874
173.8984, 9.470917
174.3805, 10.01795
174.8626, 10.75587
175.3447, 10.59955
175.8268, 9.758263
176.3090, 9.209196
176.7911, 10.01319
177.2732, 11.47362
177.7553, 12.43130
178.2374, 12.39828
178.7195, 11.96763
179.2017, 11.89582
179.6838, 12.14842
180.1659, 12.40350
180.6480, 12.54094
181.1301, 12.50023
181.6122, 12.10752
182.0944, 11.09587
182.5765, 9.868328
183.0586, 8.995632
183.5407, 8.487410
184.0228, 8.361292
184.5049, 8.764969
184.9871, 9.599150
185.4692, 10.56814
185.9513, 11.98831
186.4334, 13.34634
186.9155, 13.07563
187.3976, 11.04480
187.8798, 8.923641
188.3619, 8.763126
188.8440, 10.24125
189.3261, 11.23314
189.8082, 10.64686
190.2903, 9.035507
190.7725, 8.488928
191.2546, 9.124470
191.7367, 10.15804
192.2188, 10.76962
192.7009, 10.97700
193.1830, 10.99509
193.6652, 10.77731
194.1473, 10.44474
194.6294, 10.19230
195.1115, 9.947407
195.5936, 9.780460
196.0757, 9.820436
196.5579, 10.07366
197.0400, 10.33754
197.5221, 10.48420
198.0042, 10.53077
198.4863, 10.85822
198.9684, 11.58758
199.4506, 12.31887
199.9327, 12.29652
200.4148, 11.41253
200.8969, 10.69483
201.3790, 10.67331
201.8611, 11.40900
202.3433, 11.88911
202.8254, 12.16774
203.3075, 12.10578
203.7896, 11.20049
204.2717, 9.187870
204.7538, 7.642498
205.2360, 7.506359
205.7181, 9.008835
206.2002, 9.692976
206.6823, 9.262465
207.1644, 8.371433
207.6465, 8.371479
208.1287, 9.568340
208.6108, 10.58002
209.0929, 10.57702
209.5750, 9.211143
210.0571, 8.829613
210.5392, 9.816566
211.0214, 11.44398
211.5035, 12.19798
211.9856, 11.90610
212.4677, 11.21429
212.9498, 10.19980
213.4319, 8.584917
213.9140, 7.950718
214.3962, 8.710960
214.8783, 10.20037
215.3604, 10.75762
215.8425, 9.930944
216.3246, 9.201668
216.8067, 9.425732
217.2889, 11.13931
217.7710, 11.86422
218.2531, 11.13222
218.7352, 9.614607
219.2173, 8.977018
219.6994, 9.636358
220.1816, 10.36875
220.6637, 10.61379
221.1458, 10.19465
221.6279, 9.778669
222.1100, 9.270756
222.5921, 8.810143
223.0743, 8.809904
223.5564, 9.524918
224.0385, 10.26311
224.5206, 10.67673
225.0027, 10.63728
225.4848, 10.57565
225.9670, 10.48266
226.4491, 10.37710
226.9312, 10.31110
227.4133, 10.30888
227.8954, 10.30716
228.3775, 10.30479
228.8597, 10.40205
229.3418, 10.23566
229.8239, 9.697681
230.3060, 8.919004
230.7881, 8.263399
231.2702, 7.732784
231.7524, 7.380501
232.2345, 7.179270
232.7166, 7.123146
233.1987, 7.029469
233.6808, 6.866829
234.1629, 6.687353
234.6451, 6.653399
235.1272, 6.811859
235.6093, 6.992397
236.0914, 7.118311
236.5735, 7.081287
237.0556, 7.253994
237.5378, 7.733643
238.0199, 8.393469
238.5020, 8.950424
238.9841, 9.502743
239.4662, 9.842125
239.9483, 9.836737
240.4305, 9.265207
240.9126, 8.875645
241.3947, 8.739994
241.8768, 8.762638
242.3589, 8.728085
242.8410, 8.696075
243.3232, 8.515589
243.8053, 8.118685
244.2874, 7.461683
244.7695, 6.659863
245.2516, 5.513271
245.7337, 4.291306
246.2159, 3.576571
246.6980, 3.395128
247.1801, 3.684296
247.6622, 4.536940
248.1443, 6.339222
248.6264, 7.636847
249.1086, 8.422852
249.5907, 8.722075
250.0728, 8.512875
250.5549, 7.477955
251.0370, 6.468542
251.5191, 5.795584
252.0013, 5.520653
252.4834, 5.391920
252.9655, 5.404041
253.4476, 5.564772
253.9297, 5.984463
254.4118, 7.023220
254.8940, 7.632572
255.3761, 7.270443
255.8582, 5.521360
256.3403, 4.461172
256.8224, 4.190243
257.3046, 4.526588
257.7867, 5.316723
258.2688, 7.013523
258.7509, 8.218851
259.2330, 8.334002
259.7151, 7.128735
260.1973, 6.230598
260.6794, 5.792572
261.1615, 5.531748
261.6436, 4.997978
262.1257, 3.987980
262.6078, 3.191168
263.0900, 2.858999
263.5721, 3.034651
264.0542, 3.243389
264.5363, 3.553507
265.0184, 3.816360
265.5005, 3.837421
265.9827, 3.569777
266.4648, 3.175688
266.9469, 2.557667
267.4290, 1.697157
267.9111, 1.626041
268.3932, 2.734060
268.8754, 4.028322
269.3575, 4.295280
269.8396, 3.252876
270.3217, 2.217133
270.8038, 1.478519
271.2859, 1.023975
271.7681, 0.7466200
272.2502, 0.6851880
272.7323, 0.7204460
273.2144, 0.7606960
273.6965, 0.8224010
274.1786, 0.7991560
274.6608, 0.6464140
275.1429, 0.3840520
275.6250, 0.1321160
276.1071, 0.1274490
276.5892, 0.3250220
277.0714, 0.3986320
277.5535, 0.3489610
278.0356, 0.5514511
278.5177, 0.2404730
278.9998, 0.7648770
279.4819, 1.038906
279.9641, 1.049910
280.4462, 0.8737430
280.9283, 0.3720510
281.4104, 0.4789960
281.8925, 0.6861040
282.3746, 0.1399420
282.8568, 1.526035
283.3389, 2.084032
283.8210, 1.741215
284.3031, 1.134161
284.7852, 0.6184580
285.2673, 0.2006530
285.7495, 6.6101000E-02
286.2316, 0.1554470
286.7137, 0.1197280
287.1958, 5.0354000E-02
287.6779, 0.3669220
288.1600, 0.4295010
288.6422, 0.4683800
289.1243, 2.070631
289.6064, 2.249258
290.0885, 0.4709470
290.5706, 1.857698
291.0527, 2.218521
291.5349, 0.7442680
292.0170, 0.6215460
292.4991, 0.5084840
292.9812, 0.6269760
293.4633, 0.4090407
293.9454, 0.5914990
294.4276, 0.1500970
294.9097, 0.5013050
295.3918, 0.4684310
295.8739, 5.8596000E-02
296.3560, 1.079493
296.8381, 2.557457
297.3203, 3.413477
297.8024, 3.597023
298.2845, 3.438854
298.7666, 3.222704
299.2487, 2.937201
299.7308, 2.537210
300.2130, 1.862530
300.6951, 1.114460
301.1772, 0.4841690
301.6593, 2.7029000E-02
302.1414, 8.4389001E-02
302.6235, 1.115786
303.1057, 2.966799
303.5878, 4.197437
304.0699, 3.988697
304.5520, 3.301865
305.0341, 3.231682
305.5162, 3.711960
305.9984, 4.210403
306.4805, 4.362637
306.9626, 4.291731
307.4447, 4.208685
307.9268, 4.269609
308.4089, 4.236231
308.8911, 3.609257
309.3732, 2.600389
309.8553, 2.033831
310.3374, 2.619514
310.8195, 3.766165
311.3016, 4.900681
311.7838, 5.980921
312.2659, 6.928822
312.7480, 7.734552
313.2301, 8.352064
313.7122, 8.696638
314.1943, 8.525667
314.6765, 8.256378
315.1586, 8.150558
315.6407, 8.236031
316.1228, 8.556601
316.6049, 9.493155
317.0870, 10.63442
317.5692, 11.29211
318.0513, 10.92564
318.5334, 10.27814
319.0155, 9.490637
319.4976, 8.439600
319.9797, 8.072117
320.4619, 9.682249
320.9440, 11.78475
321.4261, 12.71472
321.9082, 10.56761
322.3903, 8.685839
322.8724, 8.313759
323.3546, 9.519123
323.8367, 10.46138
324.3188, 10.64869
324.8009, 10.53323
325.2830, 10.45060
325.7651, 10.28025
326.2473, 10.34838
326.7294, 10.76160
327.2115, 11.48821
327.6936, 12.27719
328.1757, 13.46763
328.6578, 14.45595
329.1400, 14.93609
329.6221, 14.51008
330.1042, 14.10669
330.5863, 13.41007
331.0684, 12.72750
331.5505, 13.03227
332.0327, 15.25414
332.5148, 17.38614
332.9969, 18.63914
333.4790, 18.70576
333.9611, 18.57857
334.4432, 18.18807
334.9254, 17.64090
335.4075, 17.06705
335.8896, 16.27028
336.3717, 15.86155
336.8538, 16.19545
337.3359, 17.39856
337.8180, 18.00469
338.3001, 17.89581
338.7823, 17.37411
339.2644, 16.66853
339.7465, 15.67181
340.2286, 14.99587
340.7107, 14.87079
341.1928, 15.22173
341.6750, 15.47696
342.1571, 15.63283
342.6392, 15.39346
343.1213, 14.21600
343.6034, 12.07913
344.0855, 11.16772
344.5677, 12.21100
345.0498, 14.33931
345.5319, 15.38789
346.0140, 15.32698
346.4961, 15.09894
346.9782, 15.40682
347.4604, 16.12281
347.9425, 16.42779
348.4246, 16.14888
348.9067, 15.50107
349.3888, 14.71356
349.8709, 13.79148
350.3531, 12.86644
350.8352, 11.99638
351.3173, 11.16456
351.7994, 10.35664
352.2815, 9.575368
352.7636, 8.782140
353.2458, 8.078094
353.7279, 7.357929
354.2100, 6.352083
354.6921, 4.462585
355.1742, 2.582363
355.6563, 1.729049
356.1385, 1.849455
356.6206, 2.254777
357.1027, 2.670457
357.5848, 2.983245
358.0669, 3.091313
358.5490, 2.864079
359.0312, 2.588470
359.5133, 2.541946
359.9954, 2.612635
360.4775, 2.457772
360.9596, 1.545752
361.4417, 0.5867600
361.9239, 8.0527000E-02
362.4060, 0.2131930
362.8881, 0.4801780
363.3702, 1.022247
363.8523, 1.518539
364.3344, 1.479329
364.8166, 1.782768
365.2987, 1.527637
365.7808, 1.756107
366.2629, 0.6266700
366.7450, 0.1744200
367.2271, 8.4559999E-02
367.7093, 0.2976280
368.1914, 0.4473090
368.6735, 4.4860002E-03
369.1556, 0.3296830
369.6377, 0.2956880
370.1198, 3.0689999E-02
370.6020, 3.1282000E-02
371.0841, 0.6960370
371.5662, 1.375822
372.0483, 1.559598
372.5304, 0.8549620
373.0125, 0.4036210
373.4947, 0.3476200
373.9768, 0.5237840
374.4589, 0.5382940
374.9410, 0.3194340
375.4231, 4.8207998E-02
375.9052, 0.2470590
376.3874, 0.5925960
376.8695, 0.6904260
377.3516, 0.5230620
377.8337, 0.1701590
378.3158, 0.3030810
378.7979, 0.9232840
379.2801, 1.495596
379.7622, 2.059937
380.2443, 2.539212
380.7264, 2.389075
381.2085, 1.513945
381.6906, 0.6722160
382.1728, 0.5601610
382.6549, 1.078442
383.1370, 1.669255
383.6191, 2.342027
384.1012, 2.849909
384.5833, 2.626025
385.0655, 1.775187
385.5476, 1.044453
386.0297, 0.9846090
386.5118, 1.283919
386.9939, 1.348871
387.4760, 1.104679
387.9582, 0.8294280
388.4403, 0.8104740
388.9224, 0.9513320
389.4045, 1.051370
389.8866, 0.6505920
390.3687, 0.4351690
390.8509, 1.412781
391.3330, 3.431097
391.8151, 4.826156
392.2972, 3.973537
392.7793, 2.300481
393.2614, 1.180973
393.7436, 1.253486
394.2257, 1.548535
394.7078, 1.736840
395.1899, 1.848448
395.6720, 1.962184
396.1541, 2.277750
396.6363, 2.462304
397.1184, 2.321987
397.6005, 1.728786
398.0826, 1.152096
398.5647, 0.1924800
399.0468, 0.5535470
399.5290, 0.3654150
400.0111, 2.593390
400.4932, 4.545200
400.9753, 4.388128
401.4574, 2.131483
401.9395, 0.7855010
402.4217, 0.7059280
402.9038, 1.138930
403.3859, 1.655752
403.8680, 2.432776
404.3501, 2.850986
404.8322, 2.722167
405.3144, 2.276319
405.7965, 2.150177
406.2786, 2.430582
406.7607, 2.736128
407.2428, 2.859902
407.7249, 2.792016
408.2071, 2.946671
408.6892, 3.396985
409.1713, 3.856662
409.6534, 3.949622
410.1355, 3.688373
410.6176, 3.336834
411.0998, 2.921605
411.5819, 2.496418
412.0640, 2.239593
412.5461, 2.145348
413.0282, 1.998511
413.5103, 1.355163
413.9925, 0.5770100
414.4746, 0.5284150
414.9567, 1.550412
415.4388, 2.734357
415.9209, 3.004984
416.4030, 2.688503
416.8852, 2.602452
417.3673, 3.641769
417.8494, 4.764585
418.3315, 4.964465
418.8136, 4.172048
419.2957, 3.412639
419.7779, 3.421453
420.2600, 3.683689
420.7421, 3.664326
421.2242, 2.702924
421.7063, 1.951891
422.1884, 1.958684
422.6706, 2.485124
423.1527, 2.700799
423.6348, 2.276093
424.1169, 1.828996
424.5990, 1.554582
425.0811, 1.398157
425.5633, 1.408727
426.0454, 1.858668
426.5275, 2.415132
427.0096, 2.586362
427.4917, 2.040744
427.9738, 1.551208
428.4560, 1.270123
428.9381, 1.224148
429.4202, 1.393548
429.9023, 1.953921
430.3844, 2.393078
430.8665, 2.198152
431.3487, 1.212510
431.8308, 0.6694170
432.3129, 0.7839060
432.7950, 1.227721
433.2771, 1.181279
433.7592, 0.6017200
434.2414, 0.4178520
434.7235, 1.567350
435.2056, 3.562301
435.6877, 4.225614
436.1698, 3.489625
436.6519, 2.312963
437.1341, 1.177528
437.6162, 0.3311950
438.0983, 0.5813260
438.5804, 2.966147
439.0625, 5.426337
439.5446, 5.155666
440.0268, 2.797164
440.5089, 0.6800500
440.9910, 0.3691900
441.4731, 0.7608470
441.9552, 0.8348020
442.4373, 0.3855590
442.9195, 0.1051890
443.4016, 0.5053350
443.8837, 1.218657
444.3658, 1.801967
444.8479, 2.220895
445.3300, 2.456507
445.8122, 2.376650
446.2943, 2.015037
446.7764, 1.687032
447.2585, 1.223955
447.7406, 0.9922580
448.2227, 1.244401
448.7049, 2.518467
449.1870, 3.289543
449.6691, 3.350438
450.1512, 3.006148
450.6333, 2.709818
451.1154, 2.420410
451.5976, 2.264632
452.0797, 2.352135
452.5618, 2.648415
453.0439, 2.622305
453.5260, 2.181065
454.0081, 1.709826
454.4903, 1.563084
454.9724, 1.736012
455.4545, 1.762210
455.9366, 1.528675
456.4187, 1.201495
456.9008, 1.165371
457.3830, 1.425184
457.8651, 1.634613
458.3472, 1.384397
458.8293, 0.9354080
459.3114, 0.7185260
459.7935, 0.7232620
460.2757, 0.9430210
460.7578, 1.610412
461.2399, 2.421489
461.7220, 2.942632
462.2041, 3.001504
462.6862, 2.855634
463.1684, 2.572277
463.6505, 2.192738
464.1326, 1.904152
464.6147, 1.815001
465.0968, 1.803573
465.5789, 1.770163
466.0611, 1.676622
466.5432, 1.803419
467.0253, 2.463933
467.5074, 3.229885
467.9895, 3.740017
468.4716, 3.768981
468.9538, 3.814036
469.4359, 3.959866
469.9180, 4.142213
470.4001, 4.159226
470.8822, 4.014091
471.3643, 3.677509
471.8465, 2.977169
472.3286, 1.827603
472.8107, 1.542609
473.2928, 2.338927
473.7749, 3.418233
474.2570, 3.898582
474.7392, 3.784019
475.2213, 3.534511
475.7034, 3.192152
476.1855, 2.841450
476.6676, 2.689064
477.1497, 2.716021
477.6319, 2.748299
478.1140, 2.560400
478.5961, 2.346823
479.0782, 2.563894
479.5603, 3.281698
480.0424, 3.849215
480.5246, 3.573381
481.0067, 2.838865
481.4888, 2.187402
481.9709, 1.790434
482.4530, 1.510786
482.9352, 1.364521
483.4173, 1.297598
483.8994, 1.135683
484.3815, 0.5177450
484.8636, 3.1629000E-02
485.3457, 3.0630000E-03
485.8279, 0.5758900
486.3100, 1.129056
486.7921, 1.554131
487.2742, 1.972593
487.7563, 2.551568
488.2384, 3.844056
488.7206, 4.284222
489.2027, 3.330580
489.6848, 1.452402
490.1669, 0.3751310
490.6490, 0.2833370
491.1311, 0.4689420
491.6133, 0.6590650
492.0954, 0.8583330
492.5775, 1.007279
493.0596, 1.107017
493.5417, 1.075413
494.0238, 0.5532910
494.5060, 0.2677690
494.9881, 0.3635010
495.4702, 0.8707800
495.9523, 0.7442127
496.4344, 2.382390
496.9165, 1.242295
497.3987, 0.4028100
497.8808, 1.103117
498.3629, 2.212224
498.8450, 2.568757
499.3271, 2.066948
499.8092, 1.607218
500.2914, 2.021191
500.7735, 2.528534
501.2556, 2.400079
501.7377, 2.229236
502.2198, 0.8840140
502.7019, 1.292269
503.1841, 0.9218390
503.6662, 0.4282220
504.1483, 0.3644350
504.6304, 1.041395
505.1125, 1.447089
505.5946, 1.557566
506.0768, 1.726192
506.5589, 1.953714
507.0410, 2.233949
507.5231, 2.644087
508.0052, 3.258260
508.4873, 3.458676
508.9695, 3.055378
509.4516, 2.395908
509.9337, 2.088631
510.4158, 2.125941
510.8979, 2.375536
511.3800, 2.991902
511.8622, 3.716290
512.3443, 3.883052
512.8264, 3.516902
513.3085, 3.107996
513.7906, 2.978516
514.2728, 3.046043
514.7549, 3.235644
515.2370, 3.582056
515.7191, 3.899592
516.2012, 4.274079
516.6833, 4.499256
517.1655, 4.268781
517.6476, 2.769188
518.1297, 1.513384
518.6118, 1.268855
519.0939, 1.924919
519.5760, 2.129450
520.0582, 0.6730230
520.5403, 0.3508110
521.0224, 0.1851720
521.5045, 3.343581
521.9866, 4.906407
522.4688, 4.209109
522.9509, 2.572853
523.4330, 1.523808
523.9151, 1.131242
524.3972, 0.9427810
524.8793, 0.8600660
525.3615, 0.9257420
525.8436, 1.407880
526.3257, 2.298602
526.8078, 2.969145
527.2899, 3.021312
527.7720, 2.599903
528.2542, 1.889579
528.7363, 0.8806000
529.2184, 6.0192000E-02
529.7005, 9.3941003E-02
530.1826, 0.1916280
530.6647, 0.6561870
531.1469, 1.428489
531.6290, 2.034037
532.1111, 1.981475
532.5932, 1.564823
533.0753, 1.360003
533.5574, 1.582608
534.0396, 1.995992
534.5217, 2.795884
535.0038, 4.033369
535.4859, 4.305998
535.9680, 2.803871
536.4501, 1.101224
536.9323, 6.3997000E-02
537.4144, 0.2278370
537.8965, 2.0703999E-02
538.3786, 0.9030220
538.8607, 2.024907
539.3428, 2.499641
539.8250, 2.284752
540.3071, 2.053144
540.7892, 1.994915
541.2713, 2.045758
541.7534, 2.112693
542.2355, 2.211971
542.7177, 2.221204
543.1998, 1.768463
543.6819, 1.301651
544.1640, 1.563430
544.6461, 2.644293
545.1282, 3.601877
545.6104, 3.775577
546.0925, 3.452493
546.5746, 2.921014
547.0567, 1.866337
547.5388, 1.164772
548.0209, 1.450974
548.5031, 2.287766
548.9852, 2.716222
549.4673, 1.908761
549.9494, 1.413301
550.4315, 1.857097
550.9136, 3.232918
551.3958, 3.698503
551.8779, 2.778953
552.3600, 1.731533
552.8421, 1.438928
553.3242, 2.034596
553.8063, 2.391677
554.2885, 2.454607
554.7706, 2.302725
555.2527, 1.805261
555.7348, 1.083921
556.2169, 0.9763500
556.6990, 2.162170
557.1812, 3.528734
557.6633, 3.053766
558.1454, 1.273023
558.6275, 9.4375998E-02
559.1096, 1.383083
559.5917, 3.199066
560.0739, 3.845069
560.5560, 3.224208
561.0381, 2.471035
561.5202, 1.728017
562.0023, 1.216054
562.4844, 1.101532
562.9666, 1.738635
563.4487, 2.283551
563.9308, 2.772288
564.4129, 3.109754
564.8950, 3.081890
565.3771, 2.406332
565.8593, 2.041312
566.3414, 2.379012
566.8235, 3.178879
567.3056, 3.309028
567.7877, 2.700055
568.2698, 1.914961
568.7520, 1.093206
569.2341, 0.3475580
569.7162, 0.1487330
570.1983, 0.5320010
570.6804, 1.142756
571.1625, 1.923033
571.6447, 2.638478
572.1268, 2.842585
572.6089, 2.187918
573.0910, 1.532962
573.5731, 1.489917
574.0552, 1.815826
574.5374, 2.072770
575.0195, 2.168386
575.5016, 2.130890
575.9837, 1.843128
576.4658, 1.349374
576.9479, 1.174522
577.4301, 1.785618
577.9122, 2.170508
578.3943, 1.680159
578.8764, 5.7210000E-03
579.3585, 0.4701530
579.8406, 0.5957680
580.3228, 2.090980
580.8049, 2.957874
581.2870, 3.210592
581.7691, 3.021011
582.2512, 2.258471
582.7333, 1.440543
583.2155, 1.597874
583.6975, 2.393861
584.1796, 2.775009
584.6617, 1.769186
585.1439, 0.4802980
585.6260, 0.1300850
586.1081, 0.1393810
586.5902, 4.6675000E-02
587.0723, 0.5574070
587.5544, 0.9550290
588.0366, 0.8834040
588.5187, 0.1012670
589.0008, 0.2575010
589.4829, 0.3115430
589.9650, 1.105305
590.4471, 1.617025
590.9293, 1.776923
591.4114, 1.804165
591.8935, 1.672343
592.3756, 1.460372
592.8577, 1.258595
593.3398, 1.057488
593.8220, 1.078665
594.3041, 1.550168
594.7862, 2.166709
595.2683, 2.200658
595.7504, 1.742619
596.2325, 1.345372
596.7147, 1.569397
597.1968, 1.925112
597.6789, 1.840220
598.1610, 1.268161
598.6431, 0.5950860
599.1252, 0.3800720
599.6074, 0.1891993
600.0895, 1.109316
600.5716, 0.3270440
601.0537, 1.455413
601.5358, 1.888557
602.0179, 1.920092
602.5001, 1.873538
602.9822, 1.572427
603.4643, 1.590261
603.9464, 2.231528
604.4285, 3.174033
604.9106, 3.230855
605.3928, 2.294290
605.8749, 1.445451
606.3570, 1.274989
606.8391, 1.600854
607.3212, 1.892387
607.8033, 2.145227
608.2855, 2.269277
608.7676, 2.152971
609.2497, 1.882210
609.7318, 1.519737
610.2139, 1.028156
610.6960, 0.6707820
611.1782, 0.5480830
611.6603, 0.6521370
612.1424, 0.9752130
612.6245, 2.088575
613.1066, 2.724571
613.5887, 2.509782
614.0709, 1.759591
614.5530, 1.020127
615.0351, 0.1291260
615.5172, 0.3801180
615.9993, 0.3656750
616.4814, 0.1444280
616.9636, 1.306072
617.4457, 3.226822
617.9278, 4.543727
618.4099, 3.719517
618.8920, 1.675533
619.3741, 1.156012
619.8563, 2.275075
620.3384, 3.430009
620.8205, 3.261194
621.3026, 2.393284
621.7847, 1.469429
622.2668, 0.3863400
622.7490, 0.1089450
623.2311, 0.8976350
623.7132, 2.464858
624.1953, 3.389324
624.6774, 2.751657
625.1595, 2.347317
625.6417, 2.611156
626.1238, 3.215174
626.6059, 3.116610
627.0880, 1.945748
627.5701, 1.215647
628.0522, 1.700093
628.5344, 3.058157
629.0165, 3.567918
629.4986, 3.218659
629.9807, 2.501802
630.4628, 1.355275
630.9449, 0.2261580
631.4271, 5.7770000E-03
631.9092, 0.6887170
632.3913, 1.569388
632.8734, 2.338053
633.3555, 2.869564
633.8376, 3.015105
634.3198, 2.560174
634.8019, 2.075393
635.2840, 1.685848
635.7661, 1.403561
636.2482, 1.182171
636.7303, 0.9004940
637.2125, 0.7817620
637.6946, 0.9463490
638.1767, 1.294297
638.6588, 1.690314
639.1409, 2.186418
639.6230, 2.363051
640.1052, 1.790957
640.5873, 0.8702160
641.0694, 1.014576
641.5515, 2.127426
642.0336, 3.100193
642.5157, 3.090367
642.9979, 2.574914
643.4800, 2.002464
643.9621, 1.406596
644.4442, 0.9775050
644.9263, 0.7427400
645.4084, 0.7369690
645.8906, 1.049266
646.3727, 2.259758
646.8548, 2.767696
647.3369, 1.918653
647.8190, 0.6989960
648.3011, 0.2982030
648.7833, 1.008121
649.2654, 1.575840
649.7475, 1.855399
650.2296, 1.846596
650.7117, 1.351269
651.1938, 0.4315870
651.6760, 9.8237000E-02
652.1581, 0.4001960
652.6402, 1.233459
653.1223, 1.163892
653.6044, 0.4314580
654.0865, 4.9093999E-02
654.5687, 1.073938
655.0508, 2.251655
655.5329, 2.732342
656.0150, 2.430711
656.4971, 2.110555
656.9792, 1.909383
657.4614, 1.697220
657.9435, 1.423788
658.4256, 1.042274
658.9077, 1.075820
659.3898, 1.730367
659.8719, 2.445241
660.3541, 2.581825
660.8362, 2.159495
661.3183, 1.783435
661.8004, 1.537504
662.2825, 1.388992
662.7646, 1.282176
663.2468, 1.240628
663.7289, 1.339518
664.2110, 1.800942
664.6931, 2.164343
665.1752, 1.995112
665.6573, 1.482826
666.1395, 1.073315
666.6216, 0.6424100
667.1037, 0.5985230
667.5858, 1.424232
668.0679, 2.916508
668.5500, 3.591010
669.0322, 3.108342
669.5143, 2.477977
669.9964, 2.030618
670.4785, 1.782842
670.9606, 2.224109
671.4427, 3.450338
671.9249, 4.426448
672.4070, 3.997887
672.8891, 2.815782
673.3712, 2.203213
673.8533, 2.382855
674.3354, 2.585186
674.8176, 2.052009
675.2997, 1.288968
675.7818, 0.8547910
676.2639, 1.099222
676.7460, 1.240531
677.2281, 0.8996120
677.7103, 0.4528920
678.1924, 0.3873930
678.6745, 0.9685180
679.1566, 1.320725
679.6387, 1.203087
680.1208, 0.9133310
680.6030, 1.314173
681.0851, 2.405337
681.5672, 2.890872
682.0493, 1.913090
682.5314, 0.4259100
683.0135, 0.1787810
683.4957, 0.9188490
683.9778, 1.658422
684.4599, 1.894671
684.9420, 1.912625
685.4241, 1.890986
685.9063, 1.836851
686.3884, 1.716007
686.8705, 1.587194
687.3526, 1.320549
687.8347, 0.7328700
688.3168, 0.3134720
688.7990, 0.6003810
689.2811, 0.1295210
689.7632, 1.028838
690.2453, 1.466177
690.7274, 1.465662
691.2095, 1.251417
691.6917, 0.8197560
692.1738, 0.3190090
692.6559, 0.3171950
693.1380, 0.8496120
693.6201, 0.7666300
694.1022, 1.108099
694.5844, 1.284123
695.0665, 1.498571
695.5486, 1.299490
696.0307, 1.145210
696.5128, 1.289038
696.9949, 1.273640
697.4771, 0.8735870
697.9592, 0.3826240
698.4413, 0.4556430
698.9234, 1.270346
699.4055, 1.928849
699.8876, 2.149812
700.3698, 2.109183
700.8519, 2.349306
701.3340, 2.796339
701.8161, 2.944408
702.2982, 2.324803
702.7803, 1.408361
703.2625, 0.4948300
703.7446, 0.3331750
704.2267, 0.6685170
704.7088, 0.2154310
705.1909, 1.151680
705.6730, 1.487150
706.1552, 1.129902
706.6373, 0.9229390
707.1194, 0.9394610
707.6015, 1.008615
708.0836, 1.013279
708.5657, 0.9416440
709.0479, 1.082792
709.5300, 1.456702
710.0121, 1.842364
710.4942, 1.924827
710.9763, 1.839572
711.4584, 1.999282
711.9406, 2.507927
712.4227, 2.791629
712.9048, 2.129003
713.3869, 1.152479
713.8690, 0.5382630
714.3511, 0.6859560
714.8333, 0.7601730
715.3154, 0.3808270
715.7975, 2.2471000E-02
716.2796, 5.1391002E-02
716.7617, 0.8124980
717.2438, 1.431736
717.7260, 1.797237
718.2081, 1.994468
718.6902, 2.216882
719.1723, 2.433130
719.6544, 2.331040
720.1365, 1.589771
720.6187, 0.8392290
721.1008, 1.001531
721.5829, 1.731604
722.0650, 2.224469
722.5471, 1.974015
723.0292, 1.568963
723.5114, 1.099520
723.9935, 0.6499770
724.4756, 0.5887130
724.9577, 1.215125
725.4398, 1.772638
725.9219, 2.061247
726.4041, 2.099079
726.8862, 1.921698
727.3683, 1.501552
727.8504, 1.161726
728.3325, 1.262612
728.8146, 1.514447
729.2968, 1.123622
729.7789, 0.1801710
730.2610, 0.4860640
730.7431, 0.1211530
731.2252, 0.5459500
731.7073, 1.015948
732.1895, 1.232535
732.6716, 1.379307
733.1537, 1.473773
733.6358, 1.518202
734.1179, 1.541922
734.6000, 1.502466
735.0822, 1.337847
735.5643, 0.9907230
736.0464, 0.7105470
736.5285, 0.7856480
737.0106, 1.124563
737.4927, 1.392444
737.9749, 1.536910
738.4570, 1.630934
738.9391, 1.785517
739.4212, 1.895702
739.9033, 1.850699
740.3854, 1.449807
740.8676, 1.108027
741.3497, 0.8772970
741.8318, 0.8200720
742.3139, 1.015401
742.7960, 1.623654
743.2781, 2.100395
743.7603, 2.460647
744.2424, 2.597602
744.7245, 2.164461
745.2066, 1.263243
745.6887, 0.7424400
746.1708, 0.8386690
746.6530, 1.198275
747.1351, 1.562499
747.6172, 1.887597
748.0993, 2.164283
748.5814, 2.414830
749.0635, 2.586685
749.5457, 2.724308
750.0278, 2.804966
750.5099, 2.561451
750.9920, 1.675723
751.4741, 1.170060
751.9562, 1.466781
752.4384, 2.093670
752.9205, 1.803318
753.4026, 0.6282770
753.8847, 0.1931720
754.3668, 4.5065001E-02
754.8489, 0.5641050
755.3311, 1.056901
755.8132, 1.414448
756.2953, 1.566337
756.7774, 1.334003
757.2595, 1.035186
757.7416, 0.7748120
758.2238, 0.5697810
758.7059, 0.4612310
759.1880, 0.5055860
759.6701, 0.5479780
760.1522, 0.4955060
760.6343, 0.4038140
761.1165, 0.6718910
761.5986, 1.295147
762.0807, 1.735110
762.5628, 1.515666
763.0449, 1.048226
763.5270, 1.239892
764.0092, 1.968759
764.4913, 2.582852
764.9734, 2.856665
765.4555, 2.784224
765.9376, 2.125990
766.4197, 0.8797510
766.9019, 0.2514710
767.3840, 0.6037900
767.8661, 1.137715
768.3482, 1.583166
768.8303, 1.936357
769.3124, 1.962272
769.7946, 1.639124
770.2767, 1.256257
770.7588, 0.9482670
771.2409, 0.7438400
771.7230, 0.7726490
772.2051, 1.021282
772.6873, 1.169074
773.1694, 0.8041410
773.6515, 0.4374220
774.1336, 0.4837340
774.6157, 1.072835
775.0978, 1.471044
775.5800, 1.537604
776.0621, 1.566881
776.5442, 1.756020
777.0263, 2.118926
777.5084, 2.373182
777.9905, 2.530629
778.4727, 2.485862
778.9548, 2.013892
779.4369, 1.323726
779.9190, 0.7050260
780.4011, 0.1849100
780.8832, 4.9275000E-02
781.3654, 0.4045930
781.8475, 0.9841020
782.3296, 1.262283
782.8117, 1.074293
783.2938, 0.9222300
783.7759, 0.7841680
784.2581, 0.7128520
784.7402, 0.7083680
785.2223, 0.7693290
785.7044, 1.248079
786.1865, 2.221895
786.6686, 2.996876
787.1508, 2.701207
787.6329, 1.851297
788.1150, 1.135791
788.5971, 0.6943210
789.0792, 0.6138780
789.5613, 1.535150
790.0435, 2.448912
790.5256, 2.334803
791.0077, 0.4294610
791.4898, 0.4503490
791.9719, 8.9464001E-02
792.4540, 1.009530
792.9362, 1.399091
793.4183, 1.293415
793.9004, 0.9361200
794.3825, 0.2983050
794.8646, 0.1814910
795.3467, 0.2159390
795.8289, 0.8969190
796.3110, 0.9406460
796.7931, 2.3941999E-02
797.2752, 0.6820370
797.7573, 0.2712970
798.2394, 0.4482010
798.7216, 0.8270690
799.2037, 0.6787050
799.6858, 0.6881920
800.1679, 0.9032960
800.6500, 1.167421
801.1321, 1.368976
801.6143, 1.494868
802.0964, 1.472952
802.5785, 1.288795
803.0606, 1.024466
803.5427, 0.4039660
804.0248, 7.4934997E-02
804.5070, 0.3208460
804.9891, 2.273410
805.4712, 3.391893
805.9533, 2.512369
806.4354, 1.097067
806.9175, 3.9055999E-02
807.3997, 0.8028100
807.8818, 0.3943830
808.3639, 1.638452
808.8460, 1.409426
809.3281, 3.298304
809.8102, 1.606911
810.2924, 0.7573060
810.7745, 1.144101
811.2566, 1.680522
811.7387, 1.639013
812.2208, 1.373073
812.7029, 1.159202
813.1851, 1.041243
813.6672, 0.9570180
814.1493, 0.8703710
814.6314, 0.8532830
815.1135, 1.038817
815.5956, 1.449035
816.0778, 1.457253
816.5599, 0.9840630
817.0420, 0.5572890
817.5241, 0.9150770
818.0062, 1.562976
818.4883, 1.653932
818.9705, 1.000985
819.4526, 0.4326190
819.9347, 0.2965240
820.4168, 0.4217110
820.8989, 0.7532190
821.3810, 1.386175
821.8632, 1.780544
822.3453, 1.939040
822.8274, 1.851048
823.3095, 1.251667
823.7916, 0.3256440
824.2737, 0.2799720
824.7559, 1.228286
825.2380, 2.205091
825.7201, 2.878086
826.2022, 3.127217
826.6843, 2.580232
827.1664, 1.060280
827.6486, 0.1326930
828.1307, 0.7876680
828.6128, 1.527447
829.0949, 1.553423
829.5770, 0.7828180
830.0591, 0.6541610
830.5413, 1.257720
831.0234, 1.961690
831.5055, 2.338422
831.9876, 2.471347
832.4697, 2.484027
832.9518, 2.390811
833.4340, 2.294061
833.9161, 2.380750
834.3982, 2.377546
834.8803, 1.986836
835.3624, 1.153729
835.8445, 0.7964870
836.3267, 1.075627
836.8088, 1.530248
837.2909, 2.077941
837.7730, 2.628369
838.2551, 2.512009
838.7372, 1.768056
839.2194, 1.049437
839.7015, 0.5539720
840.1836, 0.4422070
840.6657, 1.250954
841.1478, 2.756298
841.6299, 3.581924
842.1121, 2.446609
842.5942, 1.483393
843.0763, 1.522984
843.5584, 2.345315
844.0405, 2.684204
844.5226, 2.478126
845.0048, 2.241937
845.4869, 2.317959
845.9690, 2.405924
846.4511, 1.673855
846.9332, 0.4060430
847.4153, 0.4527140
847.8975, 0.2019170
848.3796, 0.3220810
848.8617, 0.8306710
849.3438, 1.274750
849.8259, 1.659183
850.3080, 1.992559
850.7902, 2.171522
851.2723, 2.144416
851.7544, 1.981605
852.2365, 1.839230
852.7186, 1.697465
853.2007, 1.485216
853.6829, 1.086448
854.1650, 0.7297420
854.6471, 0.5580030
855.1292, 0.5393430
855.6113, 0.7474060
856.0934, 1.606862
856.5756, 2.090568
857.0577, 1.855249
857.5398, 1.337750
858.0219, 1.408686
858.5040, 2.162915
858.9861, 2.589958
859.4683, 2.464166
859.9504, 2.191935
860.4325, 2.359835
860.9146, 2.707822
861.3967, 2.741237
861.8788, 2.146467
862.3610, 1.754729
862.8431, 2.160308
863.3252, 2.728132
863.8073, 2.841390
864.2894, 2.292874
864.7715, 1.977172
865.2537, 1.952658
865.7358, 1.911279
866.2179, 1.175603
866.7000, 7.0485003E-02
867.1821, 0.2687630
867.6642, 0.2854470
868.1464, 1.110178
868.6285, 2.301211
869.1106, 3.235988
869.5927, 3.288180
870.0748, 2.116008
870.5569, 1.625695
871.0391, 2.212284
871.5212, 2.759515
872.0033, 2.478226
872.4854, 1.524462
872.9675, 1.082674
873.4496, 1.128922
873.9318, 1.398159
874.4139, 1.896159
874.8960, 2.393181
875.3781, 2.702936
875.8602, 2.826148
876.3423, 2.817531
876.8245, 2.466446
877.3066, 2.270065
877.7887, 2.508550
878.2708, 2.979367
878.7529, 2.635714
879.2350, 1.477217
879.7172, 0.7699280
880.1993, 1.499153
880.6814, 2.464771
881.1635, 1.683109
881.6456, 7.7408999E-02
882.1277, 1.023334
882.6099, 0.4843790
883.0920, 1.740454
883.5741, 1.931213
884.0562, 1.481061
884.5383, 0.9087690
885.0204, 0.1091850
885.5026, 4.4140998E-02
885.9847, 0.7672500
886.4668, 1.791953
886.9489, 1.915657
887.4310, 1.497856
887.9131, 1.296218
888.3953, 1.615476
888.8774, 1.855296
889.3595, 1.578825
889.8416, 1.162022
890.3237, 0.9806320
890.8058, 1.137552
891.2880, 1.359358
891.7701, 1.701568
892.2522, 1.929933
892.7343, 1.759970
893.2164, 1.318887
893.6985, 0.8021040
894.1807, 0.2370280
894.6628, 0.1305230
895.1449, 1.397978
895.6270, 2.760215
896.1091, 3.332226
896.5912, 2.992507
897.0734, 2.628116
897.5555, 2.203526
898.0376, 1.848543
898.5197, 1.654384
899.0018, 1.571122
899.4839, 1.401744
899.9661, 1.171618
900.4482, 1.028894
900.9303, 1.053149
901.4124, 1.192525
901.8945, 1.592608
902.3766, 2.094922
902.8588, 2.151381
903.3409, 1.300835
903.8230, 0.8109720
904.3051, 1.045097
904.7872, 1.589053
905.2693, 1.498344
905.7515, 0.9361800
906.2336, 0.6290980
906.7157, 0.7820110
907.1978, 1.188089
907.6799, 2.013117
908.1620, 2.836568
908.6442, 3.119536
909.1263, 2.092384
909.6084, 1.765006
910.0905, 2.704755
910.5726, 3.630123
911.0547, 2.995446
911.5369, 1.024594
912.0190, 0.7212840
912.5011, 2.326328
912.9832, 3.597930
913.4653, 1.965021
913.9474, 0.3886930
914.4296, 1.340179
914.9117, 0.6375320
915.3938, 9.8621003E-02
915.8759, 0.7756820
916.3580, 1.227326
916.8401, 1.330164
917.3223, 1.147868
917.8044, 1.001337
918.2865, 0.8971820
918.7686, 0.9253080
919.2507, 1.223034
919.7328, 1.598774
920.2150, 1.914518
920.6971, 2.157479
921.1792, 2.303962
921.6613, 2.601153
922.1434, 2.390397
922.6255, 1.226083
923.1077, 0.1592900
923.5898, 0.3814760
924.0719, 0.4952730
924.5540, 1.333716
925.0361, 1.912998
925.5182, 2.340955
926.0004, 2.688818
926.4825, 2.862974
926.9646, 2.868937
927.4467, 2.673133
927.9288, 2.438950
928.4109, 2.110554
928.8931, 1.842857
929.3752, 1.839841
929.8573, 2.090365
930.3394, 1.806551
930.8215, 0.9909830
931.3036, 0.2907650
931.7858, 0.2264840
932.2679, 0.4755040
932.7500, 0.8473630
933.2321, 1.281820
933.7142, 1.504445
934.1964, 1.304207
934.6785, 1.074820
935.1606, 0.8952780
935.6427, 0.7621470
936.1248, 0.6775170
936.6069, 0.6382840
937.0891, 0.6031330
937.5712, 0.4996580
938.0533, 0.5064650
938.5354, 0.9808040
939.0175, 1.597434
939.4996, 1.975705
939.9818, 1.713748
940.4639, 1.679614
940.9460, 1.966777
941.4281, 2.241168
941.9102, 2.049961
942.3923, 1.470490
942.8745, 1.307084
943.3566, 1.624527
943.8387, 1.924370
944.3208, 1.824416
944.8029, 1.490693
945.2850, 0.9549450
945.7672, 0.2165110
946.2493, 0.2390240
946.7314, 0.4188560
947.2135, 0.2363910
947.6956, 0.5300660
948.1777, 1.604278
948.6599, 1.816426
949.1420, 1.315243
949.6241, 0.9412390
950.1062, 1.288552
950.5883, 1.655308
951.0704, 1.457579
951.5526, 0.9614120
952.0347, 0.6776090
952.5168, 0.7199440
952.9989, 0.8119960
953.4810, 0.9315530
953.9631, 1.125049
954.4453, 1.752129
954.9274, 2.593223
955.4095, 2.787258
955.8916, 2.179417
956.3737, 1.497377
956.8558, 1.115498
957.3380, 0.9263640
957.8201, 0.9093380
958.3022, 1.074512
958.7843, 1.051732
959.2664, 0.7302850
959.7485, 0.5801610
960.2307, 0.9344470
960.7128, 1.549411
961.1949, 1.919369
961.6770, 2.054430
962.1591, 1.987357
962.6412, 1.608198
963.1234, 1.173905
963.6055, 0.5614170
964.0876, 4.8739001E-02
964.5697, 0.1713120
965.0518, 1.137390
965.5339, 1.744786
966.0161, 1.819907
966.4982, 1.608101
966.9803, 1.156381
967.4624, 0.7092620
967.9445, 0.7462610
968.4266, 1.392929
968.9088, 2.054254
969.3909, 2.779001
969.8730, 3.186914
970.3551, 3.032076
970.8372, 2.349105
971.3193, 1.609700
971.8015, 0.7788850
972.2836, 0.2114210
972.7657, 0.4215540
973.2478, 0.8940730
973.7299, 1.113815
974.2120, 1.168755
974.6942, 1.280632
975.1763, 1.714404
975.6584, 1.915944
976.1405, 1.683123
976.6226, 1.337388
977.1047, 1.448230
977.5869, 1.947846
978.0690, 1.958060
978.5511, 1.283962
979.0332, 0.7962050
979.5153, 1.553308
979.9974, 2.616431
980.4796, 3.162335
980.9617, 3.038012
981.4438, 2.570065
981.9259, 1.651981
982.4080, 0.7515910
982.8901, 0.1767340
983.3723, 0.8692570
983.8544, 0.2296300
984.3365, 1.406070
984.8186, 2.641528
985.3007, 2.611917
985.7828, 2.213023
986.2650, 1.579670
986.7471, 0.9911760
987.2292, 0.8331580
987.7113, 1.157146
988.1934, 1.679603
988.6755, 2.485210
989.1577, 3.053931
989.6398, 2.534125
990.1219, 1.487047
990.6040, 0.8209620
991.0861, 0.6412780
991.5682, 0.7512680
992.0504, 1.503906
992.5325, 2.071537
993.0146, 2.024971
993.4967, 1.485681
993.9788, 1.133658
994.4609, 0.9681300
994.9431, 0.7159270
995.4252, 1.5125000E-02
995.9073, 0.4432860
996.3894, 0.6183130
996.8715, 2.283254
997.3536, 3.064532
997.8358, 1.398839
998.3179, 0.6314290
998.8000, 1.242610
999.2821, 2.137488
999.7642, 2.090832
1000.246, 1.347757
1000.728, 1.463634
1001.211, 2.469823
1001.693, 3.107085
1002.175, 1.847690
1002.657, 0.5699450
1003.139, 0.8160520
1003.621, 2.323452
1004.103, 2.776933
1004.585, 1.851868
1005.068, 1.173234
1005.550, 1.249844
1006.032, 1.650491
1006.514, 1.795913
1006.996, 1.745309
1007.478, 1.577808
1007.960, 1.166232
1008.442, 1.025867
1008.924, 2.013092
1009.407, 2.810839
1009.889, 2.163713
1010.371, 0.1011490
1010.853, 0.3560310
1011.335, 0.8039070
1011.817, 2.070427
1012.299, 2.553681
1012.781, 2.583326
1013.263, 2.309913
1013.746, 1.825725
1014.228, 1.414980
1014.710, 1.118273
1015.192, 0.8868480
1015.674, 0.6845880
1016.156, 0.5990990
1016.638, 0.9020170
1017.120, 1.428403
1017.603, 1.556125
1018.085, 1.108303
1018.567, 0.9089480
1019.049, 2.039357
1019.531, 3.067736
1020.013, 2.726266
1020.495, 1.101886
1020.977, 0.9215050
1021.459, 2.399910
1021.942, 3.392241
1022.424, 2.509134
1022.906, 1.054778
1023.388, 0.7914540
1023.870, 1.306498
1024.352, 1.792500
1024.834, 2.216572
1025.316, 2.242777
1025.799, 1.601365
1026.281, 0.9081900
1026.763, 0.7757110
1027.245, 1.160835
1027.727, 2.101122
1028.209, 3.545259
1028.691, 4.189663
1029.173, 2.072353
1029.656, 0.1833950
1030.138, 0.6082300
1030.620, 0.4982450
1031.102, 1.109077
1031.584, 1.098985
1032.066, 1.079934
1032.548, 1.172925
1033.030, 1.400908
1033.512, 2.058224
1033.995, 2.789728
1034.477, 2.870745
1034.959, 1.886128
1035.441, 1.230121
1035.923, 1.451771
1036.405, 1.852066
1036.887, 2.134277
1037.369, 2.283911
1037.851, 2.160510
1038.334, 1.779638
1038.816, 1.266505
1039.298, 0.9565617
1039.780, 0.4332110
1040.262, 0.2425800
1040.744, 0.1345008
1041.226, 0.1423832
1041.708, 0.6714320
1042.191, 0.3397690
1042.673, 1.218458
1043.155, 2.085051
1043.637, 1.156861
1044.119, 0.4332600
1044.601, 0.5297050
1045.083, 0.9546360
1045.565, 2.178163
1046.047, 2.356978
1046.530, 2.300594
1047.012, 2.221881
1047.494, 2.109690
1047.976, 1.872221
1048.458, 1.540184
1048.940, 1.407460
1049.422, 1.611514
1049.904, 1.842487
1050.386, 1.853873
1050.869, 1.783378
1051.351, 1.721014
1051.833, 1.612877
1052.315, 2.002125
1052.797, 3.072910
1053.279, 3.802787
1053.761, 3.283830
1054.243, 2.280735
1054.726, 1.888647
1055.208, 1.994415
1055.690, 2.298339
1056.172, 3.149471
1056.654, 3.526309
1057.136, 3.101742
1057.618, 2.436235
1058.100, 2.091187
1058.583, 2.070483
1059.065, 2.612162
1059.547, 3.713017
1060.029, 4.443995
1060.511, 4.024376
1060.993, 3.149461
1061.475, 1.908880
1061.957, 0.5423690
1062.439, 4.0052000E-02
1062.922, 0.5330700
1063.404, 1.122661
1063.886, 1.661097
1064.368, 1.972114
1064.850, 1.839608
1065.332, 1.346649
1065.814, 0.3660640
1066.296, 1.515952
1066.778, 1.883542
1067.261, 0.3947690
1067.743, 2.416746
1068.225, 2.471048
1068.707, 1.240938
1069.189, 1.091171
1069.671, 1.761925
1070.153, 2.427323
1070.635, 2.689820
1071.118, 2.917351
1071.600, 3.486883
1072.082, 3.920716
1072.564, 3.601715
1073.046, 2.432828
1073.528, 1.842272
1074.010, 1.894817
1074.492, 1.976454
1074.974, 1.399757
1075.457, 0.8278640
1075.939, 1.051969
1076.421, 1.826754
1076.903, 2.042495
1077.385, 1.352909
1077.867, 0.8638520
1078.349, 0.7278790
1078.831, 0.9337660
1079.313, 1.872819
1079.796, 2.994270
1080.278, 3.115211
1080.760, 2.013140
1081.242, 1.272121
1081.724, 1.760118
1082.206, 2.336579
1082.688, 2.701872
1083.170, 2.814241
1083.652, 2.248846
1084.135, 1.213187
1084.617, 0.8736790
1085.099, 1.874285
1085.581, 2.899396
1086.063, 3.381493
1086.545, 3.310760
1087.027, 2.559219
1087.509, 0.9879740
1087.992, 0.2000150
1088.474, 0.3023890
1088.956, 0.5972950
1089.438, 0.6946860
1089.920, 0.7760450
1090.402, 0.9595590
1090.884, 1.286042
1091.366, 1.886152
1091.849, 3.361270
1092.331, 3.827315
1092.813, 2.906626
1093.295, 1.746323
1093.777, 1.526845
1094.259, 1.884371
1094.741, 2.136818
1095.223, 2.245548
1095.705, 2.255865
1096.188, 1.951676
1096.670, 1.874116
1097.152, 2.288324
1097.634, 2.832854
1098.116, 2.879985
1098.598, 2.515078
1099.080, 2.458089
1099.562, 2.871559
1100.044, 3.117549
1100.527, 2.484881
1101.009, 1.678788
1101.491, 0.9522400
1101.973, 0.3837450
1102.455, 0.9254920
1102.937, 2.676422
1103.419, 3.783251
1103.901, 3.498525
1104.384, 2.667069
1104.866, 1.793823
1105.348, 1.078847
1105.830, 0.8183680
1106.312, 1.208724
1106.794, 1.368019
1107.276, 1.225487
1107.758, 1.129528
1108.240, 1.362836
1108.723, 1.635702
1109.205, 1.203488
1109.687, 0.4029520
1110.169, 5.5020000E-03
1110.651, 0.5873120
1111.133, 1.132412
1111.615, 1.652314
1112.097, 1.971455
1112.579, 1.790652
1113.062, 1.283248
1113.544, 1.154798
1114.026, 1.363286
1114.508, 1.462216
1114.990, 0.9171140
1115.472, 0.6129880
1115.954, 1.033713
1116.436, 1.747150
1116.919, 2.074008
1117.401, 2.050049
1117.883, 2.264032
1118.365, 2.802289
1118.847, 3.273909
1119.329, 3.234447
1119.811, 3.123255
1120.293, 3.279490
1120.776, 3.622269
1121.258, 3.834380
1121.740, 3.934183
1122.222, 3.670403
1122.704, 2.898864
1123.186, 2.089068
1123.668, 1.607017
1124.150, 1.324562
1124.632, 1.414372
1125.115, 2.105289
1125.597, 2.172865
1126.079, 1.377285
1126.561, 0.7239930
1127.043, 0.6260030
1127.525, 0.8480540
1128.007, 1.116896
1128.489, 1.387519
1128.971, 1.558316
1129.454, 1.507770
1129.936, 1.671942
1130.418, 2.293769
1130.900, 2.729847
1131.382, 2.463592
1131.864, 1.790920
1132.346, 1.576447
1132.828, 1.710393
1133.311, 1.845043
1133.793, 1.754663
1134.275, 1.770090
1134.757, 2.032393
1135.239, 2.345957
1135.721, 2.510877
1136.203, 2.559307
1136.685, 2.912663
1137.167, 3.505708
1137.650, 3.713618
1138.132, 2.705189
1138.614, 1.760798
1139.096, 1.613837
1139.578, 1.802097
1140.060, 1.718654
1140.542, 1.359802
1141.024, 0.8440960
1141.506, 0.1723570
1141.989, 0.1176180
1142.471, 0.6665480
1142.953, 1.705385
1143.435, 2.570446
1143.917, 3.197378
1144.399, 3.510544
1144.881, 3.497095
1145.363, 3.195856
1145.846, 2.575865
1146.328, 1.935020
1146.810, 1.542457
1147.292, 1.309611
1147.774, 1.123685
1148.256, 0.9952650
1148.738, 1.178685
1149.220, 1.854050
1149.703, 2.053505
1150.185, 1.327365
1150.667, 0.5450560
1151.149, 1.068165
1151.631, 2.145180
1152.113, 2.733183
1152.595, 2.595810
1153.077, 2.467520
1153.559, 2.402624
1154.042, 2.333416
1154.524, 2.176604
1155.006, 2.083348
1155.488, 2.768742
1155.970, 3.623717
1156.452, 3.300620
1156.934, 3.134450
1157.416, 2.752660
1157.898, 1.657352
1158.381, 1.642488
1158.863, 0.6867560
1159.345, 0.8348120
1159.827, 1.922583
1160.309, 2.654367
1160.791, 3.251439
1161.273, 4.128624
1161.755, 4.198549
1162.238, 2.621613
1162.720, 1.060228
1163.202, 1.003421
1163.684, 6.2914327E-02
1164.166, 1.678954
1164.648, 0.3147200
1165.130, 0.2435530
1165.612, 2.212649
1166.094, 3.871676
1166.577, 2.938034
1167.059, 1.290492
1167.541, 0.7532610
1168.023, 1.188363
1168.505, 1.435594
1168.987, 1.475503
1169.469, 1.496605
1169.951, 1.843371
1170.433, 1.922370
1170.916, 1.003196
1171.398, 4.0369999E-02
1171.880, 0.1083170
1172.362, 1.367878
1172.844, 2.039898
1173.326, 2.011542
1173.808, 1.881656
1174.290, 2.391266
1174.773, 2.628578
1175.255, 1.509471
1175.737, 6.7290001E-02
1176.219, 0.2333260
1176.701, 1.018512
1177.183, 2.029177
1177.665, 2.598318
1178.147, 2.855408
1178.630, 2.655243
1179.112, 2.408888
1179.594, 2.512744
1180.076, 2.805209
1180.558, 2.697731
1181.040, 2.163595
1181.522, 1.700277
1182.004, 1.380864
1182.486, 1.299266
1182.969, 1.734054
1183.451, 2.279796
1183.933, 2.626760
1184.415, 2.774227
1184.897, 2.841036
1185.379, 2.829149
1185.861, 2.667636
1186.343, 2.271795
1186.825, 2.008254
1187.308, 2.411638
1187.790, 2.996310
1188.272, 3.379802
1188.754, 3.520078
1189.236, 3.075751
1189.718, 1.960854
1190.200, 1.109547
1190.682, 0.8554250
1191.165, 0.8742420
1191.647, 0.8972070
1192.129, 0.9718430
1192.611, 1.209787
1193.093, 1.585169
1193.575, 1.559642
1194.057, 1.046939
1194.539, 0.7841370
1195.021, 1.161295
1195.504, 1.699981
1195.986, 1.909341
1196.468, 1.930891
1196.950, 1.919826
1197.432, 1.881964
1197.914, 1.871052
1198.396, 1.859508
1198.878, 2.104357
1199.360, 2.992069
1199.843, 3.775752
1200.325, 3.311090
1200.807, 2.310092
1201.289, 1.792700
1201.771, 1.934198
1202.253, 2.396606
1202.735, 3.290117
1203.217, 3.767048
1203.700, 2.992559
1204.182, 1.992208
1204.664, 2.083875
1205.146, 2.702355
1205.628, 2.931262
1206.110, 2.594987
1206.592, 2.081366
1207.074, 1.331203
1207.557, 0.7576800
1208.039, 0.7379230
1208.521, 0.9384860
1209.003, 0.9115000
1209.485, 0.8065920
1209.967, 0.9630600
1210.449, 1.682160
1210.931, 1.730341
1211.413, 0.9700770
1211.896, 0.4207770
1212.378, 1.066765
1212.860, 2.044524
1213.342, 2.538643
1213.824, 2.644833
1214.306, 2.477914
1214.788, 1.793528
1215.270, 1.862945
1215.752, 2.852258
1216.235, 3.601995
1216.717, 2.774261
1217.199, 1.756003
1217.681, 2.203198
1218.163, 3.424775
1218.645, 3.754879
1219.127, 2.805153
1219.609, 2.354120
1220.092, 2.537216
1220.574, 2.601901
1221.056, 1.677965
1221.538, 0.6102950
1222.020, 4.5017000E-02
1222.502, 7.4850000E-03
1222.984, 0.4623340
1223.466, 1.748808
1223.948, 2.092978
1224.431, 1.317486
1224.913, 0.5867860
1225.395, 1.099122
1225.877, 1.803246
1226.359, 1.737385
1226.841, 1.210284
1227.323, 1.056469
1227.805, 1.336639
1228.287, 1.710821
1228.770, 2.179356
1229.252, 2.242866
1229.734, 0.9920060
1230.216, 0.2939960
1230.698, 0.7388640
1231.180, 0.4561970
1231.662, 0.3131310
1232.144, 1.651809
1232.627, 2.310876
1233.109, 2.174910
1233.591, 1.822138
1234.073, 1.667548
1234.555, 1.490912
1235.037, 0.9442550
1235.519, 0.3596180
1236.001, 0.3831740
1236.484, 1.014023
1236.966, 1.880636
1237.448, 2.941093
1237.930, 3.606910
1238.412, 3.161909
1238.894, 2.569009
1239.376, 2.279683
1239.858, 2.198995
1240.340, 2.244224
1240.823, 2.387113
1241.305, 2.246471
1241.787, 1.797725
1242.269, 1.375701
1242.751, 1.080115
1243.233, 1.010138
1243.715, 1.395810
1244.197, 1.852790
1244.679, 1.685203
1245.162, 1.033609
1245.644, 0.6037490
1246.126, 0.4721270
1246.608, 0.6123400
1247.090, 1.211912
1247.572, 1.890327
1248.054, 2.794663
1248.536, 3.362907
1249.019, 2.108699
1249.501, 0.1411210
1249.983, 0.4620610
1250.465, 1.229586
1250.947, 2.661356
1251.429, 2.791537
1251.911, 2.592994
1252.393, 2.162128
1252.875, 1.702620
1253.358, 1.394439
1253.840, 1.296296
1254.322, 1.751119
1254.804, 2.671310
1255.286, 3.081865
1255.768, 2.444997
1256.250, 1.677750
1256.732, 0.8078540
1257.214, 0.1311520
1257.697, 0.1054810
1258.179, 0.4637230
1258.661, 0.8463750
1259.143, 1.210698
1259.625, 1.461808
1260.107, 1.530893
1260.589, 1.692113
1261.071, 2.032683
1261.554, 2.267942
1262.036, 1.850229
1262.518, 1.334946
1263.000, 1.453528
1263.482, 2.101819
1263.964, 2.557005
1264.446, 2.879887
1264.928, 2.440558
1265.411, 1.042964
1265.893, 0.1622180
1266.375, 6.9715001E-02
1266.857, 0.5608770
1267.339, 1.393042
1267.821, 2.351492
1268.303, 2.461642
1268.785, 1.617949
1269.267, 1.322497
1269.750, 1.742263
1270.232, 2.386023
1270.714, 3.306330
1271.196, 3.890792
1271.678, 3.478437
1272.160, 2.587784
1272.642, 1.931408
1273.124, 1.514839
1273.606, 1.397803
1274.089, 1.575907
1274.571, 1.905268
1275.053, 2.647747
1275.535, 3.071563
1276.017, 2.765310
1276.499, 2.162354
1276.981, 1.887633
1277.463, 1.937108
1277.946, 1.677502
1278.428, 1.149498
1278.910, 0.8812480
1279.392, 1.499667
1279.874, 1.802809
1280.356, 1.403476
1280.838, 0.9661800
1281.320, 1.434376
1281.802, 2.311095
1282.285, 2.605711
1282.767, 2.361684
1283.249, 1.947852
1283.731, 1.213470
1284.213, 0.8375540
1284.695, 0.8976720
1285.177, 1.031707
1285.659, 0.8019530
1286.141, 0.4646060
1286.624, 0.3475990
1287.106, 0.4483860
1287.588, 0.7463690
1288.070, 1.269814
1288.552, 1.892202
1289.034, 2.648070
1289.516, 2.981056
1289.998, 2.101271
1290.481, 0.9934990
1290.963, 0.1446280
1291.445, 0.2253400
1291.927, 0.3098430
1292.409, 1.852952
1292.891, 2.261879
1293.373, 1.577401
1293.855, 1.145644
1294.338, 2.531637
1294.820, 3.445855
1295.302, 2.177504
1295.784, 0.4943530
1296.266, 0.1325180
1296.748, 0.1563420
1297.230, 0.3862220
1297.712, 0.4213530
1298.194, 0.9142690
1298.677, 2.369575
1299.159, 2.985980
1299.641, 2.048491
1300.123, 2.849891
1300.605, 1.129625
1301.087, 2.356445
1301.569, 2.003842
1302.051, 0.8010100
1302.533, 2.0700000E-02
1303.016, 0.0000000E+00
##END=



