##NAMES=Shkatulkalite
##RRUFFID=R110193
##IDEAL CHEMISTRY=Na_10_Mn^2+^Ti^4+^_3_Nb^5+^_3_(Si_2_O_7_)_6_(OH)_2_F&#183;12H_2_O
##LOCALITY=Demix-Varennes quarry, Saint-Amable sill, Varennes & St-Amable, Lajemmerais RCM, Monteregie, Quebec, Canada
##OWNER=RRUFF
##SOURCE=Donald Doell
##DESCRIPTION=Pale yellow platy
##STATUS=The identification of this mineral is not yet confirmed.
##URL=rruff.info/R110193
244.4345, 0.0000000E+00
244.9166, 3.2837000E-02
245.3987, 0.5610960
245.8809, 1.094543
246.3630, 1.423401
246.8451, 1.674622
247.3272, 1.763733
247.8093, 1.795227
248.2914, 1.917175
248.7736, 2.212402
249.2557, 2.652405
249.7378, 3.042297
250.2199, 3.487427
250.7020, 3.690674
251.1841, 3.571655
251.6663, 3.208435
252.1484, 2.635315
252.6305, 1.861694
253.1126, 0.9984130
253.5947, 0.3710940
254.0768, 0.2333980
254.5590, 0.2572630
255.0411, 0.9479980
255.5232, 2.506592
256.0053, 3.367798
256.4874, 3.088745
256.9695, 2.178467
257.4517, 1.864075
257.9338, 2.603271
258.4159, 3.460144
258.8980, 4.556519
259.3801, 5.708374
259.8622, 6.810547
260.3444, 7.815613
260.8265, 8.581177
261.3086, 8.812988
261.7907, 7.809082
262.2728, 7.372253
262.7549, 8.186218
263.2371, 9.247620
263.7192, 9.408325
264.2013, 8.385864
264.6834, 6.985352
265.1655, 6.403259
265.6476, 7.027161
266.1298, 7.644958
266.6119, 8.124512
267.0940, 8.655884
267.5761, 9.436646
268.0582, 10.50653
268.5403, 11.75623
269.0225, 13.20593
269.5046, 15.05792
269.9867, 15.86115
270.4688, 14.73279
270.9509, 13.07440
271.4330, 12.00146
271.9152, 11.66254
272.3973, 11.71820
272.8794, 11.89917
273.3615, 12.22235
273.8436, 12.61938
274.3257, 12.95221
274.8079, 13.44934
275.2900, 14.23718
275.7721, 15.33478
276.2542, 16.89331
276.7363, 19.51154
277.2184, 22.77441
277.7006, 24.07098
278.1827, 21.30310
278.6648, 18.21436
279.1469, 17.56348
279.6290, 19.15033
280.1111, 21.08716
280.5933, 22.42603
281.0754, 23.20294
281.5575, 23.79523
282.0396, 24.31445
282.5217, 24.52570
283.0038, 24.03259
283.4860, 22.99567
283.9681, 22.29315
284.4502, 22.49176
284.9323, 23.12830
285.4144, 23.11359
285.8965, 22.03662
286.3787, 21.31952
286.8608, 22.30133
287.3429, 24.41998
287.8250, 25.51031
288.3071, 24.47772
288.7892, 22.63477
289.2714, 21.96375
289.7535, 22.57751
290.2356, 23.20209
290.7177, 23.13953
291.1998, 22.63177
291.6819, 22.32483
292.1641, 22.38171
292.6462, 22.62537
293.1283, 22.98993
293.6104, 23.44922
294.0925, 23.60931
294.5746, 23.21222
295.0568, 22.42694
295.5389, 21.46045
296.0210, 20.19073
296.5031, 19.20996
296.9852, 19.40057
297.4673, 20.37610
297.9495, 21.12097
298.4316, 21.21545
298.9137, 20.92389
299.3958, 20.58795
299.8779, 20.24658
300.3600, 20.05389
300.8422, 19.73627
301.3243, 19.50116
301.8064, 19.61987
302.2885, 20.01581
302.7706, 20.49323
303.2527, 20.77423
303.7349, 20.84686
304.2170, 20.76703
304.6991, 20.40192
305.1812, 19.96381
305.6633, 19.67303
306.1454, 19.47345
306.6276, 19.76941
307.1097, 21.49689
307.5918, 24.44165
308.0739, 25.82623
308.5560, 23.83405
309.0381, 20.74963
309.5203, 19.27716
310.0024, 19.59491
310.4845, 20.19379
310.9666, 20.03485
311.4487, 19.31580
311.9308, 19.00476
312.4130, 19.60797
312.8951, 20.10938
313.3772, 19.28192
313.8593, 17.35553
314.3414, 15.91705
314.8235, 16.12415
315.3057, 17.37982
315.7878, 18.23529
316.2699, 18.63647
316.7520, 18.46161
317.2341, 17.03802
317.7162, 14.99976
318.1984, 13.69159
318.6805, 14.18805
319.1626, 15.45190
319.6447, 15.77673
320.1268, 15.00342
320.6089, 14.11725
321.0911, 13.82654
321.5732, 13.70697
322.0553, 13.19843
322.5374, 11.99530
323.0195, 10.81061
323.5016, 10.46460
323.9838, 10.90576
324.4659, 11.09668
324.9480, 10.30206
325.4301, 9.296875
325.9122, 9.133789
326.3943, 10.02295
326.8765, 10.89935
327.3586, 11.07300
327.8407, 10.59436
328.3228, 9.626343
328.8049, 7.805359
329.2870, 6.073059
329.7692, 5.493835
330.2513, 5.968201
330.7334, 6.471069
331.2155, 6.526855
331.6976, 6.256409
332.1797, 5.894043
332.6619, 5.404602
333.1440, 4.986206
333.6261, 4.681335
334.1082, 4.549255
334.5903, 4.837585
335.0724, 6.081543
335.5546, 7.555908
336.0367, 8.342712
336.5188, 8.409668
337.0009, 8.056580
337.4830, 7.133545
337.9651, 5.992798
338.4473, 5.321350
338.9294, 5.404907
339.4115, 5.640076
339.8936, 5.498291
340.3757, 5.041992
340.8578, 4.705566
341.3400, 4.516907
341.8221, 4.693787
342.3042, 5.697815
342.7863, 7.758728
343.2684, 9.366516
343.7505, 9.732178
344.2327, 9.101746
344.7148, 7.956421
345.1969, 6.266235
345.6790, 4.430298
346.1611, 2.678467
346.6432, 1.026367
347.1254, 9.2712000E-02
347.6075, 0.3075560
348.0896, 1.197754
348.5717, 2.546875
349.0538, 4.384827
349.5359, 5.494690
350.0181, 4.436096
350.5002, 1.823792
350.9823, 0.5387570
351.4644, 1.977173
351.9465, 3.726807
352.4286, 4.087463
352.9108, 3.298279
353.3929, 2.557068
353.8750, 2.542542
354.3571, 2.821045
354.8392, 2.135986
355.3214, 0.3826290
355.8035, 1.838623
356.2856, 3.7048001E-02
356.7677, 3.454224
357.2498, 5.029419
357.7319, 3.659241
358.2141, 1.051880
358.6962, 0.5767210
359.1783, 1.114197
359.6604, 1.408264
360.1425, 1.437439
360.6246, 1.332336
361.1068, 1.196960
361.5889, 1.043701
362.0710, 0.8367920
362.5531, 0.4929200
363.0352, 2.8259000E-02
363.5173, 9.0392999E-02
363.9995, 0.6770020
364.4816, 1.225586
364.9637, 0.7226560
365.4458, 0.4407960
365.9279, 1.194031
366.4100, 0.9285280
366.8922, 5.1879999E-03
367.3743, 0.4562380
367.8564, 4.9561001E-02
368.3385, 0.2617800
368.8206, 0.1136470
369.3027, 9.3018003E-02
369.7849, 0.2660520
370.2670, 1.327942
370.7491, 2.434692
371.2312, 2.583740
371.7133, 1.151367
372.1954, 0.7354130
372.6776, 2.600220
373.1597, 4.359192
373.6418, 4.273926
374.1239, 2.587097
374.6060, 0.7814330
375.0881, 3.4179999E-03
375.5703, 0.2182620
376.0524, 0.6802370
376.5345, 2.193359
377.0166, 3.032898
377.4987, 2.212708
377.9808, 0.6324460
378.4630, 0.3059080
378.9451, 4.8583999E-02
379.4272, 1.062378
379.9093, 1.173950
380.3914, 0.5944210
380.8735, 1.631409
381.3557, 1.781250
381.8378, 1.310669
382.3199, 0.2221070
382.8020, 1.371277
383.2841, 3.090088
383.7662, 4.552002
384.2484, 5.771851
384.7305, 6.630005
385.2126, 6.747437
385.6947, 6.844360
386.1768, 6.887207
386.6589, 7.094849
387.1411, 7.941101
387.6232, 9.863708
388.1053, 12.39752
388.5874, 13.84918
389.0695, 13.86133
389.5516, 13.39246
390.0338, 12.28906
390.5159, 11.08594
390.9980, 10.24835
391.4801, 9.908020
391.9622, 9.942261
392.4443, 10.51880
392.9265, 11.81018
393.4086, 11.95197
393.8907, 9.267822
394.3728, 6.751709
394.8549, 6.238220
395.3370, 7.450012
395.8192, 9.053772
396.3013, 10.39807
396.7834, 11.48376
397.2655, 12.23663
397.7476, 12.51093
398.2297, 12.82928
398.7119, 13.95435
399.1940, 15.14044
399.6761, 15.21436
400.1582, 13.46442
400.6403, 11.45465
401.1224, 10.97083
401.6046, 11.90405
402.0867, 12.50421
402.5688, 12.12421
403.0509, 11.31299
403.5330, 10.73022
404.0151, 10.37683
404.4973, 10.05396
404.9794, 9.683411
405.4615, 9.288574
405.9436, 8.865601
406.4257, 8.410828
406.9078, 7.935425
407.3900, 7.269226
407.8721, 6.575623
408.3542, 6.576416
408.8363, 8.145264
409.3184, 9.692505
409.8005, 10.26398
410.2827, 9.964844
410.7648, 9.026794
411.2469, 7.374390
411.7290, 5.497009
412.2111, 4.577087
412.6932, 4.861389
413.1754, 5.242188
413.6575, 5.782410
414.1396, 6.335999
414.6217, 6.377625
415.1038, 5.834229
415.5859, 5.027405
416.0681, 4.224304
416.5502, 3.340637
417.0323, 2.734131
417.5144, 2.640381
417.9965, 2.566345
418.4786, 2.279480
418.9608, 1.876099
419.4429, 1.497498
419.9250, 1.206787
420.4071, 1.127380
420.8892, 1.621094
421.3713, 3.388245
421.8535, 4.562561
422.3356, 5.064575
422.8177, 5.116577
423.2998, 4.720398
423.7819, 3.908508
424.2640, 2.971619
424.7462, 2.131104
425.2283, 1.364868
425.7104, 1.037903
426.1925, 1.658936
426.6746, 2.140564
427.1567, 2.198914
427.6389, 1.939026
428.1210, 1.368347
428.6031, 0.3857420
429.0852, 0.5393680
429.5673, 0.2647090
430.0494, 1.656677
430.5316, 3.162781
431.0137, 3.645142
431.4958, 3.615234
431.9779, 3.199463
432.4600, 2.468201
432.9421, 1.728210
433.4243, 1.058472
433.9064, 0.5844120
434.3885, 0.9301760
434.8706, 2.410400
435.3527, 4.043396
435.8348, 5.240784
436.3170, 6.117554
436.7991, 7.003235
437.2812, 8.127808
437.7633, 9.017212
438.2454, 8.837769
438.7275, 7.789612
439.2097, 7.438477
439.6918, 8.517029
440.1739, 10.33008
440.6560, 11.90057
441.1381, 13.25421
441.6202, 14.11334
442.1024, 13.69507
442.5845, 13.12622
443.0666, 14.16028
443.5487, 16.80511
444.0308, 18.83502
444.5129, 18.31128
444.9951, 15.60779
445.4772, 14.35809
445.9593, 15.42590
446.4414, 16.71356
446.9235, 17.97870
447.4056, 18.95636
447.8878, 19.05090
448.3699, 18.08630
448.8520, 16.88861
449.3341, 16.75189
449.8162, 18.13989
450.2983, 19.32703
450.7805, 20.14136
451.2626, 20.94379
451.7447, 22.21613
452.2268, 23.65704
452.7089, 24.49872
453.1910, 24.20203
453.6732, 22.95844
454.1553, 21.47943
454.6374, 19.17920
455.1195, 17.68683
455.6016, 17.36359
456.0837, 17.88214
456.5659, 19.18536
457.0480, 21.04028
457.5301, 22.55933
458.0122, 22.65381
458.4943, 21.36133
458.9764, 20.77594
459.4586, 21.43884
459.9407, 22.10291
460.4228, 22.13452
460.9049, 21.72253
461.3870, 21.14154
461.8691, 20.32446
462.3513, 19.64697
462.8334, 19.79260
463.3155, 20.71680
463.7976, 21.19708
464.2797, 20.60779
464.7618, 19.73877
465.2440, 19.70288
465.7261, 20.54352
466.2082, 20.82092
466.6903, 19.47998
467.1724, 17.62201
467.6545, 16.54449
468.1367, 16.34290
468.6188, 16.64093
469.1009, 17.43121
469.5830, 18.45465
470.0651, 18.41101
470.5472, 16.13574
471.0294, 14.41815
471.5115, 14.34668
471.9936, 15.05933
472.4757, 15.53015
472.9578, 15.51239
473.4399, 15.25421
473.9221, 15.01593
474.4042, 14.84039
474.8863, 14.60999
475.3684, 13.99341
475.8505, 13.66779
476.3326, 14.12286
476.8148, 14.99255
477.2969, 15.70221
477.7790, 15.97656
478.2611, 15.87158
478.7432, 15.39862
479.2253, 14.31549
479.7075, 13.68054
480.1896, 13.99579
480.6717, 14.40741
481.1538, 14.33093
481.6359, 13.86261
482.1180, 13.57166
482.6002, 14.05023
483.0823, 15.00525
483.5644, 15.29218
484.0465, 14.81281
484.5286, 14.11456
485.0107, 12.89404
485.4929, 11.85992
485.9750, 12.07574
486.4571, 13.91766
486.9392, 15.60016
487.4213, 15.82251
487.9034, 15.15747
488.3856, 15.07379
488.8677, 15.91876
489.3498, 16.35431
489.8319, 14.92926
490.3140, 11.82465
490.7961, 9.848450
491.2783, 9.664612
491.7604, 9.873352
492.2425, 10.04517
492.7246, 10.12231
493.2067, 9.888672
493.6888, 9.269104
494.1710, 8.762329
494.6531, 9.277954
495.1352, 11.58038
495.6173, 12.42664
496.0994, 10.62738
496.5815, 8.748413
497.0637, 8.255615
497.5458, 8.648376
498.0279, 8.515564
498.5100, 6.980530
498.9921, 4.861877
499.4742, 4.435913
499.9564, 6.746704
500.4385, 8.081177
500.9206, 7.133240
501.4027, 5.674622
501.8848, 4.647095
502.3669, 4.109558
502.8491, 3.752075
503.3312, 3.217468
503.8133, 2.740479
504.2954, 3.230713
504.7775, 5.011902
505.2596, 6.204712
505.7418, 5.421814
506.2239, 3.825623
506.7060, 3.190308
507.1881, 3.874634
507.6702, 4.392883
508.1523, 3.649170
508.6345, 2.373291
509.1166, 1.794800
509.5987, 2.094788
510.0808, 2.835510
510.5629, 3.901672
511.0450, 5.158569
511.5272, 5.235718
512.0093, 3.458191
512.4914, 1.469666
512.9735, 1.005859
513.4556, 3.120117
513.9377, 3.571594
514.4199, 2.099243
514.9020, 0.2169800
515.3841, 2.167786
515.8662, 3.863770
516.3483, 4.436646
516.8304, 2.200867
517.3126, 0.6242070
517.7947, 1.304382
518.2768, 3.070190
518.7589, 4.138184
519.2410, 3.784424
519.7231, 2.815552
520.2053, 2.471069
520.6874, 2.828491
521.1695, 2.561951
521.6516, 0.7252200
522.1337, 0.7635500
522.6158, 0.2261960
523.0980, 1.678345
523.5801, 3.055176
524.0622, 2.973694
524.5443, 2.341553
525.0264, 1.851440
525.5085, 1.563293
525.9907, 2.087585
526.4728, 4.022644
526.9549, 6.010681
527.4370, 5.737793
527.9191, 2.746704
528.4012, 0.5969240
528.8834, 0.2453610
529.3655, 0.3257450
529.8476, 0.2883300
530.3297, 1.304199
530.8118, 1.615356
531.2939, 0.5856930
531.7761, 1.217407
532.2582, 2.337036
532.7403, 2.255310
533.2224, 2.401733
533.7045, 3.060242
534.1866, 3.677368
534.6688, 4.128540
535.1509, 4.257385
535.6330, 3.635010
536.1151, 1.648865
536.5972, 0.8381960
537.0793, 1.237793
537.5615, 1.071045
538.0436, 2.956909
538.5257, 3.653625
539.0078, 3.421509
539.4899, 1.953796
539.9720, 0.6098630
540.4542, 2.214417
540.9363, 1.041992
541.4184, 1.285889
541.9005, 2.457397
542.3826, 2.428955
542.8647, 2.155396
543.3469, 2.079529
543.8290, 2.127075
544.3111, 2.101318
544.7932, 1.942688
545.2753, 1.847595
545.7574, 1.897095
546.2396, 1.971130
546.7217, 1.965698
547.2038, 1.878296
547.6859, 1.774231
548.1680, 1.704285
548.6501, 1.640076
549.1323, 1.393127
549.6144, 0.3497310
550.0965, 0.2398070
550.5786, 2.135071
551.0607, 4.225098
551.5428, 5.008057
552.0250, 4.565308
552.5071, 4.191345
552.9892, 4.858276
553.4713, 6.280273
553.9534, 7.899414
554.4355, 9.949829
554.9177, 10.87952
555.3998, 9.034058
555.8819, 6.496155
556.3640, 6.221802
556.8461, 8.528503
557.3282, 10.79486
557.8104, 12.20422
558.2925, 12.92725
558.7746, 13.03625
559.2567, 12.59424
559.7388, 11.80493
560.2209, 10.64716
560.7031, 9.445251
561.1852, 9.229553
561.6673, 10.90247
562.1494, 12.33063
562.6315, 13.28625
563.1136, 14.14911
563.5958, 15.33801
564.0779, 16.75000
564.5600, 17.85614
565.0421, 18.08466
565.5242, 17.78589
566.0063, 18.30005
566.4885, 19.86835
566.9706, 21.69598
567.4527, 24.31598
567.9348, 26.58606
568.4169, 27.50067
568.8990, 27.17188
569.3812, 26.74146
569.8633, 26.75000
570.3454, 27.02454
570.8275, 27.25415
571.3096, 27.39172
571.7917, 27.82788
572.2739, 28.98285
572.7560, 30.33130
573.2381, 30.70844
573.7202, 29.77948
574.2023, 29.27179
574.6844, 29.57300
575.1666, 30.15326
575.6487, 30.60315
576.1308, 31.03876
576.6129, 31.99670
577.0950, 33.79144
577.5771, 35.64996
578.0593, 35.51807
578.5414, 31.93121
579.0235, 30.37030
579.5056, 33.54706
579.9877, 36.47870
580.4698, 36.69019
580.9520, 34.95813
581.4341, 33.41821
581.9162, 33.18652
582.3983, 33.19482
582.8804, 31.76520
583.3625, 29.06531
583.8447, 26.90521
584.3268, 25.67645
584.8089, 25.26501
585.2910, 26.04333
585.7731, 27.79761
586.2552, 28.12134
586.7374, 25.41760
587.2195, 22.73248
587.7016, 21.62469
588.1837, 21.55286
588.6658, 21.69666
589.1479, 21.82434
589.6301, 21.76868
590.1122, 21.22021
590.5943, 20.04547
591.0764, 19.69196
591.5585, 21.48517
592.0406, 22.53760
592.5228, 21.73639
593.0049, 20.04199
593.4870, 18.48242
593.9691, 17.32959
594.4512, 16.47943
594.9333, 16.02759
595.4155, 15.92377
595.8976, 15.50500
596.3797, 14.60437
596.8618, 14.05383
597.3439, 14.83887
597.8260, 16.08606
598.3082, 15.61829
598.7903, 12.77612
599.2724, 10.37164
599.7545, 9.358398
600.2366, 9.128601
600.7188, 9.338318
601.2009, 9.821350
601.6830, 9.949097
602.1651, 9.237183
602.6472, 8.072388
603.1293, 7.897095
603.6115, 9.756409
604.0936, 10.67981
604.5757, 9.830139
605.0578, 8.664124
605.5399, 8.128906
606.0220, 8.146362
606.5042, 7.888977
606.9863, 6.672180
607.4684, 5.385803
607.9505, 5.740723
608.4326, 7.682678
608.9147, 8.963989
609.3969, 8.896790
609.8790, 8.171387
610.3611, 7.156921
610.8432, 5.932007
611.3253, 5.747070
611.8074, 8.166626
612.2896, 10.16370
612.7717, 9.907166
613.2538, 8.214050
613.7359, 6.222900
614.2180, 4.357483
614.7001, 3.095093
615.1823, 3.105530
615.6644, 4.456909
616.1465, 5.395935
616.6286, 5.912476
617.1107, 5.999634
617.5928, 5.140625
618.0750, 4.174133
618.5571, 4.248962
619.0392, 5.514160
619.5213, 6.411804
620.0034, 5.516418
620.4855, 3.484802
620.9677, 1.562378
621.4498, 0.2082520
621.9319, 1.327393
622.4140, 1.485901
622.8961, 0.9221800
623.3782, 6.1340000E-02
623.8604, 1.839661
624.3425, 2.855347
624.8246, 2.456421
625.3067, 1.661560
625.7888, 0.9216310
626.2709, 0.3702390
626.7531, 0.1768190
627.2352, 0.4331050
627.7173, 0.8822020
628.1994, 1.055542
628.6815, 0.9037480
629.1636, 0.7282100
629.6458, 0.4718630
630.1279, 0.2717290
630.6100, 2.6977999E-02
631.0921, 8.7341003E-02
631.5742, 0.4000850
632.0563, 1.928772
632.5385, 3.101379
633.0206, 2.301697
633.5027, 0.5370480
633.9848, 0.1619870
634.4669, 1.508972
634.9490, 2.871521
635.4312, 2.938049
635.9133, 2.062378
636.3954, 1.913879
636.8775, 3.777161
637.3596, 4.630859
637.8417, 3.413635
638.3239, 1.949585
638.8060, 1.592529
639.2881, 2.189697
639.7702, 2.864563
640.2523, 3.175781
640.7344, 3.065552
641.2166, 2.133118
641.6987, 0.2962650
642.1808, 0.7050170
642.6629, 0.1555790
643.1450, 0.7036130
643.6271, 0.4937130
644.1093, 0.4099730
644.5914, 0.5391850
645.0735, 0.9616090
645.5556, 2.528931
646.0377, 3.775269
646.5198, 4.511658
647.0020, 4.004333
647.4841, 2.358582
647.9662, 1.215454
648.4483, 2.218201
648.9304, 4.927002
649.4125, 6.162903
649.8947, 5.050842
650.3768, 4.077332
650.8589, 3.648254
651.3410, 3.513306
651.8231, 3.668579
652.3052, 4.006653
652.7874, 4.124329
653.2695, 3.575012
653.7516, 2.933960
654.2337, 3.153076
654.7158, 3.977234
655.1979, 4.110107
655.6801, 3.090149
656.1622, 1.853149
656.6443, 1.505493
657.1264, 2.129089
657.6085, 2.060608
658.0906, 0.3687130
658.5728, 0.7471310
659.0549, 0.4828490
659.5370, 0.4373170
660.0191, 1.420410
660.5012, 2.275879
660.9833, 2.891235
661.4655, 3.262390
661.9476, 3.281189
662.4297, 2.286377
662.9118, 4.4983000E-02
663.3939, 1.299500
663.8760, 0.7446900
664.3582, 0.5740970
664.8403, 1.365540
665.3224, 1.675842
665.8045, 2.021973
666.2866, 2.408569
666.7687, 2.930420
667.2509, 3.917725
667.7330, 4.983887
668.2151, 5.426392
668.6972, 5.101746
669.1793, 4.530334
669.6614, 4.230957
670.1436, 4.188232
670.6257, 4.186890
671.1078, 4.305664
671.5899, 4.300415
672.0720, 3.653442
672.5541, 3.170410
673.0363, 3.785645
673.5184, 5.391907
674.0005, 6.534912
674.4826, 6.236877
674.9647, 5.483887
675.4468, 5.228760
675.9290, 5.339417
676.4111, 5.456055
676.8932, 5.473022
677.3753, 5.221558
677.8574, 4.419495
678.3395, 3.025574
678.8217, 2.164368
679.3038, 1.962280
679.7859, 2.101868
680.2680, 3.007263
680.7501, 4.068848
681.2322, 4.694214
681.7144, 4.814941
682.1965, 4.839233
682.6786, 5.030823
683.1607, 5.330505
683.6428, 5.572021
684.1249, 5.723877
684.6071, 5.817871
685.0892, 5.903931
685.5713, 5.892334
686.0534, 5.580383
686.5355, 4.919312
687.0176, 4.780640
687.4998, 5.449646
687.9819, 6.212036
688.4640, 7.592590
688.9461, 8.535889
689.4282, 7.219482
689.9103, 4.011963
690.3925, 1.908264
690.8746, 3.737244
691.3567, 7.685486
691.8388, 9.403198
692.3209, 8.856140
692.8030, 7.952637
693.2852, 6.996948
693.7673, 6.204895
694.2494, 5.839050
694.7315, 5.906494
695.2136, 5.952393
695.6957, 5.807739
696.1779, 5.769592
696.6600, 6.190430
697.1421, 6.664429
697.6242, 6.507935
698.1063, 5.791199
698.5884, 5.283997
699.0706, 5.652100
699.5527, 6.465088
700.0348, 6.375732
700.5169, 5.271240
700.9990, 4.662415
701.4811, 4.912109
701.9633, 5.560974
702.4454, 6.476929
702.9275, 7.591553
703.4096, 8.491638
703.8917, 9.136108
704.3738, 9.466492
704.8560, 9.001709
705.3381, 8.541504
705.8202, 9.293701
706.3023, 11.21643
706.7844, 13.07910
707.2665, 14.02283
707.7487, 14.27686
708.2308, 14.40619
708.7129, 14.36444
709.1950, 14.27051
709.6771, 14.06641
710.1592, 13.93127
710.6414, 14.25574
711.1235, 14.69812
711.6056, 14.41272
712.0877, 12.87677
712.5698, 11.68677
713.0519, 11.57837
713.5341, 12.15448
714.0162, 13.19763
714.4983, 14.54376
714.9804, 15.68146
715.4625, 16.34851
715.9446, 16.57825
716.4268, 16.30096
716.9089, 15.36530
717.3910, 14.84900
717.8731, 14.81665
718.3552, 15.00433
718.8373, 15.40662
719.3195, 15.97485
719.8016, 16.77753
720.2837, 17.94714
720.7658, 18.46118
721.2479, 17.13049
721.7300, 15.49579
722.2122, 15.18463
722.6943, 15.96954
723.1764, 17.10223
723.6585, 18.28003
724.1406, 18.80792
724.6227, 17.25537
725.1049, 13.21844
725.5870, 11.63354
726.0691, 14.34839
726.5512, 16.42926
727.0333, 15.58185
727.5154, 13.69696
727.9976, 12.58514
728.4797, 12.41327
728.9618, 12.48218
729.4439, 12.68787
729.9260, 12.85504
730.4081, 12.67657
730.8903, 12.34857
731.3724, 12.43896
731.8545, 13.08289
732.3366, 13.72131
732.8187, 13.75739
733.3008, 13.23724
733.7830, 12.65625
734.2651, 11.86578
734.7472, 11.34741
735.2293, 11.53485
735.7114, 11.76404
736.1935, 11.63495
736.6757, 11.14331
737.1578, 10.33820
737.6399, 8.882629
738.1220, 7.604126
738.6041, 7.452942
739.0862, 7.661377
739.5684, 6.695496
740.0505, 4.553162
740.5326, 2.774231
741.0147, 2.471985
741.4968, 3.344910
741.9789, 4.698608
742.4611, 6.958496
742.9432, 8.062683
743.4253, 7.061401
743.9074, 5.828674
744.3895, 5.302612
744.8716, 5.242371
745.3538, 5.472046
745.8359, 6.187744
746.3180, 6.592041
746.8001, 5.933777
747.2822, 4.970947
747.7643, 4.615356
748.2465, 4.694092
748.7286, 4.550232
749.2107, 3.848999
749.6928, 2.840881
750.1749, 1.789551
750.6570, 0.6602780
751.1392, 0.3409420
751.6213, 1.307556
752.1034, 1.953796
752.5855, 1.065796
753.0676, 5.9875000E-02
753.5497, 0.4821780
754.0319, 2.777039
754.5140, 4.109070
754.9961, 2.956970
755.4782, 1.618469
755.9603, 1.416992
756.4424, 1.819336
756.9246, 2.154785
757.4067, 2.242615
757.8888, 2.108643
758.3709, 1.751831
758.8530, 1.210938
759.3351, 0.5069580
759.8173, 0.4361570
760.2994, 0.8359990
760.7815, 0.4333500
761.2636, 0.4064330
761.7457, 1.801514
762.2278, 3.442383
762.7100, 3.871582
763.1921, 2.128601
763.6742, 0.6287230
764.1563, 3.0640000E-02
764.6384, 0.1874390
765.1205, 0.4650270
765.6027, 0.7366940
766.0848, 0.6638180
766.5669, 7.4219003E-02
767.0490, 0.6828000
767.5311, 1.229248
768.0132, 1.553894
768.4954, 1.649292
768.9775, 1.541992
769.4596, 0.8113400
769.9417, 1.124512
770.4238, 3.256165
770.9059, 3.717651
771.3881, 1.973328
771.8702, 0.6655270
772.3523, 0.3636470
772.8344, 0.7913210
773.3165, 2.4413999E-02
773.7986, 1.195618
774.2808, 1.820190
774.7629, 1.742004
775.2450, 1.211731
775.7271, 1.3430000E-03
776.2092, 1.188049
776.6913, 0.9996950
777.1735, 0.1957400
777.6556, 0.8601680
778.1377, 0.6342160
778.6198, 0.1146240
779.1019, 0.1289670
779.5840, 0.2719120
780.0662, 1.372009
780.5483, 5.138428
781.0304, 6.580566
781.5125, 3.302917
781.9946, 0.2048340
782.4767, 1.945679
782.9589, 2.318848
783.4410, 2.171997
783.9231, 1.635193
784.4052, 0.9855960
784.8873, 0.1555180
785.3694, 0.5457150
785.8516, 0.6385500
786.3337, 0.2435300
786.8158, 0.2182010
787.2979, 0.5729370
787.7800, 0.7602540
788.2621, 0.6757810
788.7443, 0.3269040
789.2264, 5.9199999E-03
789.7085, 0.1633910
790.1906, 0.6834110
790.6727, 2.055786
791.1548, 3.504272
791.6370, 4.347290
792.1191, 4.608643
792.6012, 4.364380
793.0833, 3.099182
793.5654, 1.980225
794.0475, 1.350952
794.5297, 1.143921
795.0118, 1.611023
795.4939, 2.459961
795.9760, 2.741516
796.4581, 1.865234
796.9402, 0.6182860
797.4224, 0.1320800
797.9045, 0.3231810
798.3866, 0.8491820
798.8687, 1.785339
799.3508, 2.470581
799.8329, 2.601013
800.3151, 2.156921
800.7972, 0.9672850
801.2793, 1.480957
801.7614, 2.628235
802.2435, 1.224304
802.7256, 0.1767580
803.2078, 1.056091
803.6899, 2.224670
804.1720, 1.704285
804.6541, 0.4770510
805.1362, 2.459534
805.6183, 3.187988
806.1005, 3.351624
806.5826, 3.528931
807.0647, 3.707458
807.5468, 3.799866
808.0289, 3.809570
808.5110, 4.001221
808.9932, 4.670837
809.4753, 5.542969
809.9574, 5.637085
810.4395, 4.695496
810.9216, 3.839539
811.4037, 3.637695
811.8859, 2.951904
812.3680, 0.1629640
812.8501, 3.112671
813.3322, 4.425659
813.8143, 3.417358
814.2964, 2.108704
814.7786, 0.9301760
815.2607, 0.3735960
815.7428, 2.424133
816.2249, 4.450928
816.7070, 5.065491
817.1891, 4.241760
817.6713, 3.488586
818.1534, 4.063477
818.6355, 5.401917
819.1176, 6.339294
819.5997, 6.949707
820.0818, 7.889404
820.5640, 9.346252
821.0461, 10.25995
821.5282, 9.663635
822.0103, 8.153992
822.4924, 7.577332
822.9745, 8.792908
823.4567, 8.999329
823.9388, 7.268555
824.4209, 5.680664
824.9030, 4.788696
825.3851, 4.532654
825.8672, 4.919495
826.3494, 5.935364
826.8315, 7.140259
827.3136, 8.935486
827.7957, 10.16809
828.2778, 9.429199
828.7599, 7.709900
829.2421, 6.817932
829.7242, 6.993408
830.2063, 7.312256
830.6884, 6.982300
831.1705, 6.417297
831.6526, 6.876465
832.1348, 8.423218
832.6169, 9.725525
833.0990, 10.63635
833.5811, 11.32684
834.0632, 11.68341
834.5453, 11.91034
835.0275, 12.57581
835.5096, 14.01666
835.9917, 14.86127
836.4738, 14.91003
836.9559, 14.59467
837.4380, 13.85168
837.9202, 12.96118
838.4023, 12.04865
838.8844, 11.23584
839.3665, 10.97046
839.8486, 11.85913
840.3307, 12.86249
840.8129, 13.01996
841.2950, 12.66956
841.7771, 12.17236
842.2592, 11.73834
842.7413, 12.34943
843.2234, 14.75623
843.7056, 17.50916
844.1877, 17.17517
844.6698, 13.35895
845.1519, 11.32526
845.6340, 11.53955
846.1161, 12.76715
846.5983, 15.32971
847.0804, 17.85345
847.5625, 18.01404
848.0446, 15.60571
848.5267, 14.34851
849.0089, 15.25787
849.4910, 16.20789
849.9731, 16.30219
850.4552, 16.42236
850.9373, 17.67279
851.4194, 19.70819
851.9016, 21.24878
852.3837, 21.76953
852.8658, 21.57135
853.3479, 20.36444
853.8300, 18.89264
854.3121, 18.46851
854.7943, 19.08313
855.2764, 20.23163
855.7585, 21.69775
856.2406, 23.36725
856.7227, 25.30670
857.2048, 27.38507
857.6870, 27.71521
858.1691, 25.64093
858.6512, 24.46185
859.1333, 25.39886
859.6154, 26.71582
860.0975, 26.67261
860.5797, 25.68243
861.0618, 26.19910
861.5439, 29.62512
862.0260, 32.17883
862.5081, 33.16089
862.9902, 33.48584
863.4724, 33.62982
863.9545, 33.54279
864.4366, 32.82495
864.9187, 31.41785
865.4008, 30.53693
865.8829, 31.30701
866.3651, 32.76245
866.8472, 34.29468
867.3293, 35.53009
867.8114, 35.20673
868.2935, 33.30609
868.7756, 31.88611
869.2578, 32.59509
869.7399, 34.58215
870.2220, 35.71887
870.7041, 35.89166
871.1862, 36.22778
871.6683, 36.89563
872.1505, 37.74524
872.6326, 38.64203
873.1147, 39.70465
873.5968, 41.30023
874.0789, 43.70416
874.5610, 45.10162
875.0432, 44.99420
875.5253, 44.57648
876.0074, 43.63745
876.4895, 42.87598
876.9716, 43.15277
877.4537, 44.16016
877.9359, 44.54022
878.4180, 43.32831
878.9001, 42.68518
879.3822, 44.81732
879.8643, 47.58832
880.3464, 48.21832
880.8286, 47.36041
881.3107, 47.34088
881.7928, 48.98230
882.2749, 51.23181
882.7570, 53.19873
883.2391, 54.77112
883.7213, 55.08325
884.2034, 54.28192
884.6855, 55.22144
885.1676, 58.80841
885.6497, 62.48804
886.1318, 64.37115
886.6140, 64.70917
887.0961, 64.22998
887.5782, 62.30823
888.0603, 61.16656
888.5424, 61.04950
889.0245, 61.38629
889.5067, 62.09564
889.9888, 63.03656
890.4709, 63.94916
890.9530, 64.83148
891.4351, 66.28442
891.9172, 69.77026
892.3994, 72.18420
892.8815, 71.52924
893.3636, 69.77179
893.8457, 68.57855
894.3278, 68.08990
894.8099, 68.02313
895.2921, 68.32275
895.7742, 68.48840
896.2563, 67.89771
896.7384, 66.94281
897.2205, 66.14771
897.7026, 65.61230
898.1848, 65.55658
898.6669, 66.05231
899.1490, 67.16547
899.6311, 69.16882
900.1132, 71.57111
900.5953, 72.35425
901.0775, 71.38098
901.5596, 70.20068
902.0417, 68.73938
902.5238, 68.08197
903.0059, 69.23303
903.4880, 71.22089
903.9702, 71.99139
904.4523, 71.10699
904.9344, 70.72650
905.4165, 70.77124
905.8986, 71.40796
906.3807, 73.14014
906.8629, 75.10846
907.3450, 76.69165
907.8271, 77.85303
908.3092, 78.66693
908.7913, 79.22253
909.2734, 79.30615
909.7556, 78.47278
910.2377, 77.43610
910.7198, 76.54065
911.2019, 76.03076
911.6840, 76.57166
912.1661, 78.21271
912.6483, 79.47955
913.1304, 78.89703
913.6125, 77.48236
914.0946, 76.69086
914.5767, 76.40869
915.0588, 76.45343
915.5410, 76.73584
916.0231, 76.84045
916.5052, 76.49237
916.9873, 76.23938
917.4694, 77.25226
917.9515, 79.47675
918.4337, 80.07367
918.9158, 78.76300
919.3979, 77.47070
919.8800, 76.70624
920.3621, 76.39178
920.8442, 76.65027
921.3264, 77.42371
921.8085, 77.70062
922.2906, 77.11511
922.7727, 76.44202
923.2548, 75.55597
923.7369, 74.74084
924.2191, 74.18256
924.7012, 73.83374
925.1833, 73.51837
925.6654, 73.21014
926.1475, 73.09155
926.6296, 73.86212
927.1118, 74.19116
927.5939, 72.54163
928.0760, 70.49500
928.5581, 70.16992
929.0402, 71.18835
929.5223, 71.47552
930.0045, 70.03638
930.4866, 68.79901
930.9687, 69.89996
931.4508, 71.61395
931.9329, 71.23071
932.4150, 69.30969
932.8972, 67.85950
933.3793, 67.40674
933.8614, 66.95801
934.3435, 65.53680
934.8256, 65.78284
935.3077, 64.11450
935.7899, 65.71155
936.2720, 66.66412
936.7541, 66.83344
937.2362, 65.94507
937.7183, 63.72253
938.2004, 60.80225
938.6826, 58.00208
939.1647, 55.38373
939.6468, 53.83380
940.1289, 53.51404
940.6110, 53.37622
941.0931, 53.79327
941.5753, 53.68542
942.0574, 51.92212
942.5395, 49.10089
943.0216, 46.80469
943.5037, 44.93030
943.9858, 43.88983
944.4680, 45.54010
944.9501, 45.93378
945.4322, 42.07019
945.9143, 37.14868
946.3964, 34.62006
946.8785, 34.36005
947.3607, 33.99060
947.8428, 32.35443
948.3249, 31.23828
948.8070, 32.63708
949.2891, 34.10382
949.7712, 32.87091
950.2534, 30.00964
950.7355, 28.00348
951.2176, 27.44623
951.6997, 26.97656
952.1818, 25.39777
952.6639, 23.58636
953.1461, 22.87134
953.6282, 22.83765
954.1103, 22.47595
954.5924, 21.72418
955.0745, 21.30182
955.5566, 21.58282
956.0388, 21.49561
956.5209, 19.21478
957.0030, 15.31366
957.4851, 12.76624
957.9672, 11.55664
958.4493, 10.36139
958.9315, 8.791504
959.4136, 8.035461
959.8957, 9.188049
960.3778, 11.28552
960.8599, 11.81586
961.3420, 10.48938
961.8242, 9.068237
962.3063, 7.449890
962.7884, 6.028076
963.2705, 5.171570
963.7526, 4.225830
964.2347, 1.959839
964.7169, 2.355896
965.1990, 2.895264
965.6811, 2.399475
966.1632, 5.031677
966.6453, 5.170044
967.1274, 4.506470
967.6096, 3.123901
968.0917, 1.698853
968.5738, 1.251648
969.0559, 1.771484
969.5380, 1.797974
970.0201, 0.5449830
970.5023, 0.6838380
970.9844, 1.629211
971.4665, 2.202454
971.9486, 2.233521
972.4307, 1.877991
972.9128, 1.230042
973.3950, 0.3427120
973.8771, 0.1261600
974.3592, 2.026367
974.8413, 3.919067
975.3234, 3.491028
975.8055, 2.105286
976.2877, 1.862244
976.7698, 2.733337
977.2519, 3.461914
977.7340, 3.452820
978.2161, 3.269104
978.6982, 3.725281
979.1804, 4.319885
979.6625, 4.059021
980.1446, 3.091187
980.6267, 1.917297
981.1088, 0.6716310
981.5909, 0.7220460
982.0731, 2.384277
982.5552, 3.825500
983.0373, 4.173218
983.5194, 3.487000
984.0015, 1.822266
984.4836, 0.8082280
984.9658, 2.335388
985.4479, 2.046509
985.9300, 0.9548340
986.4121, 0.1852420
986.8942, 1.105286
987.3763, 0.5065310
987.8585, 2.061340
988.3406, 2.920837
988.8227, 1.410767
989.3048, 0.2123410
989.7869, 1.142029
990.2690, 1.581970
990.7512, 1.764221
991.2333, 1.675171
991.7154, 1.066406
992.1975, 1.010742
992.6796, 1.529724
993.1617, 1.010986
993.6439, 3.334778
994.1260, 3.826477
994.6081, 3.264221
995.0902, 2.688843
995.5723, 2.097534
996.0544, 1.374390
996.5366, 0.6107790
997.0187, 1.086609
997.5008, 2.224243
997.9829, 5.304810
998.4650, 5.273193
998.9471, 3.523621
999.4293, 2.469421
999.9114, 2.437317
1000.393, 2.718750
1000.876, 3.810791
1001.358, 4.317322
1001.840, 2.733643
1002.322, 1.094055
1002.804, 1.298157
1003.286, 2.925232
1003.768, 4.891541
1004.250, 6.957886
1004.733, 8.211121
1005.215, 7.634521
1005.697, 6.626892
1006.179, 5.881836
1006.661, 5.558472
1007.143, 6.023560
1007.625, 7.063721
1008.107, 8.080811
1008.589, 8.852722
1009.072, 9.143677
1009.554, 8.541443
1010.036, 7.522583
1010.518, 6.338928
1011.000, 5.288757
1011.482, 4.985168
1011.964, 5.419800
1012.446, 6.086060
1012.929, 6.732056
1013.411, 7.286987
1013.893, 7.751282
1014.375, 8.027771
1014.857, 7.852661
1015.339, 7.316040
1015.821, 6.577942
1016.303, 5.759399
1016.785, 5.314819
1017.268, 5.539612
1017.750, 6.406067
1018.232, 8.440430
1018.714, 11.07910
1019.196, 11.81073
1019.678, 10.73090
1020.160, 9.159668
1020.642, 7.469482
1021.125, 6.490601
1021.607, 6.981018
1022.089, 8.268555
1022.571, 8.823364
1023.053, 8.684875
1023.535, 8.483582
1024.017, 8.221497
1024.499, 8.558777
1024.981, 9.815063
1025.464, 10.90350
1025.946, 10.79944
1026.428, 9.841736
1026.910, 8.968079
1027.392, 8.122070
1027.874, 7.935120
1028.356, 8.556213
1028.838, 9.043579
1029.321, 9.071899
1029.803, 8.940002
1030.285, 8.896423
1030.767, 8.972778
1031.249, 9.273926
1031.731, 9.816650
1032.213, 10.21558
1032.695, 10.34137
1033.177, 10.78711
1033.660, 12.21399
1034.142, 13.22681
1034.624, 11.93945
1035.106, 8.949341
1035.588, 8.196167
1036.070, 11.24737
1036.552, 12.72833
1037.034, 11.76837
1037.516, 10.60315
1037.999, 10.07898
1038.481, 9.780334
1038.963, 9.188965
1039.445, 8.385925
1039.927, 7.969543
1040.409, 8.358887
1040.891, 8.369934
1041.373, 7.443970
1041.855, 6.850952
1042.338, 7.507385
1042.820, 8.220947
1043.302, 7.384705
1043.784, 5.416870
1044.266, 5.170227
1044.748, 8.688232
1045.230, 10.48132
1045.712, 8.417175
1046.195, 6.622559
1046.677, 7.286255
1047.159, 8.853210
1047.641, 9.801941
1048.123, 10.01581
1048.605, 9.461853
1049.087, 7.406494
1049.569, 5.845276
1050.052, 5.313477
1050.534, 4.924072
1051.016, 4.439148
1051.498, 3.937073
1051.980, 3.311890
1052.462, 2.731384
1052.944, 3.066833
1053.426, 5.279602
1053.908, 6.727356
1054.391, 6.236023
1054.873, 5.494995
1055.355, 5.265320
1055.837, 5.295959
1056.319, 5.257874
1056.801, 5.278198
1057.283, 6.042969
1057.765, 8.063110
1058.248, 9.967285
1058.730, 12.05182
1059.212, 13.20367
1059.694, 12.08514
1060.176, 10.16235
1060.658, 9.066162
1061.140, 8.888611
1061.622, 9.019348
1062.104, 9.286926
1062.587, 9.557922
1063.069, 9.589783
1063.551, 9.855164
1064.033, 11.23761
1064.515, 12.61035
1064.997, 12.44476
1065.479, 11.03802
1065.961, 9.933838
1066.443, 9.549316
1066.926, 9.614197
1067.408, 10.37561
1067.890, 11.08099
1068.372, 11.27496
1068.854, 11.15198
1069.336, 10.86554
1069.818, 10.51721
1070.300, 10.17676
1070.782, 9.724915
1071.265, 9.954285
1071.747, 12.15179
1072.229, 14.05664
1072.711, 13.96478
1073.193, 13.12451
1073.675, 12.89508
1074.157, 13.17523
1074.639, 13.18091
1075.122, 12.65002
1075.604, 12.29010
1076.086, 13.17889
1076.568, 13.43573
1077.050, 10.89606
1077.532, 8.015259
1078.014, 7.686646
1078.496, 9.152344
1078.979, 9.937073
1079.461, 9.390015
1079.943, 8.742920
1080.425, 8.476990
1080.907, 8.343811
1081.389, 8.188660
1081.871, 8.117310
1082.353, 8.456970
1082.835, 8.906921
1083.318, 8.571167
1083.800, 7.279907
1084.282, 6.815308
1084.764, 8.909363
1085.246, 10.80322
1085.728, 11.11615
1086.210, 10.64447
1086.692, 9.242432
1087.175, 7.951172
1087.657, 8.902588
1088.139, 12.25952
1088.621, 14.77240
1089.103, 14.86487
1089.585, 14.25684
1090.067, 13.61261
1090.549, 12.61743
1091.031, 10.36212
1091.514, 7.940002
1091.996, 6.984375
1092.478, 7.635010
1092.960, 8.982910
1093.442, 11.52722
1093.924, 13.23560
1094.406, 13.20044
1094.888, 12.24475
1095.370, 10.25348
1095.853, 8.116028
1096.335, 6.905701
1096.817, 6.609497
1097.299, 6.563782
1097.781, 6.678711
1098.263, 6.859131
1098.745, 7.256897
1099.227, 7.493958
1099.709, 7.338440
1100.192, 6.970520
1100.674, 6.462769
1101.156, 5.906799
1101.638, 5.508667
1102.120, 5.215576
1102.602, 5.487915
1103.084, 7.389893
1103.566, 8.557800
1104.049, 7.593262
1104.531, 5.926208
1105.013, 4.203674
1105.495, 2.869080
1105.977, 2.942749
1106.459, 4.817810
1106.941, 6.182068
1107.423, 6.110718
1107.906, 6.221985
1108.388, 7.739868
1108.870, 8.752197
1109.352, 7.466309
1109.834, 5.068176
1110.316, 3.844482
1110.798, 4.016541
1111.280, 3.407471
1111.762, 0.7435910
1112.245, 1.055969
1112.727, 0.9619140
1113.209, 0.7011720
1113.691, 1.314514
1114.173, 2.086914
1114.655, 2.008667
1115.137, 1.152283
1115.619, 0.5137330
1116.102, 3.4180000E-02
1116.584, 6.8787001E-02
1117.066, 0.5765990
1117.548, 1.061279
1118.030, 0.8921510
1118.512, 0.6512450
1118.994, 1.083862
1119.476, 0.6752320
1119.958, 0.3281250
1120.441, 0.2589720
1120.923, 0.8119510
1121.405, 1.133362
1121.887, 1.844604
1122.369, 3.874329
1122.851, 5.100952
1123.333, 3.392090
1123.815, 0.3823240
1124.297, 0.2173460
1124.780, 1.813538
1125.262, 3.608643
1125.744, 5.351685
1126.226, 5.939819
1126.708, 4.750244
1127.190, 3.880798
1127.672, 4.601257
1128.154, 5.958618
1128.636, 6.647583
1129.119, 6.681641
1129.601, 6.026184
1130.083, 4.564453
1130.565, 3.641052
1131.047, 3.395935
1131.529, 3.636230
1132.011, 4.343506
1132.493, 5.092957
1132.976, 5.445496
1133.458, 5.529846
1133.940, 5.712097
1134.422, 5.984985
1134.904, 6.348145
1135.386, 6.777100
1135.868, 6.602661
1136.350, 5.670105
1136.833, 5.094788
1137.315, 5.703064
1137.797, 6.914246
1138.279, 8.154785
1138.761, 9.099060
1139.243, 7.915955
1139.725, 5.316772
1140.207, 4.760864
1140.689, 6.408447
1141.172, 7.247864
1141.654, 5.855347
1142.136, 3.593811
1142.618, 1.362976
1143.100, 0.1909790
1143.582, 0.5567630
1144.064, 2.600769
1144.546, 3.986084
1145.029, 4.645691
1145.511, 5.108154
1145.993, 5.547607
1146.475, 5.906799
1146.957, 6.197266
1147.439, 6.270813
1147.921, 5.707520
1148.403, 5.070679
1148.885, 4.739746
1149.368, 4.996094
1149.850, 7.080017
1150.332, 10.27985
1150.814, 11.10895
1151.296, 7.645874
1151.778, 4.705505
1152.260, 6.374023
1152.742, 8.177734
1153.224, 6.496643
1153.707, 3.841187
1154.189, 2.980713
1154.671, 3.446655
1155.153, 3.429871
1155.635, 2.567627
1156.117, 2.210510
1156.599, 3.207886
1157.081, 4.167053
1157.563, 4.580200
1158.046, 4.903320
1158.528, 5.910461
1159.010, 6.682251
1159.492, 5.332458
1159.974, 2.257446
1160.456, 1.270447
1160.938, 3.848267
1161.420, 6.263184
1161.903, 9.185242
1162.385, 10.74536
1162.867, 9.838257
1163.349, 8.023132
1163.831, 5.941040
1164.313, 4.181335
1164.795, 4.580322
1165.277, 3.622253
1165.760, 3.013184
1166.242, 4.451965
1166.724, 3.042297
1167.206, 5.074341
1167.688, 7.493652
1168.170, 8.830811
1168.652, 9.604065
1169.134, 10.63147
1169.616, 11.53223
1170.099, 10.16241
1170.581, 6.554382
1171.063, 4.437622
1171.545, 3.980835
1172.027, 4.472778
1172.509, 5.772156
1172.991, 7.450378
1173.473, 9.209412
1173.956, 10.59985
1174.438, 10.88361
1174.920, 10.07361
1175.402, 7.688904
1175.884, 4.449280
1176.366, 2.962219
1176.848, 3.331604
1177.330, 3.861694
1177.813, 3.871338
1178.295, 3.884644
1178.777, 4.224426
1179.259, 4.816833
1179.741, 5.493530
1180.223, 6.060547
1180.705, 6.125549
1181.187, 5.731201
1181.669, 4.639832
1182.151, 3.170898
1182.634, 3.035278
1183.116, 5.517334
1183.598, 7.308899
1184.080, 5.522827
1184.562, 3.488037
1185.044, 3.458435
1185.526, 4.285950
1186.008, 5.092041
1186.490, 5.609131
1186.973, 5.360107
1187.455, 4.253418
1187.937, 3.731812
1188.419, 4.232544
1188.901, 4.832764
1189.383, 5.596802
1189.865, 6.307861
1190.347, 7.095459
1190.830, 7.599182
1191.312, 7.239563
1191.794, 6.114197
1192.276, 5.393982
1192.758, 5.146301
1193.240, 5.212830
1193.722, 5.895447
1194.204, 5.752197
1194.687, 3.994507
1195.169, 3.043945
1195.651, 4.767700
1196.133, 7.208557
1196.615, 7.114746
1197.097, 4.971436
1197.579, 3.468140
1198.061, 2.633301
1198.543, 3.636414
1199.026, 6.384888
1199.508, 7.629639
1199.990, 6.337036
1200.472, 5.111145
1200.954, 6.141052
1201.436, 7.764343
1201.918, 7.246643
1202.400, 5.572998
1202.883, 4.344604
1203.365, 3.752014
1203.847, 4.353088
1204.329, 5.860535
1204.811, 7.324219
1205.293, 8.355774
1205.775, 8.626953
1206.257, 7.596497
1206.740, 6.175476
1207.222, 4.440979
1207.704, 3.191833
1208.186, 3.888489
1208.668, 5.103943
1209.150, 4.014282
1209.632, 1.187134
1210.114, 0.9581910
1210.596, 5.770874
1211.078, 8.180969
1211.561, 3.878601
1212.043, 0.9029540
1212.525, 3.315918
1213.007, 6.011536
1213.489, 5.024048
1213.971, 6.734314
1214.453, 7.367859
1214.935, 6.729248
1215.417, 8.010498
1215.900, 6.692871
1216.382, 5.613647
1216.864, 4.891418
1217.346, 4.629883
1217.828, 5.004150
1218.310, 4.955750
1218.792, 3.555054
1219.274, 1.777222
1219.757, 1.566772
1220.239, 2.534241
1220.721, 2.705200
1221.203, 2.272095
1221.685, 2.170959
1222.167, 1.323853
1222.649, 0.6832280
1223.131, 1.896301
1223.614, 2.359192
1224.096, 0.1044920
1224.578, 1.157593
1225.060, 0.9014280
1225.542, 0.5651860
1226.024, 2.302002
1226.506, 0.1797490
1226.988, 1.843750
1227.470, 1.945923
1227.953, 2.714355
1228.435, 2.009949
1228.917, 1.747925
1229.399, 2.992188
1229.881, 3.377197
1230.363, 2.423157
1230.845, 3.180115
1231.327, 0.8073730
1231.810, 1.138489
1232.292, 2.621887
1232.774, 1.639221
1233.256, 2.319397
1233.738, 2.336182
1234.220, 0.5982060
1234.702, 1.531067
1235.184, 1.440247
1235.667, 0.9256590
1236.149, 0.9649050
1236.631, 1.129028
1237.113, 0.4938350
1237.595, 0.1275630
1238.077, 0.3289180
1238.559, 0.7328490
1239.041, 1.238708
1239.523, 1.116638
1240.005, 0.5576780
1240.488, 0.8217770
1240.970, 1.972595
1241.452, 2.368408
1241.934, 1.178772
1242.416, 0.2213130
1242.898, 1.933533
1243.380, 3.738770
1243.862, 2.713440
1244.344, 0.6591800
1244.827, 1.009521
1245.309, 1.852661
1245.791, 1.014404
1246.273, 1.123535
1246.755, 2.423706
1247.237, 2.240234
1247.719, 1.610535
1248.201, 0.1915280
1248.684, 0.9804080
1249.166, 1.122437
1249.648, 2.920288
1250.130, 2.055359
1250.612, 0.3412480
1251.094, 0.2387080
1251.576, 1.485840
1252.058, 2.418335
1252.541, 3.025452
1253.023, 3.183472
1253.505, 2.869385
1253.987, 2.328430
1254.469, 1.925598
1254.951, 2.047607
1255.433, 3.064575
1255.915, 3.870117
1256.397, 2.788574
1256.880, 1.054443
1257.362, 1.107483
1257.844, 2.183533
1258.326, 2.756714
1258.808, 2.908875
1259.290, 3.389648
1259.772, 4.158325
1260.254, 4.276245
1260.737, 3.339478
1261.219, 2.754089
1261.701, 3.811340
1262.183, 4.956848
1262.665, 5.437256
1263.147, 5.823303
1263.629, 6.736633
1264.111, 7.735596
1264.594, 8.544006
1265.076, 8.977112
1265.558, 8.057129
1266.040, 6.590759
1266.522, 4.762390
1267.004, 1.324097
1267.486, 0.6849370
1267.968, 4.949341
1268.450, 8.115295
1268.932, 7.364014
1269.415, 5.302490
1269.897, 4.881409
1270.379, 5.242371
1270.861, 3.989014
1271.343, 1.875732
1271.825, 1.615295
1272.307, 2.933716
1272.789, 4.994995
1273.271, 7.188232
1273.754, 8.017456
1274.236, 6.989868
1274.718, 5.831421
1275.200, 5.896057
1275.682, 5.880371
1276.164, 4.942566
1276.646, 3.628052
1277.128, 2.196106
1277.611, 1.063293
1278.093, 1.002930
1278.575, 1.679871
1279.057, 2.027710
1279.539, 2.062195
1280.021, 1.947205
1280.503, 1.328491
1280.985, 1.044250
1281.468, 1.404846
1281.950, 2.479370
1282.432, 4.806641
1282.914, 5.912109
1283.396, 3.351196
1283.878, 6.3842997E-02
1284.360, 1.153137
1284.842, 2.876526
1285.324, 0.0000000E+00
##END=



