##NAMES=Skutterudite
##RRUFFID=R050593
##IDEAL CHEMISTRY=Co^3+^As_3_
##LOCALITY=Bou Azzer, Morocco
##OWNER=RRUFF
##SOURCE=Marcus Origlieri
##DESCRIPTION=Gray metallic, massive to coarsely crystalline
##STATUS=The identification of this mineral has been confirmed by X-ray diffraction and chemical analysis
##URL=rruff.info/R050593
##MEASURED CHEMISTRY=(Co_0.86_Fe_0.11_Ni_0.07_)_Σ=1.04_(As_2.93_S_0.07_)_Σ=3.00_
120.9924, 0.0000000E+00
121.4745, 2.400543
121.9566, 5.300049
122.4388, 8.154068
122.9209, 10.50780
123.4030, 12.29781
123.8851, 13.46607
124.3672, 14.05468
124.8493, 14.00974
125.3315, 13.14541
125.8136, 12.11905
126.2957, 10.33292
126.7778, 8.915878
127.2599, 8.723499
127.7420, 10.03904
128.2242, 11.72939
128.7063, 11.46136
129.1884, 8.543816
129.6705, 6.740665
130.1526, 6.845882
130.6347, 7.520084
131.1169, 7.756496
131.5990, 7.185234
132.0811, 6.035419
132.5632, 4.851772
133.0453, 3.269035
133.5274, 1.791756
134.0096, 0.2634580
134.4917, 0.8612860
134.9738, 1.120022
135.4559, 0.4054340
135.9380, 0.9846760
136.4201, 1.898094
136.9023, 2.243324
137.3844, 2.469879
137.8665, 2.722466
138.3486, 3.066971
138.8307, 3.535366
139.3128, 4.160316
139.7950, 4.689457
140.2771, 4.806690
140.7592, 4.634560
141.2413, 4.346684
141.7234, 3.918007
142.2055, 3.556149
142.6877, 3.140697
143.1698, 2.406666
143.6519, 1.616028
144.1340, 1.072647
144.6161, 0.9817120
145.0982, 1.204514
145.5803, 1.385147
146.0625, 1.608704
146.5446, 1.643410
147.0267, 1.276333
147.5088, 0.6780780
147.9909, 0.1750870
148.4730, 4.4829998E-02
148.9552, 0.3429220
149.4373, 0.6519130
149.9194, 0.8472520
150.4015, 1.001396
150.8836, 1.150558
151.3657, 1.235598
151.8479, 1.232172
152.3300, 1.090069
152.8121, 0.7312430
153.2942, 0.6001190
153.7763, 0.9807720
154.2584, 1.341249
154.7406, 1.429146
155.2227, 1.220171
155.7048, 0.8108010
156.1869, 0.2732810
156.6690, 0.4660420
157.1511, 1.031347
157.6333, 1.478075
158.1154, 1.727692
158.5975, 1.619560
159.0796, 1.110405
159.5617, 0.4964580
160.0438, 0.2100640
160.5260, 0.2731170
161.0081, 0.2121200
161.4902, 0.2355160
161.9723, 0.8543660
162.4544, 1.226648
162.9365, 1.192442
163.4187, 1.015387
163.9008, 0.9949510
164.3829, 1.122475
164.8650, 1.281124
165.3471, 1.383591
165.8292, 1.448009
166.3113, 1.605949
166.7935, 1.978497
167.2756, 2.366716
167.7577, 2.660006
168.2398, 2.847067
168.7219, 2.890089
169.2040, 2.711298
169.6862, 2.276541
170.1683, 1.859922
170.6504, 1.483545
171.1325, 1.169167
171.6146, 0.9089490
172.0967, 0.7016030
172.5789, 0.5690730
173.0610, 0.5666200
173.5431, 0.8147180
174.0252, 0.9029710
174.5073, 0.7623790
174.9894, 0.5085960
175.4716, 0.1648180
175.9537, 0.2402110
176.4358, 0.6079350
176.9179, 0.7675230
177.4000, 0.7398570
177.8821, 0.4180760
178.3643, 0.5446090
178.8464, 1.804913
179.3285, 2.610451
179.8106, 2.715736
180.2927, 2.440779
180.7748, 2.671265
181.2570, 4.195877
181.7391, 5.247234
182.2212, 5.370848
182.7033, 4.948229
183.1854, 4.469538
183.6675, 4.104712
184.1497, 3.946508
184.6318, 4.387377
185.1139, 5.904039
185.5960, 7.149405
186.0781, 7.486965
186.5602, 7.159069
187.0423, 6.812542
187.5245, 6.672295
188.0066, 6.792524
188.4887, 7.237144
188.9708, 8.150822
189.4529, 9.116072
189.9350, 9.906309
190.4172, 10.52344
190.8993, 10.99414
191.3814, 11.11099
191.8635, 11.21209
192.3456, 11.80140
192.8277, 13.13824
193.3099, 14.63781
193.7920, 15.58617
194.2741, 15.89147
194.7562, 16.24047
195.2383, 16.90971
195.7204, 17.76715
196.2026, 18.85391
196.6847, 20.30904
197.1668, 21.60518
197.6489, 21.88515
198.1310, 20.88826
198.6131, 19.58481
199.0953, 18.07506
199.5774, 16.49755
200.0595, 14.94609
200.5416, 13.43451
201.0237, 12.03996
201.5058, 10.96793
201.9880, 10.36802
202.4701, 9.851440
202.9522, 9.362501
203.4343, 8.905132
203.9164, 8.453789
204.3985, 7.990396
204.8807, 7.583485
205.3628, 7.468569
205.8449, 8.014225
206.3270, 8.371874
206.8091, 8.358944
207.2912, 8.168592
207.7733, 7.975254
208.2555, 7.859434
208.7376, 7.864960
209.2197, 8.162359
209.7018, 9.345057
210.1839, 10.15076
210.6660, 10.15205
211.1482, 9.759308
211.6303, 9.559116
212.1124, 9.847212
212.5945, 10.49089
213.0766, 10.98887
213.5587, 11.13973
214.0409, 11.37959
214.5230, 12.05112
215.0051, 12.82804
215.4872, 13.09836
215.9693, 12.52543
216.4514, 11.34544
216.9336, 10.32180
217.4157, 9.478853
217.8978, 8.611403
218.3799, 7.632076
218.8620, 6.599739
219.3441, 5.599058
219.8263, 4.615021
220.3084, 3.713764
220.7905, 3.072395
221.2726, 2.708447
221.7547, 2.516756
222.2368, 2.535185
222.7190, 2.706087
223.2011, 2.801907
223.6832, 2.666830
224.1653, 2.456284
224.6474, 2.480301
225.1295, 2.837065
225.6117, 3.186533
226.0938, 3.283432
226.5759, 3.152369
227.0580, 2.994688
227.5401, 2.821051
228.0222, 2.711948
228.5043, 2.765118
228.9865, 3.012110
229.4686, 3.311258
229.9507, 3.615038
230.4328, 3.922691
230.9149, 4.005980
231.3970, 3.457895
231.8792, 2.908230
232.3613, 2.999142
232.8434, 3.845932
233.3255, 4.751593
233.8076, 4.970900
234.2897, 4.444613
234.7719, 3.958763
235.2540, 3.783298
235.7361, 3.674454
236.2182, 3.440035
236.7003, 3.026602
237.1824, 2.662952
237.6646, 2.599237
238.1467, 2.863689
238.6288, 3.265430
239.1109, 4.075857
239.5930, 4.815430
240.0751, 5.143995
240.5573, 5.055471
241.0394, 4.884785
241.5215, 5.072981
242.0036, 5.767069
242.4857, 6.226717
242.9678, 6.219748
243.4500, 6.131313
243.9321, 6.100285
244.4142, 6.163149
244.8963, 6.320868
245.3784, 6.617615
245.8605, 7.147860
246.3427, 7.466496
246.8248, 7.437929
247.3069, 7.328356
247.7890, 7.216066
248.2711, 7.133486
248.7532, 7.114473
249.2354, 7.211134
249.7175, 7.471397
250.1996, 7.639597
250.6817, 7.652601
251.1638, 7.642340
251.6459, 7.604553
252.1281, 7.583414
252.6102, 7.681486
253.0923, 8.004099
253.5744, 8.579205
254.0565, 9.208990
254.5386, 10.23376
255.0208, 11.00265
255.5029, 11.18559
255.9850, 10.82774
256.4671, 10.18599
256.9492, 9.473196
257.4313, 8.701502
257.9135, 7.705215
258.3956, 6.113836
258.8777, 4.702930
259.3598, 3.822405
259.8419, 3.414711
260.3240, 3.223408
260.8062, 3.063725
261.2883, 2.936850
261.7704, 2.952950
262.2525, 3.311916
262.7346, 3.580517
263.2167, 3.520855
263.6989, 3.218721
264.1810, 2.914621
264.6631, 2.755127
265.1452, 2.730293
265.6273, 2.750105
266.1094, 2.954634
266.5916, 3.048649
267.0737, 2.921469
267.5558, 2.603193
268.0379, 2.115955
268.5200, 1.408413
269.0021, 0.6088870
269.4843, 0.2727050
269.9664, 0.7975880
270.4485, 1.197031
270.9306, 1.026442
271.4127, 0.5085750
271.8948, 0.1531430
272.3770, 0.2324280
272.8591, 0.5163560
273.3412, 0.3312590
273.8233, 0.6500510
274.3054, 1.330847
274.7875, 1.164793
275.2697, 0.4925900
275.7518, 6.1487000E-02
276.2339, 0.2827110
276.7160, 0.2931610
277.1981, 0.2993640
277.6802, 0.3157620
278.1623, 0.2793850
278.6444, 8.7158002E-02
279.1266, 0.1494940
279.6087, 0.2145520
280.0908, 2.2560000E-02
280.5729, 0.2554490
281.0550, 0.3537180
281.5371, 0.2836340
282.0193, 0.2191100
282.5014, 0.1833040
282.9835, 0.1878780
283.4656, 0.2715910
283.9477, 0.4542830
284.4298, 0.6313740
284.9120, 0.6444490
285.3941, 0.5226420
285.8762, 0.5057600
286.3583, 0.7589360
286.8404, 1.091015
287.3225, 1.260506
287.8047, 1.236017
288.2868, 1.144213
288.7689, 1.062719
289.2510, 1.009134
289.7331, 0.9579350
290.2152, 0.9381180
290.6974, 0.9265160
291.1795, 0.8632810
291.6616, 0.7444270
292.1437, 0.6871150
292.6258, 0.8262880
293.1079, 1.066690
293.5901, 1.177528
294.0722, 1.051285
294.5543, 0.8958820
295.0364, 0.8675990
295.5185, 0.9562840
296.0006, 1.092028
296.4828, 1.291897
296.9649, 1.500534
297.4470, 1.631121
297.9291, 1.674162
298.4112, 1.654211
298.8933, 1.584259
299.3755, 1.465258
299.8576, 1.278837
300.3397, 0.9375530
300.8218, 0.6193180
301.3039, 0.5823290
301.7860, 0.8651660
302.2682, 1.134121
302.7503, 1.149929
303.2324, 0.9865020
303.7145, 0.9733090
304.1966, 1.265057
304.6787, 1.582146
305.1609, 1.570881
305.6430, 1.273922
306.1251, 1.067417
306.6072, 1.249287
307.0893, 1.616629
307.5714, 1.730480
308.0536, 0.9566726
308.5357, 1.653265
309.0178, 2.051098
309.4999, 2.166226
309.9820, 1.151915
310.4641, 1.596040
310.9463, 1.455693
311.4284, 1.291377
311.9105, 1.940769
312.3926, 1.090733
312.8747, 1.634693
313.3568, 1.399374
313.8390, 1.169134
314.3211, 0.9093700
314.8032, 0.7563930
315.2853, 0.9308640
315.7674, 1.440184
316.2495, 1.883602
316.7317, 2.093956
317.2138, 2.112469
317.6959, 1.981644
318.1780, 1.619066
318.6601, 1.327951
319.1422, 1.388906
319.6243, 1.755325
320.1064, 2.118664
320.5886, 2.458893
321.0707, 2.659172
321.5528, 2.544813
322.0349, 2.090620
322.5170, 1.691128
322.9991, 1.621569
323.4813, 1.771467
323.9634, 1.813801
324.4455, 1.654272
324.9276, 1.455679
325.4097, 1.397943
325.8918, 1.454720
326.3740, 1.511536
326.8561, 1.436199
327.3382, 1.332243
327.8203, 1.413490
328.3024, 1.720533
328.7845, 2.060940
329.2667, 2.320107
329.7488, 2.502934
330.2309, 2.610601
330.7130, 2.634527
331.1951, 2.595892
331.6772, 2.484985
332.1594, 2.284319
332.6415, 2.036680
333.1236, 1.700260
333.6057, 1.358593
334.0878, 1.199591
334.5699, 1.309595
335.0521, 1.455912
335.5342, 1.566175
336.0163, 1.609746
336.4984, 1.400743
336.9805, 0.7253470
337.4626, 2.6110001E-02
337.9448, 0.1968040
338.4269, 0.2666450
338.9090, 0.7470740
339.3911, 1.031063
339.8732, 1.127107
340.3553, 1.086581
340.8375, 0.8834770
341.3196, 0.6957810
341.8017, 0.8075460
342.2838, 1.181508
342.7659, 1.353329
343.2480, 1.001863
343.7302, 0.5371070
344.2123, 0.4965410
344.6944, 0.9118340
345.1765, 1.213253
345.6586, 0.8811500
346.1407, 4.6232000E-02
346.6229, 0.3852540
347.1050, 0.1315410
347.5871, 0.2834850
348.0692, 0.6173490
348.5513, 0.8627240
349.0334, 1.016109
349.5156, 1.079149
349.9977, 1.037790
350.4798, 0.8320530
350.9619, 0.3505780
351.4440, 4.2931002E-02
351.9261, 0.2318180
352.4083, 0.2567370
352.8904, 0.1422510
353.3725, 0.1206430
353.8546, 0.4046260
354.3367, 0.5086180
354.8188, 0.3749180
355.3010, 0.3094730
355.7831, 0.3866700
356.2652, 0.5138240
356.7473, 0.6210230
357.2294, 0.6963110
357.7115, 0.7473790
358.1937, 0.7929610
358.6758, 0.8313140
359.1579, 0.7447810
359.6400, 0.2693880
360.1221, 6.4425997E-02
360.6042, 0.1447990
361.0863, 0.7221280
361.5685, 1.195120
362.0506, 1.300723
362.5327, 1.101699
363.0148, 0.8435360
363.4969, 0.3248450
363.9790, 1.7010000E-03
364.4612, 6.7198001E-02
364.9433, 0.3137170
365.4254, 0.4761990
365.9075, 0.4701660
366.3896, 0.4290490
366.8717, 0.5963340
367.3539, 1.255697
367.8360, 1.434499
368.3181, 0.5967420
368.8002, 0.2703710
369.2823, 0.4208470
369.7644, 0.1199870
370.2466, 0.7939220
370.7287, 1.100845
371.2108, 1.019362
371.6929, 0.9158640
372.1750, 0.7660020
372.6571, 0.6212220
373.1393, 0.4811790
373.6214, 0.3583080
374.1035, 0.2665330
374.5856, 0.2137230
375.0677, 0.1998840
375.5498, 0.2300770
376.0320, 0.3742090
376.5141, 0.4561170
376.9962, 0.3820240
377.4783, 0.2902830
377.9604, 0.3387850
378.4425, 0.5506590
378.9247, 0.7750490
379.4068, 0.7815280
379.8889, 0.4776060
380.3710, 0.2797780
380.8531, 0.2620740
381.3352, 0.2840900
381.8174, 0.3371800
382.2995, 0.3857100
382.7816, 0.3439740
383.2637, 0.1064120
383.7458, 0.2778940
384.2279, 0.4708280
384.7101, 0.3859390
385.1922, 0.2259520
385.6743, 2.9913001E-02
386.1564, 0.2840730
386.6385, 0.4100070
387.1206, 0.3479990
387.6028, 0.1864430
388.0849, 4.4663001E-02
388.5670, 8.5899003E-02
389.0491, 0.1500890
389.5312, 0.1138270
390.0133, 1.6517000E-02
390.4955, 0.1081220
390.9776, 0.2618550
391.4597, 0.4916320
391.9418, 0.9959020
392.4239, 1.670944
392.9060, 1.813235
393.3882, 1.050104
393.8703, 0.3300260
394.3524, 0.4719920
394.8345, 1.105295
395.3166, 1.410316
395.7987, 0.8303770
396.2809, 1.5876001E-02
396.7630, 0.2425820
397.2451, 0.1919610
397.7272, 0.5942930
398.2093, 0.5901320
398.6914, 0.4221700
399.1736, 0.4876120
399.6557, 0.8659380
400.1378, 1.276349
400.6199, 1.675848
401.1020, 1.998345
401.5841, 1.995293
402.0662, 1.529222
402.5483, 0.9731220
403.0305, 0.8223410
403.5126, 1.046228
403.9947, 1.152801
404.4768, 0.8820160
404.9589, 0.5722690
405.4410, 0.5381910
405.9232, 0.7706300
406.4053, 1.058492
406.8874, 1.309114
407.3695, 1.487982
407.8516, 1.448153
408.3337, 0.9728710
408.8159, 0.5641210
409.2980, 0.3786240
409.7801, 0.3488170
410.2622, 0.3908280
410.7443, 0.4992830
411.2264, 0.6569490
411.7086, 0.8938150
412.1907, 1.340651
412.6728, 1.655332
413.1549, 1.961087
413.6370, 2.109945
414.1191, 1.900970
414.6013, 1.382322
415.0834, 0.9142470
415.5655, 0.7732680
416.0476, 0.9330890
416.5297, 1.149128
417.0118, 1.433939
417.4940, 1.671391
417.9761, 1.823798
418.4582, 1.925187
418.9403, 1.993612
419.4224, 2.037650
419.9045, 2.064362
420.3867, 2.082354
420.8688, 2.080621
421.3509, 2.100023
421.8330, 2.282563
422.3151, 2.371032
422.7972, 2.113460
423.2794, 1.600014
423.7615, 1.165698
424.2436, 1.079450
424.7257, 1.303075
425.2078, 1.603301
425.6899, 2.126603
426.1721, 2.454533
426.6542, 2.267922
427.1363, 1.879884
427.6184, 1.697436
428.1005, 1.835457
428.5826, 2.065998
429.0648, 2.098554
429.5469, 1.929873
430.0290, 1.812463
430.5111, 1.827835
430.9932, 1.883353
431.4753, 1.899999
431.9575, 1.880580
432.4396, 1.847780
432.9217, 1.800276
433.4038, 1.750877
433.8859, 1.745573
434.3680, 1.797311
434.8502, 1.779578
435.3323, 1.554982
435.8144, 1.214598
436.2965, 1.011048
436.7786, 0.9805390
437.2607, 1.042662
437.7429, 1.285930
438.2250, 1.583238
438.7071, 1.573493
439.1892, 1.101378
439.6713, 0.5352750
440.1534, 0.4206800
440.6356, 0.8907520
441.1177, 1.213111
441.5998, 1.303869
442.0819, 1.248693
442.5640, 1.044616
443.0461, 0.7463570
443.5282, 0.5062180
444.0103, 0.4132330
444.4925, 0.4498650
444.9746, 0.5489000
445.4567, 0.8474380
445.9388, 1.032593
446.4209, 1.033503
446.9030, 0.9241030
447.3852, 0.7484240
447.8673, 0.5340400
448.3494, 0.3386270
448.8315, 0.2262220
449.3136, 0.1933630
449.7957, 0.2524750
450.2779, 0.5762520
450.7600, 0.8210660
451.2421, 0.7645080
451.7242, 0.5520250
452.2063, 0.5051230
452.6884, 0.8385060
453.1706, 1.320630
453.6527, 1.323797
454.1348, 0.6114960
454.6169, 0.1245700
455.0990, 0.4648900
455.5811, 0.9109750
456.0633, 0.8884660
456.5454, 0.3751600
457.0275, 4.2187002E-02
457.5096, 0.2196180
457.9917, 0.9388760
458.4738, 1.295345
458.9560, 1.149347
459.4381, 0.8973090
459.9202, 0.8052270
460.4023, 0.7911010
460.8844, 0.6863980
461.3665, 0.3505300
461.8487, 7.9719998E-02
462.3308, 0.1954270
462.8129, 0.5793080
463.2950, 0.7792260
463.7771, 0.6001100
464.2592, 0.3275790
464.7414, 0.4239280
465.2235, 0.9657360
465.7056, 1.305326
466.1877, 1.356753
466.6698, 1.192587
467.1519, 0.7029040
467.6341, 5.1200000E-04
468.1162, 0.4347970
468.5983, 0.2302820
469.0804, 0.3897070
469.5625, 0.4928840
470.0446, 0.6350760
470.5268, 1.276588
471.0089, 1.457791
471.4910, 0.1998290
471.9731, 0.5167380
472.4552, 0.2817960
472.9373, 8.2299998E-03
473.4195, 1.060384
473.9016, 0.3293010
474.3837, 0.7000490
474.8658, 0.7632800
475.3479, 1.268618
475.8300, 0.8165270
476.3122, 0.6601100
476.7943, 1.461766
477.2764, 1.038533
477.7585, 1.408924
478.2406, 1.266276
478.7227, 0.5298870
479.2049, 2.1718999E-02
479.6870, 1.1003000E-02
480.1691, 0.1549230
480.6512, 0.2366180
481.1333, 0.2540270
481.6154, 0.2271780
482.0976, 0.1166630
482.5797, 1.1062000E-02
483.0618, 6.8338998E-02
483.5439, 5.1881000E-02
484.0260, 6.7171998E-02
484.5081, 0.3154970
484.9902, 0.6687150
485.4724, 1.098469
485.9545, 1.730654
486.4366, 2.140899
486.9187, 1.961620
487.4008, 1.532633
487.8829, 1.256046
488.3651, 1.194068
488.8472, 1.209430
489.3293, 1.186893
489.8114, 1.126711
490.2935, 1.093692
490.7756, 1.104550
491.2578, 1.115937
491.7399, 1.033835
492.2220, 0.9751600
492.7041, 1.167414
493.1862, 1.665655
493.6683, 2.195031
494.1505, 2.332917
494.6326, 1.969751
495.1147, 1.651431
495.5968, 1.413114
496.0789, 1.190074
496.5610, 0.8096210
497.0432, 0.4471460
497.5253, 0.4951730
498.0074, 1.249800
498.4895, 2.244104
498.9716, 2.519098
499.4537, 1.938327
499.9359, 1.513516
500.4180, 1.654441
500.9001, 1.872007
501.3822, 1.678656
501.8643, 1.120825
502.3464, 0.7199680
502.8286, 0.8905530
503.3107, 1.286869
503.7928, 1.334131
504.2749, 1.014641
504.7570, 0.7446850
505.2391, 0.7415230
505.7213, 0.9384480
506.2034, 1.175246
506.6855, 1.527210
507.1676, 1.746212
507.6497, 1.744983
508.1318, 1.590885
508.6140, 1.208684
509.0961, 0.6585790
509.5782, 0.3910020
510.0603, 0.8771220
510.5424, 2.057797
511.0245, 2.681250
511.5067, 2.231512
511.9888, 1.842843
512.4709, 1.744177
512.9530, 1.781220
513.4351, 1.771880
513.9172, 1.668201
514.3994, 1.543407
514.8815, 1.471106
515.3636, 1.470075
515.8457, 1.542698
516.3278, 1.883190
516.8099, 2.037104
517.2921, 1.608957
517.7742, 0.9550770
518.2563, 0.6573080
518.7384, 0.9740700
519.2205, 1.461906
519.7026, 1.654439
520.1848, 1.584463
520.6669, 1.454782
521.1490, 1.270521
521.6311, 1.103282
522.1132, 1.061741
522.5953, 1.119784
523.0775, 1.127180
523.5596, 0.9902770
524.0417, 0.8542660
524.5238, 0.8317700
525.0059, 0.8953910
525.4880, 0.9456240
525.9702, 0.9190790
526.4523, 0.9100780
526.9344, 1.023492
527.4165, 1.235304
527.8986, 1.517521
528.3807, 2.139596
528.8629, 2.511075
529.3450, 2.071175
529.8271, 1.159704
530.3092, 0.3952430
530.7913, 0.1415760
531.2734, 0.2985430
531.7556, 0.6339670
532.2377, 1.409004
532.7198, 1.797940
533.2019, 1.292397
533.6840, 0.6780250
534.1661, 0.3767810
534.6483, 0.3662300
535.1304, 0.4027240
535.6125, 0.3064730
536.0946, 0.1965660
536.5767, 0.3555670
537.0588, 0.7982730
537.5410, 1.102172
538.0231, 1.027102
538.5052, 0.8001010
538.9873, 0.8461050
539.4694, 1.232923
539.9515, 1.361199
540.4337, 0.7141100
540.9158, 3.7849002E-02
541.3979, 7.6857999E-02
541.8800, 0.5033770
542.3621, 0.8933510
542.8442, 0.5468710
543.3264, 0.2552280
543.8085, 0.5479710
544.2906, 0.1925830
544.7726, 0.7359170
545.2548, 0.9938550
545.7369, 1.108152
546.2190, 1.121921
546.7011, 1.081600
547.1832, 1.076551
547.6653, 0.3031930
548.1475, 1.410494
548.6296, 2.031627
549.1117, 2.192468
549.5938, 0.5142620
550.0759, 1.210416
550.5580, 0.9550020
551.0402, 0.6605290
551.5223, 1.690788
552.0044, 0.2798790
552.4865, 1.289066
552.9686, 1.332155
553.4507, 1.817365
553.9329, 1.345117
554.4150, 1.168560
554.8971, 1.949029
555.3792, 2.199380
555.8613, 1.616814
556.3434, 2.129971
556.8256, 0.6853500
557.3077, 0.9586630
557.7898, 1.973157
558.2719, 1.438606
558.7540, 1.969143
559.2361, 2.096452
559.7183, 0.3941420
560.2004, 1.496616
560.6825, 1.542466
561.1646, 0.8185950
561.6467, 0.4417570
562.1288, 0.7714410
562.6110, 1.241810
563.0931, 1.488585
563.5752, 1.485840
564.0573, 1.375866
564.5394, 1.215574
565.0215, 1.041249
565.5037, 0.9566660
565.9858, 0.9750330
566.4679, 1.022627
566.9500, 1.090387
567.4321, 1.104808
567.9142, 0.8865870
568.3964, 0.4022630
568.8785, 0.1459590
569.3606, 0.4820280
569.8427, 0.9889960
570.3248, 1.305169
570.8069, 1.399732
571.2891, 1.231619
571.7712, 0.7264530
572.2533, 0.1031450
572.7354, 7.1486004E-02
573.2175, 0.6640940
573.6996, 1.034513
574.1818, 0.7601370
574.6639, 0.3934240
575.1460, 0.2458650
575.6281, 0.2956320
576.1102, 0.4043920
576.5923, 0.5033650
577.0745, 0.5714480
577.5566, 0.5157800
578.0387, 0.2848450
578.5208, 0.2648490
579.0029, 0.7313390
579.4850, 1.182157
579.9672, 1.229861
580.4493, 0.9524530
580.9314, 0.6785550
581.4135, 0.5333190
581.8956, 0.4381360
582.3777, 0.2845730
582.8599, 0.1080120
583.3420, 3.3854000E-02
583.8241, 0.1005680
584.3062, 0.3223380
584.7883, 0.8013070
585.2704, 1.703688
585.7526, 1.962286
586.2347, 0.9662770
586.7168, 2.5366999E-02
587.1989, 0.2818890
587.6810, 0.1466320
588.1631, 8.5160002E-02
588.6453, 0.2690470
589.1274, 0.3862480
589.6095, 0.3278640
590.0916, 4.6145000E-02
590.5737, 4.7867000E-02
591.0558, 0.5308340
591.5380, 1.022318
592.0201, 1.363517
592.5022, 1.552299
592.9843, 1.538834
593.4664, 1.250802
593.9485, 0.9838400
594.4307, 1.005855
594.9128, 1.213834
595.3949, 1.386407
595.8770, 1.491469
596.3591, 1.526217
596.8412, 1.492607
597.3234, 1.388620
597.8055, 1.195122
598.2876, 0.5769770
598.7697, 0.3193580
599.2518, 0.8515120
599.7339, 1.615036
600.2161, 2.173786
600.6982, 2.418790
601.1803, 2.302193
601.6624, 1.718953
602.1445, 0.8718950
602.6266, 0.4610010
603.1088, 0.6301950
603.5909, 0.8625260
604.0730, 1.194997
604.5551, 1.416865
605.0372, 1.268511
605.5193, 0.7915560
606.0015, 0.4197570
606.4836, 0.4199630
606.9657, 0.5938850
607.4478, 0.7125340
607.9299, 0.7817900
608.4120, 0.8540730
608.8942, 0.9439730
609.3763, 1.069080
609.8584, 1.288149
610.3405, 1.695519
610.8226, 1.819007
611.3047, 1.377573
611.7869, 0.9587340
612.2690, 0.8371970
612.7511, 0.9224800
613.2332, 1.064180
613.7153, 1.201508
614.1974, 1.308881
614.6796, 1.386388
615.1617, 1.442594
615.6438, 1.258851
616.1259, 0.6608970
616.6080, 0.1152380
617.0901, 0.1816910
617.5723, 0.2794490
618.0544, 0.1947360
618.5365, 0.1044190
619.0186, 0.4503560
619.5007, 0.8546590
619.9828, 1.200951
620.4650, 1.229388
620.9471, 0.9379280
621.4292, 0.7080090
621.9113, 0.8484720
622.3934, 1.210829
622.8755, 1.215448
623.3577, 0.2836080
623.8398, 0.1674690
624.3219, 0.2409340
624.8040, 0.8175330
625.2861, 1.175067
625.7682, 1.293674
626.2504, 1.268551
626.7325, 1.120447
627.2145, 0.9482770
627.6967, 0.9468360
628.1788, 1.123808
628.6609, 1.301862
629.1430, 1.491476
629.6251, 1.603001
630.1072, 1.475894
630.5894, 1.181308
631.0715, 1.001098
631.5536, 1.084108
632.0357, 1.158216
632.5178, 1.058347
632.9999, 0.8683410
633.4821, 0.7366760
633.9642, 0.6897460
634.4463, 0.6144280
634.9284, 0.3841960
635.4105, 2.0904999E-02
635.8926, 0.1573080
636.3748, 0.1862810
636.8569, 5.0103001E-02
637.3390, 0.9125070
637.8211, 1.759437
638.3032, 2.101066
638.7853, 1.926414
639.2675, 1.579805
639.7496, 1.112632
640.2317, 0.7018450
640.7138, 0.7102710
641.1959, 1.103277
641.6780, 1.468455
642.1602, 1.694583
642.6423, 1.758538
643.1244, 1.605931
643.6065, 1.196534
644.0886, 0.8133010
644.5707, 0.2406420
645.0529, 0.1710410
645.5350, 0.1449560
646.0171, 0.1478420
646.4992, 0.4734020
646.9813, 0.7586120
647.4634, 1.048410
647.9456, 1.477868
648.4277, 1.998160
648.9098, 1.970443
649.3919, 1.090190
649.8740, 0.4571970
650.3561, 0.7333940
650.8383, 1.328170
651.3204, 1.619738
651.8025, 1.570067
652.2846, 1.377563
652.7667, 0.8137840
653.2488, 0.3025300
653.7310, 0.4590100
654.2131, 1.098794
654.6952, 1.571824
655.1773, 1.606009
655.6594, 1.358101
656.1415, 1.042257
656.6237, 0.6096900
657.1058, 0.3381940
657.5879, 0.1824230
658.0700, 0.2525040
658.5521, 0.8463700
659.0342, 1.563822
659.5164, 1.863713
659.9985, 1.623395
660.4806, 1.286741
660.9627, 1.212597
661.4448, 1.306870
661.9269, 1.336728
662.4091, 1.290375
662.8912, 1.319787
663.3733, 1.545020
663.8554, 1.819746
664.3375, 1.847995
664.8196, 1.543808
665.3018, 1.230210
665.7839, 0.8015810
666.2660, 0.4761410
666.7481, 0.3571480
667.2302, 0.4264140
667.7123, 0.7323720
668.1945, 1.279260
668.6766, 1.761263
669.1587, 1.602348
669.6408, 0.8323640
670.1229, 0.4657590
670.6050, 0.6757410
671.0872, 0.8856090
671.5693, 0.7867020
672.0514, 0.5258920
672.5335, 0.3531700
673.0156, 0.2818930
673.4977, 0.2478960
673.9799, 0.1232840
674.4620, 0.1159380
674.9441, 0.5796720
675.4262, 1.308703
675.9083, 1.715923
676.3904, 1.545635
676.8726, 1.051426
677.3547, 0.5764020
677.8368, 5.3911000E-02
678.3189, 3.4357000E-02
678.8010, 1.000933
679.2831, 1.768809
679.7653, 1.724942
680.2474, 1.315661
680.7295, 1.097443
681.2116, 1.157633
681.6937, 1.160071
682.1758, 0.8635880
682.6580, 0.5109470
683.1401, 0.4973600
683.6222, 0.7684890
684.1043, 0.9398880
684.5864, 0.8425150
685.0685, 0.6314300
685.5507, 0.5743080
686.0328, 0.7423710
686.5149, 0.9023160
686.9970, 1.051426
687.4791, 1.193920
687.9612, 1.427097
688.4434, 1.608310
688.9255, 1.518686
689.4076, 1.117388
689.8897, 0.6857840
690.3718, 0.3989210
690.8539, 0.2435020
691.3361, 0.1926450
691.8182, 0.2441780
692.3003, 0.4229150
692.7824, 0.7994140
693.2645, 1.137847
693.7466, 1.004937
694.2288, 0.1890030
694.7109, 0.1386410
695.1930, 0.4718600
695.6751, 0.9897240
696.1572, 1.002115
696.6393, 0.7444930
697.1215, 0.4739430
697.6036, 0.2752480
698.0857, 0.1831640
698.5678, 0.2613940
699.0499, 0.4643140
699.5320, 0.7363310
700.0142, 1.090428
700.4963, 1.104393
700.9784, 0.4359370
701.4605, 0.3045000
701.9426, 0.1653170
702.4247, 1.031042
702.9069, 1.651088
703.3890, 1.328015
703.8711, 0.8790380
704.3532, 0.4734800
704.8353, 0.1673420
705.3174, 2.9320000E-02
705.7996, 5.8552001E-02
706.2817, 0.1667210
706.7638, 0.2931570
707.2459, 0.4296290
707.7280, 0.5939290
708.2101, 0.8102080
708.6923, 0.7830190
709.1743, 0.2709460
709.6564, 0.2746850
710.1385, 0.3131010
710.6207, 0.1114770
711.1028, 0.4521790
711.5849, 0.7260650
712.0670, 0.8510330
712.5491, 0.6604760
713.0313, 0.3821720
713.5134, 0.2958430
713.9955, 0.4160520
714.4776, 0.5489300
714.9597, 0.5383400
715.4418, 0.4547920
715.9240, 0.5284450
716.4061, 0.7876250
716.8882, 0.9506360
717.3703, 0.9589430
717.8524, 0.8650520
718.3345, 0.6252320
718.8167, 0.3092130
719.2988, 0.1675250
719.7809, 0.3358520
720.2630, 0.5046720
720.7451, 0.5478940
721.2272, 0.5567230
721.7094, 0.6369860
722.1915, 0.7768870
722.6736, 0.8777040
723.1557, 0.8734690
723.6378, 0.8426430
724.1199, 1.042524
724.6021, 1.530164
725.0842, 1.466146
725.5663, 0.4385060
726.0484, 0.4794910
726.5305, 0.5771550
727.0126, 0.1257580
727.4948, 0.3739560
727.9769, 0.9939420
728.4590, 1.381864
728.9411, 1.301301
729.4232, 1.058605
729.9053, 0.8618050
730.3875, 0.7240290
730.8696, 0.6022980
731.3517, 0.4796410
731.8338, 0.4018580
732.3159, 0.4753590
732.7980, 0.7048200
733.2802, 0.8317940
733.7623, 0.8373370
734.2444, 0.7889420
734.7265, 0.6447040
735.2086, 0.5150200
735.6907, 0.6231540
736.1729, 1.011277
736.6550, 1.123521
737.1371, 0.5483060
737.6192, 4.3377999E-02
738.1013, 0.3120450
738.5834, 0.3053810
739.0656, 1.9107999E-02
739.5477, 0.4886930
740.0298, 0.8823060
740.5119, 0.8113530
740.9940, 0.3809380
741.4761, 3.6079999E-02
741.9583, 0.4921690
742.4404, 0.5922040
742.9225, 5.7037000E-02
743.4046, 0.6254760
743.8867, 1.017321
744.3688, 1.146427
744.8510, 1.138786
745.3331, 0.9465780
745.8152, 0.6917930
746.2973, 0.2752050
746.7794, 9.1360003E-02
747.2615, 0.1499060
747.7437, 6.6886000E-02
748.2258, 0.3551950
748.7079, 0.6112770
749.1900, 0.7694100
749.6721, 0.6281230
750.1542, 0.1947930
750.6364, 3.3539999E-03
751.1185, 0.1762810
751.6006, 0.4008640
752.0827, 0.5211860
752.5648, 0.5225470
753.0469, 0.4120650
753.5291, 3.8890999E-02
754.0112, 0.1030930
754.4933, 0.2483260
754.9754, 0.6531450
755.4575, 0.8298560
755.9396, 0.8658660
756.4218, 0.9572790
756.9039, 1.165786
757.3860, 1.395797
757.8681, 1.606001
758.3502, 1.754101
758.8323, 1.622116
759.3145, 1.168670
759.7966, 0.8113540
760.2787, 0.7031750
760.7608, 0.7345510
761.2429, 0.8078370
761.7250, 0.9298760
762.2072, 1.012782
762.6893, 1.141711
763.1714, 1.121031
763.6535, 0.7136420
764.1356, 0.2882260
764.6177, 0.1934430
765.0999, 0.4171730
765.5820, 0.7095750
766.0641, 0.9416610
766.5462, 1.153432
767.0283, 1.482868
767.5104, 1.824625
767.9926, 1.798585
768.4747, 1.355122
768.9568, 0.9319200
769.4389, 0.8592610
769.9210, 1.042315
770.4031, 1.185392
770.8853, 1.402885
771.3674, 1.351261
771.8495, 0.6878730
772.3316, 0.1361900
772.8137, 7.4716002E-02
773.2958, 0.2955880
773.7780, 0.4675660
774.2601, 0.5112100
774.7422, 0.5812550
775.2243, 0.8534590
775.7064, 1.154303
776.1885, 1.240347
776.6707, 1.152493
777.1528, 1.066231
777.6349, 1.042980
778.1170, 1.022674
778.5991, 0.9182100
779.0812, 0.7393500
779.5634, 0.7188050
780.0455, 0.9902960
780.5276, 1.116373
781.0097, 0.8713250
781.4918, 0.5558160
781.9739, 0.3084730
782.4561, 0.1712380
782.9382, 0.3275610
783.4203, 1.160904
783.9024, 1.754318
784.3845, 1.557860
784.8666, 1.043950
785.3488, 0.5598530
785.8309, 0.2226410
786.3130, 0.2749050
786.7951, 0.8795450
787.2772, 1.580671
787.7593, 1.468516
788.2415, 0.5710390
788.7236, 0.1266140
789.2057, 0.3153630
789.6878, 0.4973650
790.1699, 0.3260310
790.6520, 7.9020001E-03
791.1342, 8.9179002E-02
791.6162, 7.7652998E-02
792.0983, 0.1865240
792.5804, 0.1319140
793.0626, 0.1198380
793.5447, 0.2966620
794.0268, 0.5208310
794.5089, 0.5718810
794.9910, 0.4659760
795.4731, 0.4909280
795.9553, 0.9353170
796.4374, 1.466331
796.9195, 1.479737
797.4016, 1.094193
797.8837, 0.9316250
798.3658, 1.114102
798.8480, 1.257478
799.3301, 1.046366
799.8122, 0.6084180
800.2943, 0.4768130
800.7764, 0.9403210
801.2585, 1.164890
801.7407, 0.8571510
802.2228, 0.6139950
802.7049, 0.7314280
803.1870, 1.018845
803.6691, 1.232425
804.1512, 1.333408
804.6334, 1.289655
805.1155, 0.9168460
805.5976, 0.5464990
806.0797, 0.5472670
806.5618, 0.7678010
807.0439, 0.8518120
807.5261, 0.7127520
808.0082, 0.5462870
808.4903, 0.5456230
808.9724, 0.6530450
809.4545, 0.5964520
809.9366, 0.3142590
810.4188, 0.3316290
810.9009, 0.9237340
811.3830, 1.466575
811.8651, 1.399843
812.3472, 0.9236350
812.8293, 0.7558120
813.3115, 1.062993
813.7936, 1.318367
814.2757, 1.442286
814.7578, 1.499561
815.2399, 1.533023
815.7220, 1.525009
816.2042, 1.413763
816.6863, 1.190905
817.1684, 0.9845120
817.6505, 0.9543290
818.1326, 0.9913510
818.6147, 0.8351900
819.0969, 0.5394440
819.5790, 0.4298740
820.0611, 0.6054570
820.5432, 0.8312780
821.0253, 0.8554550
821.5074, 0.7420960
821.9896, 0.9637300
822.4717, 1.865565
822.9538, 2.309887
823.4359, 1.796283
823.9180, 1.202389
824.4001, 1.008008
824.8823, 1.069709
825.3644, 1.095078
825.8465, 1.007821
826.3286, 1.019531
826.8107, 1.388785
827.2928, 1.728363
827.7750, 1.576113
828.2571, 1.190454
828.7392, 1.160374
829.2213, 1.617738
829.7034, 2.092221
830.1855, 2.106406
830.6677, 1.824121
831.1498, 1.712605
831.6319, 1.767390
832.1140, 1.809423
832.5961, 1.790986
833.0782, 1.790437
833.5604, 1.883896
834.0425, 2.041643
834.5246, 2.139208
835.0067, 2.175798
835.4888, 2.149197
835.9709, 1.985095
836.4531, 1.843737
836.9352, 1.805676
837.4173, 1.828954
837.8994, 1.849864
838.3815, 1.856354
838.8636, 1.870185
839.3458, 1.928000
839.8279, 1.975039
840.3100, 1.942582
840.7921, 1.867420
841.2742, 1.796139
841.7563, 1.754174
842.2385, 1.812819
842.7206, 2.045652
843.2027, 2.377216
843.6848, 2.635231
844.1669, 2.819256
844.6490, 2.904820
845.1312, 2.891283
845.6133, 2.745365
846.0954, 2.349404
846.5775, 1.897022
847.0596, 1.855178
847.5417, 2.470916
848.0239, 2.737100
848.5060, 2.332397
848.9881, 1.953453
849.4702, 1.845197
849.9523, 1.881307
850.4344, 1.930850
850.9166, 1.916455
851.3987, 1.801123
851.8808, 1.396065
852.3629, 1.128614
852.8450, 1.571300
853.3271, 2.284881
853.8093, 2.573944
854.2914, 2.391144
854.7735, 1.958322
855.2556, 1.383174
855.7377, 0.8624700
856.2198, 0.7423730
856.7020, 1.010050
857.1841, 1.439313
857.6662, 2.109879
858.1483, 2.446568
858.6304, 2.099636
859.1125, 1.577433
859.5947, 1.523895
860.0768, 1.942595
860.5589, 2.216968
861.0410, 2.311635
861.5231, 2.316786
862.0052, 2.137149
862.4874, 1.969429
862.9695, 1.935235
863.4516, 2.015713
863.9337, 2.176219
864.4158, 2.438535
864.8979, 2.599724
865.3801, 2.420218
865.8622, 2.168159
866.3443, 2.222739
866.8264, 2.436116
867.3085, 2.285944
867.7906, 1.682385
868.2728, 1.248845
868.7549, 1.673625
869.2370, 2.568700
869.7191, 2.770658
870.2012, 2.284085
870.6833, 1.778103
871.1655, 1.321716
871.6476, 1.066916
872.1297, 1.167790
872.6118, 1.487088
873.0939, 1.684718
873.5760, 1.730973
874.0581, 1.759065
874.5402, 1.640778
875.0223, 1.667286
875.5045, 2.172652
875.9866, 2.654076
876.4687, 2.455115
876.9508, 1.646376
877.4329, 1.130773
877.9150, 1.374972
878.3972, 1.821356
878.8793, 2.375208
879.3614, 2.753697
879.8435, 2.483201
880.3256, 1.778578
880.8077, 1.289718
881.2899, 1.351852
881.7720, 1.607638
882.2541, 1.617528
882.7362, 1.520103
883.2183, 1.619014
883.7004, 1.893256
884.1826, 2.056230
884.6647, 2.008075
885.1468, 1.975682
885.6289, 2.233828
886.1110, 2.659772
886.5931, 2.499643
887.0753, 1.361484
887.5574, 0.8623890
888.0395, 1.634210
888.5216, 2.335985
889.0037, 2.091725
889.4858, 1.374349
889.9680, 0.9557330
890.4501, 0.8828500
890.9322, 0.9017070
891.4143, 1.095344
891.8964, 1.230801
892.3785, 1.192695
892.8607, 1.060438
893.3428, 0.8514980
893.8249, 0.6258830
894.3070, 0.5699810
894.7891, 0.8330610
895.2712, 1.098257
895.7534, 1.024434
896.2355, 0.7989790
896.7176, 0.7051790
897.1997, 0.7581270
897.6818, 0.9476050
898.1639, 1.258810
898.6461, 1.504774
899.1282, 1.447203
899.6103, 1.158688
900.0924, 0.9454060
900.5745, 0.8103190
901.0566, 0.6775010
901.5388, 0.5053340
902.0209, 0.4627000
902.5030, 0.7471940
902.9851, 1.176588
903.4672, 1.216188
903.9493, 0.6822080
904.4315, 0.2736550
904.9136, 4.0504001E-02
905.3957, 0.1842100
905.8778, 7.5166002E-02
906.3599, 0.3638860
906.8420, 0.1904440
907.3242, 0.3772780
907.8063, 0.6248640
908.2884, 0.1440870
908.7705, 0.3560890
909.2526, 0.6780560
909.7347, 0.8449600
910.2169, 0.7654230
910.6990, 0.5733320
911.1811, 0.5792570
911.6632, 0.8841620
912.1453, 1.146525
912.6274, 0.9317640
913.1096, 0.6068940
913.5917, 0.9119260
914.0738, 1.558749
914.5559, 1.598772
915.0380, 0.9005960
915.5201, 0.1881580
916.0023, 4.1129999E-02
916.4844, 0.1310560
916.9665, 0.7067860
917.4486, 1.677630
917.9307, 1.923031
918.4128, 1.269534
918.8950, 0.5970000
919.3771, 0.2158220
919.8592, 7.0733003E-02
920.3413, 0.1425860
920.8234, 0.4227810
921.3055, 0.5083450
921.7877, 0.2551120
922.2698, 6.2072001E-02
922.7519, 7.1857996E-02
923.2340, 8.9454003E-02
923.7161, 0.1410380
924.1982, 0.4749460
924.6804, 0.6370980
925.1625, 0.5682720
925.6446, 0.5473110
926.1267, 0.7220790
926.6088, 0.8621210
927.0909, 0.8474470
927.5731, 0.7477090
928.0552, 0.5702300
928.5373, 0.3794250
929.0194, 0.3913530
929.5015, 0.7849220
929.9836, 1.108140
930.4658, 0.9194690
930.9479, 0.4588480
931.4300, 0.1026870
931.9121, 0.6141930
932.3942, 0.6413750
932.8763, 9.2704996E-02
933.3585, 0.5808190
933.8406, 1.030792
934.3227, 1.199802
934.8048, 0.7566410
935.2869, 0.1945730
935.7690, 0.6749650
936.2512, 0.5374320
936.7333, 0.1797230
937.2154, 0.2406330
937.6975, 0.5375670
938.1796, 0.3066230
938.6617, 0.5034010
939.1439, 0.5885660
939.6260, 0.4211360
940.1081, 1.136374
940.5902, 1.146181
941.0723, 0.9265260
941.5544, 0.7652710
942.0366, 0.6776720
942.5187, 0.7402260
943.0008, 1.093111
943.4829, 1.251600
943.9650, 1.061187
944.4471, 0.8371090
944.9293, 0.6234700
945.4114, 0.4851880
945.8935, 0.5419840
946.3756, 0.7557690
946.8577, 0.8796110
947.3398, 0.7936450
947.8220, 0.6840840
948.3041, 0.6396230
948.7862, 0.6110090
949.2683, 0.5399110
949.7504, 0.4544120
950.2325, 0.4056690
950.7147, 0.4107290
951.1968, 0.5154630
951.6789, 0.7762970
952.1610, 0.9774590
952.6431, 0.6878460
953.1252, 0.2158970
953.6074, 0.3785150
954.0895, 1.114590
954.5716, 1.517573
955.0537, 1.125420
955.5358, 0.5317540
956.0179, 0.5869660
956.5000, 1.137902
956.9821, 1.547794
957.4642, 1.812799
957.9464, 1.731540
958.4285, 1.223395
958.9106, 0.7676470
959.3927, 0.7450670
959.8748, 0.9971280
960.3569, 1.075431
960.8391, 0.9337510
961.3212, 1.128220
961.8033, 1.912704
962.2854, 2.317245
962.7675, 1.828964
963.2496, 1.070889
963.7318, 0.6371010
964.2139, 0.5039090
964.6960, 0.5704280
965.1781, 1.086795
965.6602, 1.338920
966.1423, 1.173673
966.6245, 0.9955270
967.1066, 1.022893
967.5887, 1.090878
968.0708, 0.9284210
968.5529, 0.5411860
969.0350, 0.3542910
969.5172, 0.6581020
969.9993, 0.9016810
970.4814, 0.8320160
970.9635, 0.7081770
971.4456, 0.7309030
971.9277, 0.8531200
972.4099, 0.9376890
972.8920, 0.9698640
973.3741, 1.065133
973.8562, 1.475468
974.3383, 1.833685
974.8204, 1.744586
975.3026, 1.461744
975.7847, 1.314252
976.2668, 1.320982
976.7489, 1.382724
977.2310, 1.457713
977.7131, 1.490002
978.1953, 1.371176
978.6774, 1.208053
979.1595, 1.167697
979.6416, 1.244281
980.1237, 1.499479
980.6058, 1.885812
981.0880, 2.041479
981.5701, 1.729147
982.0522, 1.172704
982.5343, 0.6945340
983.0164, 0.3167020
983.4985, 0.2121130
983.9807, 0.3729850
984.4628, 0.4851370
984.9449, 0.4508290
985.4270, 0.4210000
985.9091, 0.5335630
986.3912, 0.7327610
986.8734, 0.8298700
987.3555, 0.7974630
987.8376, 0.9343630
988.3197, 1.327721
988.8018, 1.567516
989.2839, 1.430620
989.7661, 1.165911
990.2482, 1.095669
990.7303, 1.225202
991.2124, 1.314691
991.6945, 1.371185
992.1766, 1.311709
992.6588, 1.053116
993.1409, 0.7716880
993.6230, 0.4581240
994.1051, 0.2624080
994.5872, 0.4224330
995.0693, 0.9300050
995.5515, 1.247751
996.0336, 1.304960
996.5157, 1.221569
996.9978, 0.9362020
997.4799, 0.7311880
997.9620, 0.6671180
998.4442, 0.7178340
998.9263, 0.8901900
999.4084, 1.180624
999.8905, 1.335098
1000.373, 1.192796
1000.855, 1.035299
1001.337, 0.9745190
1001.819, 0.9255010
1002.301, 0.7736910
1002.783, 0.5969300
1003.265, 0.5649510
1003.747, 0.7158430
1004.230, 0.8832660
1004.712, 1.007868
1005.194, 1.095795
1005.676, 1.130018
1006.158, 1.145715
1006.640, 1.300992
1007.122, 1.458840
1007.604, 1.145111
1008.086, 0.1983380
1008.569, 0.5474880
1009.051, 0.3003540
1009.533, 0.3395850
1010.015, 0.8872450
1010.497, 1.281453
1010.979, 1.311081
1011.461, 1.084612
1011.943, 1.061084
1012.426, 1.455862
1012.908, 1.865739
1013.390, 1.827289
1013.872, 1.531627
1014.354, 1.270910
1014.836, 1.062133
1015.318, 0.9655760
1015.800, 0.9749440
1016.282, 1.030968
1016.765, 1.109415
1017.247, 1.056561
1017.729, 0.3675240
1018.211, 0.5948770
1018.693, 0.2758310
1019.175, 1.095001
1019.657, 1.967235
1020.139, 2.015916
1020.622, 1.702337
1021.104, 1.298366
1021.586, 0.9002370
1022.068, 0.6728860
1022.550, 0.6109500
1023.032, 0.6985510
1023.514, 0.9410660
1023.996, 0.9438740
1024.478, 0.5852790
1024.961, 0.2498420
1025.443, 0.2167510
1025.925, 0.3829350
1026.407, 0.5272220
1026.889, 0.6455840
1027.371, 0.8026530
1027.853, 1.022828
1028.335, 1.137796
1028.818, 1.113169
1029.300, 0.8957720
1029.782, 0.3187220
1030.264, 0.2958980
1030.746, 1.3722000E-02
1031.228, 1.511562
1031.710, 2.307189
1032.192, 2.235144
1032.674, 1.917145
1033.156, 1.351236
1033.639, 0.9138220
1034.121, 0.9860220
1034.603, 1.361753
1035.085, 1.419817
1035.567, 1.025497
1036.049, 0.8283330
1036.531, 0.9287920
1037.013, 1.031201
1037.496, 1.035342
1037.978, 1.050203
1038.460, 1.224090
1038.942, 1.462405
1039.424, 1.441881
1039.906, 0.9935560
1040.388, 0.7962000
1040.870, 1.048893
1041.353, 1.263185
1041.835, 1.381549
1042.317, 1.371929
1042.799, 1.034074
1043.281, 0.5607330
1043.763, 0.5815530
1044.245, 1.357613
1044.727, 1.857080
1045.209, 1.947356
1045.692, 1.878082
1046.174, 1.602932
1046.656, 1.292281
1047.138, 1.079633
1047.620, 0.9386940
1048.102, 0.7772890
1048.584, 0.5949390
1049.066, 0.4712600
1049.548, 0.2968030
1050.031, 0.3291970
1050.513, 0.9422020
1050.995, 1.523387
1051.477, 1.457256
1051.959, 0.9850160
1052.441, 0.7935820
1052.923, 1.049320
1053.405, 1.213433
1053.888, 1.078994
1054.370, 0.9554570
1054.852, 0.9639410
1055.334, 1.024868
1055.816, 1.096782
1056.298, 1.159007
1056.780, 1.170493
1057.262, 1.115380
1057.745, 1.078831
1058.227, 1.015146
1058.709, 1.063901
1059.191, 1.477723
1059.673, 1.855631
1060.155, 1.777112
1060.637, 1.414228
1061.119, 1.176936
1061.601, 1.150743
1062.083, 1.163412
1062.566, 1.249580
1063.048, 1.241673
1063.530, 0.9279370
1064.012, 0.6170890
1064.494, 0.6064980
1064.976, 0.7844710
1065.458, 0.9017710
1065.940, 0.9081090
1066.423, 0.8104410
1066.905, 0.4927120
1067.387, 0.3671360
1067.869, 0.8438890
1068.351, 1.347516
1068.833, 1.324363
1069.315, 0.9883620
1069.797, 0.7481710
1070.280, 0.6896250
1070.762, 0.7942420
1071.244, 1.300316
1071.726, 1.599592
1072.208, 1.233318
1072.690, 0.7389630
1073.172, 0.3681920
1073.654, 0.2323090
1074.136, 0.6392680
1074.619, 1.516295
1075.101, 1.987986
1075.583, 1.518488
1076.065, 0.9424950
1076.547, 0.6745610
1077.029, 0.5749600
1077.511, 0.5958740
1077.993, 0.6569060
1078.475, 0.5587140
1078.958, 0.3552860
1079.440, 0.5227040
1079.922, 1.542200
1080.404, 2.270547
1080.886, 1.908059
1081.368, 1.315328
1081.850, 1.025631
1082.332, 1.007444
1082.814, 1.356105
1083.297, 1.904676
1083.779, 1.961041
1084.261, 1.046327
1084.743, 0.4496010
1085.225, 1.197107
1085.707, 1.966059
1086.189, 1.774490
1086.671, 1.220254
1087.154, 1.018366
1087.636, 1.138815
1088.118, 1.156833
1088.600, 0.9631230
1089.082, 0.8261090
1089.564, 0.9085350
1090.046, 1.023368
1090.528, 1.056371
1091.010, 1.078505
1091.493, 1.240356
1091.975, 1.437453
1092.457, 1.351392
1092.939, 0.8779330
1093.421, 0.5685550
1093.903, 0.7365740
1094.385, 0.9700360
1094.867, 1.253402
1095.349, 1.368356
1095.832, 0.9558660
1096.314, 0.3133530
1096.796, 2.6695000E-02
1097.278, 0.1872500
1097.760, 0.3014650
1098.242, 0.1605510
1098.724, 2.6224000E-02
1099.206, 2.7519999E-02
1099.689, 3.2214999E-02
1100.171, 4.6344001E-02
1100.653, 5.6010000E-03
1101.135, 0.2091410
1101.617, 0.5917650
1102.099, 0.9731720
1102.581, 1.389920
1103.063, 1.668986
1103.546, 1.822031
1104.028, 1.768742
1104.510, 1.350719
1104.992, 0.7887720
1105.474, 0.1305580
1105.956, 0.4748140
1106.438, 0.3732090
1106.920, 1.037977
1107.402, 1.873075
1107.885, 1.402336
1108.367, 0.8760960
1108.849, 0.7613190
1109.331, 0.7639420
1109.813, 0.5680280
1110.295, 0.2811460
1110.777, 0.2633260
1111.259, 0.6450200
1111.741, 0.8419550
1112.224, 0.6730080
1112.706, 0.5129180
1113.188, 0.3888820
1113.670, 0.3475610
1114.152, 0.4638180
1114.634, 0.6638230
1115.116, 0.8585330
1115.598, 1.066129
1116.081, 1.035790
1116.563, 0.5233300
1117.045, 0.1931680
1117.527, 0.1417270
1118.009, 0.2339330
1118.491, 0.4881960
1118.973, 0.7818510
1119.455, 1.006989
1119.938, 1.144942
1120.420, 0.9910370
1120.902, 0.2689500
1121.384, 3.4603000E-02
1121.866, 0.2943470
1122.348, 0.6384690
1122.830, 0.8001780
1123.312, 0.8887390
1123.794, 1.012549
1124.276, 1.135140
1124.759, 1.143572
1125.241, 1.036298
1125.723, 0.7925920
1126.205, 0.3401470
1126.687, 5.7836998E-02
1127.169, 9.4406001E-02
1127.651, 7.2559997E-02
1128.133, 0.3292750
1128.616, 0.7654490
1129.098, 0.5435820
1129.580, 0.2774110
1130.062, 0.6851300
1130.544, 0.6553190
1131.026, 0.3620510
1131.508, 0.2330180
1131.990, 0.3525330
1132.473, 0.4349020
1132.955, 1.385236
1133.437, 1.615643
1133.919, 1.317506
1134.401, 1.067202
1134.883, 0.8737870
1135.365, 0.9643450
1135.847, 1.322387
1136.329, 1.395515
1136.812, 1.016417
1137.294, 0.4819240
1137.776, 2.5627000E-02
1138.258, 0.2914310
1138.740, 0.3163710
1139.222, 1.429545
1139.704, 1.729331
1140.186, 1.390275
1140.668, 1.264216
1141.151, 1.478189
1141.633, 1.707725
1142.115, 1.789207
1142.597, 1.690657
1143.079, 1.252240
1143.561, 0.7252340
1144.043, 0.5029070
1144.525, 0.5366590
1145.008, 0.8850540
1145.490, 1.410066
1145.972, 1.565798
1146.454, 1.227785
1146.936, 0.8775630
1147.418, 0.8359270
1147.900, 0.9340280
1148.382, 1.121616
1148.865, 1.265700
1149.347, 1.133878
1149.829, 0.8822760
1150.311, 0.7733040
1150.793, 0.8397760
1151.275, 1.021540
1151.757, 1.337374
1152.239, 1.536609
1152.721, 1.408200
1153.203, 1.196843
1153.686, 1.053582
1154.168, 0.9138440
1154.650, 0.6301260
1155.132, 0.3140620
1155.614, 0.2275840
1156.096, 0.4193560
1156.578, 0.6449590
1157.060, 0.9563500
1157.543, 1.114221
1158.025, 0.8478830
1158.507, 0.6422990
1158.989, 0.9907460
1159.471, 1.423324
1159.953, 1.227145
1160.435, 0.5441450
1160.917, 0.3865280
1161.400, 1.225770
1161.882, 1.693868
1162.364, 1.585180
1162.846, 1.394151
1163.328, 1.113665
1163.810, 0.9401050
1164.292, 1.176620
1164.774, 1.604168
1165.256, 1.681580
1165.739, 1.383847
1166.221, 1.161785
1166.703, 1.006489
1167.185, 0.9693870
1167.667, 1.072758
1168.149, 1.248543
1168.631, 1.488690
1169.113, 1.712419
1169.595, 1.829970
1170.078, 1.858594
1170.560, 1.835938
1171.042, 1.765401
1171.524, 1.799228
1172.006, 1.937903
1172.488, 1.986287
1172.970, 1.895556
1173.452, 1.745872
1173.934, 1.582878
1174.417, 1.454973
1174.899, 1.487566
1175.381, 1.577990
1175.863, 1.393444
1176.345, 1.044915
1176.827, 0.8058310
1177.309, 0.7240630
1177.791, 0.9664680
1178.274, 1.537223
1178.756, 1.944166
1179.238, 1.779444
1179.720, 1.387200
1180.202, 0.9456180
1180.684, 0.6313840
1181.166, 0.7210630
1181.648, 1.071012
1182.130, 1.554923
1182.613, 2.032010
1183.095, 2.129083
1183.577, 1.661495
1184.059, 1.268856
1184.541, 1.296716
1185.023, 1.471849
1185.505, 1.805943
1185.987, 2.046324
1186.469, 1.884447
1186.952, 1.588152
1187.434, 1.664705
1187.916, 2.050002
1188.398, 2.175464
1188.880, 1.778230
1189.362, 1.418189
1189.844, 1.246747
1190.326, 1.048711
1190.809, 0.5534650
1191.291, 0.1592900
1191.773, 0.2217300
1192.255, 0.6041840
1192.737, 1.011980
1193.219, 1.460126
1193.701, 1.764798
1194.183, 1.950256
1194.666, 1.851127
1195.148, 1.362099
1195.630, 0.9449510
1196.112, 0.8150260
1196.594, 0.8045380
1197.076, 0.6581280
1197.558, 0.4602200
1198.040, 0.4578350
1198.522, 0.6379080
1199.005, 1.007375
1199.487, 1.493522
1199.969, 1.464087
1200.451, 0.8362520
1200.933, 0.1166280
1201.415, 0.4226010
1201.897, 0.5493800
1202.379, 0.2560960
1202.861, 1.357533
1203.344, 1.685512
1203.826, 1.616034
1204.308, 1.874906
1204.790, 2.296990
1205.272, 2.217264
1205.754, 1.603911
1206.236, 1.201797
1206.718, 1.429671
1207.201, 1.725135
1207.683, 1.919361
1208.165, 1.858044
1208.647, 1.121734
1209.129, 0.3610110
1209.611, 0.2502550
1210.093, 0.5982370
1210.575, 0.8560790
1211.057, 0.9446610
1211.540, 1.168561
1212.022, 1.927101
1212.504, 2.267592
1212.986, 1.774569
1213.468, 1.253695
1213.950, 0.9703770
1214.432, 0.7871060
1214.914, 0.6114810
1215.396, 0.4177580
1215.879, 7.4132003E-02
1216.361, 0.4757130
1216.843, 0.3401740
1217.325, 0.6214020
1217.807, 1.314373
1218.289, 1.563571
1218.771, 1.566354
1219.253, 1.389131
1219.736, 1.294897
1220.218, 1.551472
1220.700, 1.923553
1221.182, 1.756382
1221.664, 1.267335
1222.146, 1.266757
1222.628, 1.594199
1223.110, 1.524607
1223.593, 1.043580
1224.075, 0.7395340
1224.557, 0.8684360
1225.039, 1.054080
1225.521, 0.9677750
1226.003, 0.8359650
1226.485, 0.8197380
1226.967, 0.9024210
1227.449, 1.143064
1227.932, 1.426429
1228.414, 1.633890
1228.896, 1.718974
1229.378, 1.561520
1229.860, 1.007242
1230.342, 0.6856780
1230.824, 0.9921770
1231.306, 1.194860
1231.788, 1.009469
1232.271, 0.7423220
1232.753, 0.5462630
1233.235, 0.3874220
1233.717, 0.1654550
1234.199, 6.1324999E-02
1234.681, 0.1449080
1235.163, 0.9380820
1235.645, 1.416043
1236.128, 1.530783
1236.610, 1.524699
1237.092, 1.446290
1237.574, 1.337458
1238.056, 1.218291
1238.538, 1.135241
1239.020, 1.177567
1239.502, 1.258717
1239.984, 1.114745
1240.467, 0.8355730
1240.949, 0.6559420
1241.431, 0.5905970
1241.913, 0.6364590
1242.395, 0.7711950
1242.877, 0.9493780
1243.359, 1.173429
1243.841, 1.175599
1244.323, 0.3250520
1244.806, 0.3116280
1245.288, 7.5456999E-02
1245.770, 0.5108250
1246.252, 1.162790
1246.734, 1.689308
1247.216, 1.775419
1247.698, 1.466452
1248.180, 1.279650
1248.662, 1.319284
1249.145, 1.415138
1249.627, 1.736721
1250.109, 1.791565
1250.591, 1.252711
1251.073, 0.8600700
1251.555, 1.084779
1252.037, 1.497321
1252.519, 1.402810
1253.002, 0.9152200
1253.484, 0.7653300
1253.966, 0.9448390
1254.448, 1.131711
1254.930, 1.304868
1255.412, 1.408185
1255.894, 1.420222
1256.376, 1.200119
1256.859, 0.6733180
1257.341, 0.3009380
1257.823, 0.6673420
1258.305, 1.295566
1258.787, 1.631232
1259.269, 1.775444
1259.751, 1.864540
1260.233, 1.864568
1260.715, 1.636540
1261.198, 1.264474
1261.680, 0.9269170
1262.162, 0.6616180
1262.644, 0.5645430
1263.126, 0.8528170
1263.608, 1.040509
1264.090, 0.8726140
1264.572, 0.7038400
1265.054, 0.8227160
1265.537, 0.9215560
1266.019, 0.4395710
1266.501, 0.1625390
1266.983, 0.1364590
1267.465, 1.482118
1267.947, 2.056444
1268.429, 1.790051
1268.911, 1.530594
1269.394, 1.408048
1269.876, 1.458910
1270.358, 1.698570
1270.840, 1.934696
1271.322, 2.003094
1271.804, 1.945080
1272.286, 1.750110
1272.768, 1.524743
1273.250, 1.398078
1273.733, 1.400979
1274.215, 1.684513
1274.697, 2.113452
1275.179, 2.391909
1275.661, 2.423104
1276.143, 2.037193
1276.625, 0.6179460
1277.107, 0.2062040
1277.589, 0.5591420
1278.072, 1.230916
1278.554, 0.9088540
1279.036, 0.3555870
1279.518, 5.1480001E-03
1280.000, 4.1170001E-02
1280.482, 0.4975000
1280.964, 1.540214
1281.446, 2.054648
1281.929, 1.771159
1282.411, 1.711802
1282.893, 1.722750
1283.375, 1.518982
1283.857, 1.487275
1284.339, 1.335378
1284.821, 0.9977280
1285.303, 0.6185860
1285.786, 0.2710410
1286.268, 0.0000000E+00
##END=



