##NAMES=Spodumene
##RRUFFID=R050252
##IDEAL CHEMISTRY=LiAlSi_2_O_6_
##LOCALITY=Minas Gerais, Brazil
##OWNER=RRUFF
##SOURCE=Marcus Origlieri
##DESCRIPTION=Pale lavendar cleavage fragment
##STATUS=The identification of this mineral has been confirmed by X-ray diffraction and chemical analysis
##URL=rruff.info/R050252
##MEASURED CHEMISTRY=Li_1.00_Al_1.00_Si_2.00_O_6_
144.7098, 0.0000000E+00
145.1919, 5.431641
145.6741, 11.35156
146.1562, 16.18555
146.6383, 18.83594
147.1204, 10.63086
147.6025, 2.576172
148.0846, 0.8847660
148.5668, 1.326172
149.0489, 6.361328
149.5310, 27.27734
150.0131, 58.21875
150.4952, 76.91406
150.9773, 71.52734
151.4595, 61.59570
151.9416, 61.12305
152.4237, 72.58008
152.9058, 85.51953
153.3879, 104.8984
153.8700, 132.9121
154.3522, 147.7188
154.8343, 131.2422
155.3164, 108.8359
155.7985, 97.37891
156.2806, 118.5605
156.7627, 131.5840
157.2449, 125.7266
157.7270, 99.93750
158.2091, 73.36133
158.6912, 42.16016
159.1733, 14.50781
159.6554, 1.751953
160.1376, 0.4804690
160.6197, 10.92383
161.1018, 29.33203
161.5839, 56.61328
162.0660, 74.22266
162.5481, 65.05664
163.0303, 45.42969
163.5124, 35.08203
163.9945, 50.50000
164.4766, 69.57227
164.9587, 78.98438
165.4408, 76.80664
165.9230, 75.17578
166.4051, 82.24805
166.8872, 93.76953
167.3693, 103.0898
167.8514, 107.9238
168.3335, 109.2891
168.8157, 107.0449
169.2978, 101.2637
169.7799, 95.69141
170.2620, 91.03711
170.7441, 89.61133
171.2262, 92.24219
171.7084, 95.74414
172.1905, 102.3281
172.6726, 111.4297
173.1547, 126.0332
173.6368, 150.5215
174.1189, 169.4980
174.6011, 181.8867
175.0832, 188.9453
175.5653, 186.6699
176.0474, 188.3906
176.5295, 190.5391
177.0116, 198.2324
177.4938, 224.5449
177.9759, 259.5215
178.4580, 300.1504
178.9401, 332.1680
179.4222, 344.1816
179.9043, 344.2539
180.3865, 341.4824
180.8686, 338.8672
181.3507, 338.2285
181.8328, 329.1016
182.3149, 312.4844
182.7970, 294.8262
183.2792, 273.0820
183.7613, 252.8574
184.2434, 253.2578
184.7255, 284.8418
185.2076, 329.3086
185.6897, 354.4844
186.1718, 360.8203
186.6540, 367.2930
187.1361, 396.9473
187.6182, 441.5977
188.1003, 464.4199
188.5824, 454.1719
189.0645, 421.8633
189.5467, 388.0684
190.0288, 352.5625
190.5109, 323.9531
190.9930, 315.0547
191.4751, 322.4785
191.9572, 320.7871
192.4394, 303.2324
192.9215, 275.3281
193.4036, 247.4902
193.8857, 218.7734
194.3678, 202.1973
194.8499, 226.1934
195.3321, 287.2363
195.8142, 305.6621
196.2963, 250.5352
196.7784, 147.2305
197.2605, 82.62500
197.7426, 60.70703
198.2248, 55.61328
198.7069, 44.35742
199.1890, 26.51172
199.6711, 16.35547
200.1532, 20.59570
200.6353, 33.76758
201.1175, 29.32812
201.5996, 1.865234
202.0817, 26.92578
202.5638, 32.39062
203.0459, 16.89258
203.5280, 1.765625
204.0102, 23.45703
204.4923, 45.64648
204.9744, 51.14648
205.4565, 36.78906
205.9386, 14.66211
206.4207, 7.187500
206.9029, 30.62109
207.3850, 40.59570
207.8671, 27.41797
208.3492, 4.439453
208.8313, 11.12500
209.3134, 16.53320
209.7956, 49.43555
210.2777, 58.32031
210.7598, 36.78320
211.2419, 16.60742
211.7240, 4.267578
212.2061, 1.056641
212.6883, 10.41211
213.1704, 26.69727
213.6525, 41.80664
214.1346, 45.51367
214.6167, 32.63281
215.0988, 27.09375
215.5810, 38.72656
216.0631, 64.96875
216.5452, 69.08203
217.0273, 39.42578
217.5094, 5.109375
217.9915, 6.472656
218.4737, 10.89844
218.9558, 35.51953
219.4379, 66.95312
219.9200, 104.4551
220.4021, 122.9844
220.8842, 112.8672
221.3664, 95.88477
221.8485, 91.33008
222.3306, 103.7852
222.8127, 118.1699
223.2948, 132.7656
223.7769, 147.7812
224.2591, 153.6406
224.7412, 143.7090
225.2233, 133.7441
225.7054, 138.8008
226.1875, 164.7266
226.6696, 193.3652
227.1518, 223.9531
227.6339, 256.8711
228.1160, 277.0195
228.5981, 280.3672
229.0802, 276.5059
229.5623, 272.6191
230.0445, 270.6055
230.5266, 264.9824
231.0087, 250.1133
231.4908, 227.6582
231.9729, 226.1582
232.4550, 256.8809
232.9372, 294.3145
233.4193, 317.2383
233.9014, 317.7109
234.3835, 319.0645
234.8656, 324.2461
235.3477, 332.4395
235.8299, 340.2344
236.3120, 347.4492
236.7941, 354.9121
237.2762, 362.9492
237.7583, 369.5312
238.2404, 381.0781
238.7226, 402.0645
239.2047, 430.3691
239.6868, 444.1016
240.1689, 431.9844
240.6510, 420.0801
241.1331, 427.6836
241.6153, 468.2246
242.0974, 499.3379
242.5795, 512.3887
243.0616, 511.2891
243.5437, 519.5293
244.0258, 540.6113
244.5080, 566.7988
244.9901, 594.6504
245.4722, 628.7949
245.9543, 653.4844
246.4364, 656.4062
246.9185, 648.1836
247.4007, 683.6016
247.8828, 801.0820
248.3649, 907.8105
248.8470, 945.4180
249.3291, 877.3730
249.8112, 828.8594
250.2934, 817.9102
250.7755, 829.6523
251.2576, 809.2402
251.7397, 737.1738
252.2218, 662.9141
252.7039, 612.4746
253.1861, 596.2363
253.6682, 576.4980
254.1503, 549.3086
254.6324, 518.2305
255.1145, 494.3711
255.5966, 479.7363
256.0788, 468.6816
256.5609, 458.2695
257.0430, 447.6797
257.5251, 439.8809
258.0072, 436.0664
258.4893, 434.1660
258.9715, 429.5430
259.4536, 418.8730
259.9357, 409.1172
260.4178, 406.7598
260.8999, 415.9258
261.3820, 421.8613
261.8642, 427.0840
262.3463, 425.3809
262.8284, 403.3867
263.3105, 350.2969
263.7926, 300.8086
264.2747, 266.0918
264.7569, 246.9180
265.2390, 238.5195
265.7211, 248.1133
266.2032, 265.6465
266.6853, 273.9336
267.1674, 268.1602
267.6496, 257.7090
268.1317, 246.7266
268.6138, 237.4707
269.0959, 229.9180
269.5780, 220.4844
270.0602, 214.7910
270.5423, 223.4453
271.0244, 251.8535
271.5065, 272.1934
271.9886, 272.5781
272.4707, 254.9590
272.9529, 244.5957
273.4350, 243.4297
273.9171, 248.1777
274.3992, 253.4414
274.8813, 258.6328
275.3634, 272.1914
275.8456, 300.2559
276.3277, 340.7363
276.8098, 365.2852
277.2919, 368.1191
277.7740, 371.6836
278.2561, 399.4922
278.7382, 453.8125
279.2203, 501.6992
279.7025, 536.4492
280.1846, 560.2637
280.6667, 580.6699
281.1488, 596.1484
281.6309, 616.1055
282.1130, 650.8203
282.5952, 700.3887
283.0773, 744.9707
283.5594, 781.5312
284.0415, 811.9590
284.5236, 838.4004
285.0057, 860.7188
285.4879, 882.3848
285.9700, 904.3496
286.4521, 926.6777
286.9342, 953.9316
287.4163, 988.6035
287.8984, 1024.760
288.3806, 1045.064
288.8627, 1050.037
289.3448, 1063.713
289.8269, 1102.227
290.3090, 1162.951
290.7911, 1232.895
291.2733, 1317.256
291.7554, 1394.799
292.2375, 1422.414
292.7196, 1407.043
293.2017, 1400.141
293.6838, 1437.584
294.1660, 1503.355
294.6481, 1549.928
295.1302, 1575.389
295.6123, 1584.082
296.0944, 1576.363
296.5765, 1554.064
297.0587, 1525.996
297.5408, 1499.682
298.0229, 1468.406
298.5050, 1416.689
298.9871, 1344.172
299.4692, 1261.637
299.9514, 1173.580
300.4335, 1083.191
300.9156, 1001.406
301.3977, 940.5586
301.8798, 882.2910
302.3619, 793.6016
302.8441, 677.8047
303.3262, 569.4824
303.8083, 499.5137
304.2904, 453.4004
304.7725, 404.7266
305.2546, 342.1660
305.7368, 282.4590
306.2189, 244.6914
306.7010, 225.5391
307.1831, 212.1777
307.6652, 202.4961
308.1473, 191.5078
308.6295, 170.4082
309.1116, 131.8203
309.5937, 98.37500
310.0758, 92.36914
310.5579, 105.2715
311.0400, 116.5410
311.5222, 110.7500
312.0043, 101.9121
312.4864, 104.3516
312.9685, 123.5254
313.4506, 133.1914
313.9327, 98.76172
314.4149, 48.48828
314.8970, 26.10547
315.3791, 82.66211
315.8612, 146.3203
316.3433, 174.0703
316.8254, 162.9844
317.3076, 141.0645
317.7897, 106.1914
318.2718, 72.27930
318.7539, 53.57812
319.2360, 66.52734
319.7181, 84.31836
320.2003, 101.6211
320.6824, 117.4824
321.1645, 121.7891
321.6466, 106.0273
322.1287, 81.15430
322.6108, 54.80469
323.0930, 22.29492
323.5751, 4.072266
324.0572, 18.20312
324.5393, 23.44922
325.0214, 31.36719
325.5035, 50.56055
325.9857, 67.32227
326.4678, 75.23633
326.9499, 70.28125
327.4320, 62.58789
327.9141, 51.23438
328.3962, 37.83203
328.8784, 24.25391
329.3605, 4.718750
329.8426, 8.037109
330.3247, 6.281250
330.8068, 19.95117
331.2889, 26.84961
331.7711, 0.3613280
332.2532, 37.81055
332.7353, 62.05078
333.2174, 67.57617
333.6995, 67.52344
334.1816, 57.67578
334.6638, 37.55273
335.1459, 47.20703
335.6280, 99.64453
336.1101, 165.4707
336.5922, 215.0898
337.0743, 234.6602
337.5565, 280.2578
338.0386, 370.5293
338.5207, 491.0410
339.0028, 582.0625
339.4849, 634.5879
339.9670, 679.1836
340.4492, 736.2461
340.9313, 805.4160
341.4134, 873.5957
341.8955, 939.9824
342.3776, 1002.600
342.8597, 1054.172
343.3419, 1092.414
343.8240, 1134.549
344.3061, 1192.844
344.7882, 1264.584
345.2703, 1324.793
345.7524, 1369.945
346.2346, 1415.943
346.7167, 1482.512
347.1988, 1569.607
347.6809, 1660.900
348.1630, 1745.219
348.6451, 1831.361
349.1273, 1946.080
349.6094, 2088.463
350.0915, 2240.367
350.5736, 2375.990
351.0557, 2504.975
351.5378, 2662.621
352.0200, 2873.895
352.5021, 3090.480
352.9842, 3256.504
353.4663, 3376.148
353.9484, 3461.648
354.4305, 3535.977
354.9127, 3576.320
355.3948, 3552.723
355.8769, 3458.641
356.3590, 3306.793
356.8411, 3088.934
357.3232, 2821.887
357.8054, 2540.141
358.2875, 2239.531
358.7696, 1944.969
359.2517, 1675.156
359.7338, 1431.043
360.2159, 1215.035
360.6981, 1023.488
361.1802, 863.4023
361.6623, 743.6211
362.1444, 700.5820
362.6265, 666.0469
363.1086, 608.0273
363.5908, 529.8789
364.0729, 462.5156
364.5550, 421.3555
365.0371, 390.9336
365.5192, 361.3438
366.0013, 329.2617
366.4835, 300.8594
366.9656, 280.3398
367.4477, 264.3047
367.9298, 245.8906
368.4119, 214.0312
368.8940, 189.7578
369.3762, 183.1133
369.8583, 203.3164
370.3404, 216.3828
370.8225, 219.6406
371.3046, 217.4609
371.7867, 214.2578
372.2689, 205.1797
372.7510, 201.5781
373.2331, 208.8594
373.7152, 226.5781
374.1973, 232.4922
374.6794, 214.3438
375.1616, 201.5977
375.6437, 221.6484
376.1258, 291.6953
376.6079, 334.6641
377.0900, 334.1758
377.5721, 307.8867
378.0543, 304.8828
378.5364, 329.0312
379.0185, 359.5039
379.5006, 384.5820
379.9827, 404.9805
380.4648, 432.3477
380.9470, 469.9219
381.4291, 505.3008
381.9112, 520.8047
382.3933, 517.5703
382.8754, 510.4961
383.3575, 500.2734
383.8397, 490.4922
384.3218, 489.6875
384.8039, 498.5898
385.2860, 515.4492
385.7681, 545.5430
386.2502, 582.9766
386.7324, 612.3281
387.2145, 627.7383
387.6966, 639.4688
388.1787, 657.7930
388.6608, 681.7695
389.1429, 713.2227
389.6251, 759.7422
390.1072, 812.2383
390.5893, 865.8555
391.0714, 922.4609
391.5535, 963.1875
392.0356, 971.0078
392.5178, 955.0742
392.9999, 929.7773
393.4820, 890.1367
393.9641, 853.1211
394.4462, 840.9688
394.9283, 849.5156
395.4105, 825.5742
395.8926, 718.8438
396.3747, 591.3711
396.8568, 486.2422
397.3389, 408.8281
397.8210, 356.4531
398.3032, 346.9297
398.7853, 362.1094
399.2674, 356.1953
399.7495, 287.2031
400.2316, 227.9219
400.7137, 203.7305
401.1959, 222.2773
401.6780, 245.8984
402.1601, 291.2422
402.6422, 329.3320
403.1243, 324.9570
403.6064, 258.1367
404.0885, 188.4062
404.5706, 122.2852
405.0528, 62.10547
405.5349, 21.88672
406.0170, 2.808594
406.4991, 4.125000
406.9812, 39.26562
407.4633, 117.7148
407.9455, 145.9102
408.4276, 103.9414
408.9097, 30.55469
409.3918, 3.992188
409.8739, 0.4726560
410.3560, 9.636719
410.8382, 5.964844
411.3203, 6.324219
411.8024, 7.246094
412.2845, 3.789063
412.7666, 18.80859
413.2487, 32.41016
413.7309, 45.48828
414.2130, 60.47656
414.6951, 82.53125
415.1772, 101.1875
415.6593, 99.70703
416.1414, 83.71484
416.6236, 67.52734
417.1057, 60.60156
417.5878, 60.86719
418.0699, 65.83984
418.5520, 77.44141
419.0341, 79.94531
419.5163, 54.07031
419.9984, 15.89062
420.4805, 10.40625
420.9626, 13.03906
421.4447, 4.914063
421.9268, 15.08984
422.4090, 45.93750
422.8911, 61.95703
423.3732, 37.95312
423.8553, 9.308594
424.3374, 2.109375
424.8195, 2.894531
425.3017, 27.35938
425.7838, 93.93750
426.2659, 178.6406
426.7480, 232.3633
427.2301, 226.2227
427.7122, 226.0000
428.1944, 255.6680
428.6765, 320.7383
429.1586, 356.1484
429.6407, 345.8945
430.1228, 328.0352
430.6049, 340.5703
431.0871, 391.4141
431.5692, 438.3008
432.0513, 475.5078
432.5334, 505.0195
433.0155, 535.6445
433.4977, 569.5039
433.9798, 588.2617
434.4619, 565.9336
434.9440, 514.0312
435.4261, 502.7734
435.9082, 538.7305
436.3904, 595.2070
436.8725, 650.2109
437.3546, 701.0117
437.8367, 735.4141
438.3188, 739.4453
438.8009, 734.8984
439.2831, 755.1250
439.7652, 795.9180
440.2473, 830.4922
440.7294, 845.0000
441.2115, 842.9727
441.6936, 821.1328
442.1758, 769.0703
442.6579, 732.6680
443.1400, 758.9609
443.6221, 812.7969
444.1042, 842.8164
444.5863, 818.9492
445.0685, 778.6797
445.5506, 733.0898
446.0327, 682.5117
446.5148, 627.2734
446.9969, 553.0234
447.4790, 483.6914
447.9612, 434.2266
448.4433, 428.6680
448.9254, 410.1953
449.4075, 373.7930
449.8896, 326.5430
450.3717, 280.9062
450.8539, 234.8906
451.3360, 195.6758
451.8181, 167.9023
452.3002, 152.3672
452.7823, 128.7383
453.2644, 92.08203
453.7466, 61.19141
454.2287, 59.88281
454.7108, 90.42969
455.1929, 102.4023
455.6750, 84.99219
456.1571, 52.48047
456.6393, 31.82422
457.1214, 22.32031
457.6035, 14.06641
458.0856, 6.406250
458.5677, 27.78125
459.0498, 18.05859
459.5320, 24.02344
460.0141, 67.00391
460.4962, 78.47266
460.9783, 73.95703
461.4604, 78.39844
461.9425, 108.0352
462.4247, 133.8906
462.9068, 123.6406
463.3889, 91.07812
463.8710, 72.36328
464.3531, 103.8086
464.8352, 137.3906
465.3174, 139.7539
465.7995, 100.6367
466.2816, 76.01562
466.7637, 95.91797
467.2458, 127.7695
467.7279, 143.1016
468.2101, 131.5352
468.6922, 112.1055
469.1743, 80.74609
469.6564, 42.59766
470.1385, 15.56641
470.6206, 4.652344
471.1028, 2.484375
471.5849, 12.39062
472.0670, 26.78516
472.5491, 21.62891
473.0312, 14.31641
473.5133, 50.11719
473.9955, 46.35938
474.4776, 1.511719
474.9597, 39.47266
475.4418, 70.37891
475.9239, 87.89453
476.4060, 75.69531
476.8882, 36.58984
477.3703, 4.824219
477.8524, 13.86719
478.3345, 42.42188
478.8166, 43.87891
479.2987, 13.55078
479.7809, 20.58594
480.2630, 36.34375
480.7451, 38.02344
481.2272, 29.97266
481.7093, 3.273438
482.1914, 25.79688
482.6736, 1.449219
483.1557, 53.61719
483.6378, 91.64844
484.1199, 76.13281
484.6020, 52.96484
485.0841, 43.92578
485.5663, 52.89453
486.0484, 64.64062
486.5305, 84.50781
487.0126, 102.0742
487.4947, 108.1602
487.9768, 89.99219
488.4590, 79.41406
488.9411, 84.92188
489.4232, 99.23047
489.9053, 99.37891
490.3874, 81.26172
490.8695, 60.43359
491.3517, 43.13672
491.8338, 29.86328
492.3159, 20.10547
492.7980, 15.09766
493.2801, 11.65625
493.7622, 4.421875
494.2444, 4.863281
494.7265, 8.304688
495.2086, 1.460938
495.6907, 8.363281
496.1728, 11.94531
496.6549, 9.636719
497.1371, 3.820313
497.6192, 13.47266
498.1013, 28.48438
498.5834, 29.31641
499.0655, 15.31250
499.5476, 12.13672
500.0298, 61.69922
500.5119, 119.8320
500.9940, 173.1953
501.4761, 217.6094
501.9582, 258.5898
502.4403, 302.2852
502.9225, 342.5781
503.4046, 366.2344
503.8867, 339.3633
504.3688, 327.8711
504.8509, 355.3594
505.3330, 422.8828
505.8152, 465.5898
506.2973, 474.8789
506.7794, 470.2812
507.2615, 462.4375
507.7436, 449.8359
508.2257, 446.0352
508.7079, 453.9492
509.1900, 469.0625
509.6721, 486.2344
510.1542, 505.3555
510.6363, 520.5391
511.1184, 523.0117
511.6006, 523.4023
512.0826, 553.6211
512.5648, 610.7383
513.0469, 659.7148
513.5290, 669.7266
514.0111, 658.3906
514.4932, 646.1797
514.9753, 633.5547
515.4575, 634.2422
515.9396, 656.6797
516.4217, 697.3008
516.9038, 753.9492
517.3859, 871.8008
517.8680, 959.0977
518.3502, 960.1445
518.8323, 897.3945
519.3144, 866.8945
519.7965, 916.6797
520.2786, 973.5078
520.7607, 1010.406
521.2429, 1025.875
521.7250, 1028.680
522.2071, 1016.711
522.6892, 993.6641
523.1713, 959.3945
523.6534, 908.1602
524.1356, 866.1523
524.6177, 837.9648
525.0998, 818.7461
525.5819, 804.0547
526.0640, 793.4375
526.5461, 764.0078
527.0283, 687.7969
527.5104, 587.3555
527.9925, 524.6641
528.4746, 499.1406
528.9567, 481.6523
529.4388, 450.5352
529.9210, 413.8828
530.4031, 387.9453
530.8852, 386.2109
531.3673, 371.9258
531.8494, 303.5586
532.3315, 213.4883
532.8137, 150.3320
533.2958, 150.6484
533.7779, 161.0977
534.2600, 163.5664
534.7421, 160.8555
535.2242, 176.8047
535.7064, 229.1328
536.1885, 275.6953
536.6706, 298.3789
537.1527, 290.5156
537.6348, 289.5820
538.1169, 296.9648
538.5991, 305.1992
539.0812, 304.4297
539.5633, 292.7812
540.0454, 283.4336
540.5275, 283.2812
541.0096, 287.3086
541.4918, 288.3984
541.9739, 286.6680
542.4560, 282.3711
542.9381, 268.9258
543.4202, 256.2578
543.9023, 267.5039
544.3845, 300.6484
544.8666, 324.7266
545.3487, 301.6797
545.8308, 264.0430
546.3129, 247.4844
546.7950, 267.5625
547.2772, 283.7617
547.7593, 269.3984
548.2414, 242.8750
548.7235, 230.0938
549.2056, 260.2539
549.6877, 277.3711
550.1699, 263.6406
550.6520, 226.6992
551.1341, 204.2148
551.6162, 208.1523
552.0983, 210.4102
552.5804, 197.6719
553.0626, 169.4453
553.5447, 151.2383
554.0268, 147.0625
554.5089, 142.4727
554.9910, 109.8828
555.4731, 55.78906
555.9553, 44.34766
556.4374, 101.9844
556.9195, 171.2461
557.4016, 159.4258
557.8837, 89.81641
558.3658, 33.08594
558.8480, 20.80078
559.3301, 36.18750
559.8122, 79.08594
560.2943, 143.4570
560.7764, 190.3203
561.2585, 193.2617
561.7407, 180.3828
562.2228, 167.1016
562.7049, 155.2852
563.1870, 146.6445
563.6691, 141.2344
564.1512, 140.3203
564.6334, 145.1250
565.1155, 153.6797
565.5976, 172.6992
566.0797, 210.1992
566.5618, 254.1562
567.0439, 266.8984
567.5261, 243.2188
568.0082, 224.7070
568.4903, 232.0312
568.9724, 256.1914
569.4545, 260.3086
569.9366, 245.2578
570.4188, 230.7070
570.9009, 239.6172
571.3830, 258.6172
571.8651, 261.4023
572.3472, 242.9375
572.8293, 230.1367
573.3115, 252.7852
573.7936, 290.3125
574.2757, 316.1836
574.7578, 317.8906
575.2399, 311.9961
575.7220, 287.2891
576.2042, 257.3125
576.6863, 261.7227
577.1684, 342.2969
577.6505, 411.6875
578.1326, 442.3359
578.6147, 432.9336
579.0969, 438.4570
579.5790, 460.2305
580.0611, 490.3945
580.5432, 530.0586
581.0253, 578.3828
581.5074, 599.5938
581.9896, 587.8398
582.4717, 565.2656
582.9538, 554.2070
583.4359, 553.9648
583.9180, 564.0273
584.4001, 590.7148
584.8823, 617.3359
585.3644, 624.6211
585.8465, 619.0664
586.3286, 615.2969
586.8107, 630.9062
587.2928, 642.9141
587.7750, 625.2422
588.2571, 578.8086
588.7392, 565.6484
589.2213, 646.8164
589.7034, 721.3945
590.1855, 731.9375
590.6677, 643.1797
591.1498, 595.8867
591.6319, 606.0898
592.1140, 639.2109
592.5961, 662.3633
593.0782, 675.9844
593.5604, 664.3789
594.0425, 618.1992
594.5246, 557.7461
595.0067, 515.1914
595.4888, 487.5391
595.9709, 467.3086
596.4531, 460.2461
596.9352, 454.7461
597.4173, 437.3711
597.8994, 409.7383
598.3815, 379.4648
598.8636, 347.1289
599.3458, 315.9961
599.8279, 290.7031
600.3100, 273.3555
600.7921, 257.1914
601.2742, 251.7188
601.7563, 240.5664
602.2385, 208.8242
602.7206, 129.0391
603.2027, 80.38281
603.6848, 72.48828
604.1669, 89.32422
604.6490, 108.7070
605.1312, 133.0039
605.6133, 139.9531
606.0954, 112.9180
606.5775, 71.26953
607.0596, 66.81250
607.5417, 95.13281
608.0239, 120.7344
608.5060, 107.0273
608.9881, 85.51953
609.4702, 105.6719
609.9523, 167.0898
610.4344, 220.2656
610.9166, 233.0156
611.3987, 229.3320
611.8808, 229.7148
612.3629, 244.6211
612.8450, 245.0547
613.3271, 199.1289
613.8093, 149.2461
614.2914, 143.6133
614.7735, 219.9258
615.2556, 265.7773
615.7377, 260.2539
616.2198, 222.7188
616.7020, 199.7812
617.1841, 193.7539
617.6662, 176.2930
618.1483, 123.3438
618.6304, 57.55859
619.1125, 44.97656
619.5947, 82.14453
620.0768, 125.8008
620.5589, 160.6055
621.0410, 179.9492
621.5231, 167.5664
622.0052, 122.5859
622.4874, 84.08203
622.9695, 80.53125
623.4516, 88.49219
623.9337, 87.89844
624.4158, 64.81641
624.8979, 51.48828
625.3801, 48.21094
625.8622, 55.77344
626.3443, 77.97656
626.8264, 125.5742
627.3085, 155.4961
627.7906, 150.8477
628.2728, 129.8164
628.7549, 147.9961
629.2370, 204.7734
629.7191, 250.6641
630.2012, 263.4688
630.6833, 251.6797
631.1655, 221.5664
631.6476, 177.2852
632.1297, 147.7891
632.6118, 168.9609
633.0939, 204.2969
633.5760, 227.0234
634.0582, 235.0859
634.5403, 224.3555
635.0224, 174.7812
635.5045, 119.2617
635.9866, 83.16406
636.4688, 75.92188
636.9509, 76.96094
637.4330, 89.89062
637.9151, 106.7695
638.3972, 115.6680
638.8793, 115.2930
639.3615, 109.7539
639.8436, 97.32812
640.3257, 81.04688
640.8078, 68.94141
641.2899, 59.91797
641.7720, 51.03516
642.2542, 41.23047
642.7363, 30.83594
643.2184, 24.34766
643.7005, 20.50000
644.1826, 9.863281
644.6647, 18.96875
645.1469, 48.61328
645.6290, 66.99219
646.1111, 71.76562
646.5932, 71.10156
647.0753, 64.80078
647.5574, 53.32812
648.0396, 35.90625
648.5217, 3.878906
649.0038, 10.36328
649.4859, 1.996094
649.9680, 15.91016
650.4501, 29.41406
650.9323, 38.87500
651.4144, 51.51562
651.8965, 73.20312
652.3786, 89.12109
652.8607, 77.08594
653.3428, 43.96875
653.8250, 5.164063
654.3071, 51.86719
654.7892, 94.08984
655.2713, 78.24609
655.7534, 26.96484
656.2355, 17.66797
656.7177, 130.6055
657.1998, 232.6289
657.6819, 270.6836
658.1640, 244.7344
658.6461, 226.8047
659.1282, 213.4062
659.6104, 211.9688
660.0925, 227.6016
660.5746, 259.5312
661.0567, 302.5547
661.5388, 360.2031
662.0209, 401.3438
662.5031, 382.3828
662.9852, 325.4844
663.4673, 283.1328
663.9494, 266.9688
664.4315, 254.3516
664.9136, 221.6484
665.3958, 185.6719
665.8779, 167.8984
666.3600, 198.7656
666.8421, 221.8594
667.3242, 228.6719
667.8063, 220.0938
668.2885, 195.4141
668.7706, 136.3750
669.2527, 97.02344
669.7348, 90.79688
670.2169, 111.6406
670.6990, 140.6875
671.1812, 178.3359
671.6633, 212.3047
672.1454, 239.2266
672.6275, 256.5938
673.1096, 258.3672
673.5917, 245.3359
674.0739, 230.6484
674.5560, 207.5859
675.0381, 195.9219
675.5202, 225.2578
676.0023, 303.4766
676.4844, 352.2656
676.9666, 315.4062
677.4487, 263.7422
677.9308, 249.1641
678.4129, 294.9688
678.8950, 326.2109
679.3771, 342.6016
679.8593, 345.0078
680.3414, 324.4375
680.8235, 280.8750
681.3056, 258.5156
681.7877, 265.3594
682.2698, 293.6172
682.7520, 337.0156
683.2341, 393.3750
683.7162, 451.3984
684.1983, 519.0312
684.6804, 574.6016
685.1625, 590.5078
685.6447, 582.3750
686.1268, 588.5938
686.6089, 637.0156
687.0910, 684.0781
687.5731, 715.4609
688.0552, 733.0469
688.5374, 743.0859
689.0195, 731.6641
689.5016, 750.0000
689.9837, 829.4766
690.4658, 965.1016
690.9479, 1081.336
691.4301, 1179.031
691.9122, 1261.844
692.3943, 1326.539
692.8764, 1384.445
693.3585, 1456.094
693.8406, 1543.336
694.3228, 1639.766
694.8049, 1748.727
695.2870, 1858.852
695.7691, 1960.898
696.2512, 2047.406
696.7333, 2139.234
697.2155, 2230.133
697.6976, 2334.875
698.1797, 2467.258
698.6618, 2631.125
699.1439, 2816.703
699.6260, 3023.070
700.1082, 3238.320
700.5903, 3449.125
701.0724, 3655.758
701.5545, 3861.352
702.0366, 4068.953
702.5187, 4271.977
703.0009, 4461.289
703.4830, 4636.945
703.9651, 4797.742
704.4472, 4967.273
704.9293, 5102.852
705.4114, 5180.797
705.8936, 5209.906
706.3757, 5222.266
706.8578, 5269.828
707.3399, 5229.578
707.8220, 5058.055
708.3041, 4768.477
708.7863, 4433.633
709.2684, 4048.930
709.7505, 3661.453
710.2325, 3291.711
710.7147, 2942.180
711.1968, 2622.625
711.6789, 2333.461
712.1610, 2063.492
712.6431, 1794.312
713.1252, 1547.953
713.6074, 1340.680
714.0895, 1174.492
714.5716, 1047.484
715.0537, 984.3516
715.5358, 939.4062
716.0179, 884.1484
716.5001, 818.8125
716.9822, 738.7500
717.4643, 628.8828
717.9464, 529.2812
718.4285, 500.1328
718.9106, 531.9062
719.3928, 508.5078
719.8749, 405.8047
720.3570, 294.6641
720.8391, 256.3438
721.3212, 263.7969
721.8033, 273.5547
722.2855, 277.6953
722.7676, 270.5625
723.2497, 242.9375
723.7318, 205.5000
724.2139, 174.2578
724.6960, 138.7344
725.1782, 126.2109
725.6603, 146.6016
726.1424, 187.6719
726.6245, 225.7266
727.1066, 262.5312
727.5887, 281.0312
728.0709, 266.6953
728.5530, 241.1484
729.0351, 250.4297
729.5172, 286.1797
729.9993, 315.4531
730.4814, 328.0703
730.9636, 324.4375
731.4457, 298.9141
731.9278, 256.1172
732.4099, 212.5547
732.8920, 158.8828
733.3741, 123.2578
733.8563, 121.9922
734.3384, 150.6719
734.8205, 161.0547
735.3026, 146.2031
735.7847, 138.3359
736.2668, 166.0391
736.7490, 215.2891
737.2311, 212.7188
737.7132, 159.8047
738.1953, 109.4922
738.6774, 105.9766
739.1595, 120.1562
739.6417, 121.7188
740.1238, 107.9453
740.6059, 93.07031
741.0880, 69.91406
741.5701, 57.17969
742.0522, 78.75781
742.5344, 158.3984
743.0165, 171.1953
743.4986, 84.33594
743.9807, 6.015625
744.4628, 0.1953130
744.9449, 94.65625
745.4271, 111.7422
745.9092, 29.00781
746.3913, 58.71875
746.8734, 48.13281
747.3555, 15.87500
747.8376, 61.19531
748.3198, 67.58594
748.8019, 76.28125
749.2840, 110.8125
749.7661, 153.7422
750.2482, 189.0156
750.7303, 234.3438
751.2125, 236.8672
751.6946, 176.0859
752.1767, 95.30469
752.6588, 48.73438
753.1409, 37.57812
753.6230, 55.00781
754.1052, 113.8594
754.5873, 164.6641
755.0694, 123.3516
755.5515, 27.52344
756.0336, 42.56250
756.5157, 57.42969
756.9979, 45.31250
757.4800, 5.953125
757.9621, 69.42969
758.4442, 94.96875
758.9263, 42.25781
759.4084, 3.968750
759.8906, 38.60156
760.3727, 58.42188
760.8548, 51.25000
761.3369, 15.01562
761.8190, 19.62500
762.3011, 42.49219
762.7833, 60.60156
763.2654, 87.85938
763.7475, 118.7422
764.2296, 139.6719
764.7117, 137.6797
765.1938, 127.9688
765.6760, 108.4844
766.1581, 86.64844
766.6402, 84.84375
767.1223, 138.5000
767.6044, 171.1953
768.0865, 157.0156
768.5687, 110.5625
769.0508, 99.38281
769.5329, 127.1641
770.0150, 152.3125
770.4971, 154.4609
770.9792, 143.3828
771.4614, 139.9453
771.9435, 140.4219
772.4256, 128.4375
772.9077, 79.65625
773.3898, 29.92188
773.8719, 4.414063
774.3541, 21.21875
774.8362, 11.71094
775.3183, 57.74219
775.8004, 116.1719
776.2825, 141.1250
776.7646, 136.4766
777.2468, 117.8672
777.7289, 84.75000
778.2110, 54.41406
778.6931, 26.81250
779.1752, 12.70312
779.6573, 48.39844
780.1395, 124.7344
780.6216, 186.9609
781.1037, 172.4531
781.5858, 154.1562
782.0679, 189.6094
782.5500, 281.6562
783.0322, 336.4531
783.5143, 313.9375
783.9964, 295.9453
784.4785, 320.7188
784.9606, 383.2266
785.4427, 402.6406
785.9249, 376.9531
786.4070, 340.7656
786.8891, 310.2031
787.3712, 295.2578
787.8533, 326.3750
788.3354, 399.2656
788.8176, 437.6172
789.2997, 372.8047
789.7818, 279.3984
790.2639, 190.2578
790.7460, 103.4609
791.2281, 77.48438
791.7103, 146.3906
792.1924, 219.4766
792.6745, 241.3594
793.1566, 214.2344
793.6387, 205.3906
794.1208, 215.7969
794.6030, 225.8047
795.0851, 214.2656
795.5672, 194.8359
796.0493, 189.9688
796.5314, 202.1250
797.0135, 204.8672
797.4957, 165.4219
797.9778, 130.9141
798.4599, 143.8047
798.9420, 219.5938
799.4241, 234.6094
799.9063, 160.3203
800.3884, 87.70312
800.8705, 82.85938
801.3526, 136.6016
801.8347, 163.4375
802.3168, 162.5391
802.7990, 171.9688
803.2811, 238.6797
803.7632, 318.5234
804.2453, 355.6719
804.7274, 346.4844
805.2095, 343.3672
805.6917, 371.6328
806.1738, 397.4453
806.6559, 397.5312
807.1380, 365.3594
807.6201, 365.6016
808.1022, 407.4062
808.5844, 451.2188
809.0665, 470.1875
809.5486, 468.3672
810.0307, 454.5391
810.5128, 430.0312
810.9949, 411.7734
811.4771, 443.2422
811.9592, 465.3359
812.4413, 409.6484
812.9234, 258.6406
813.4055, 167.0469
813.8876, 212.9844
814.3698, 261.4766
814.8519, 239.8203
815.3340, 147.1250
815.8161, 113.2500
816.2982, 143.1328
816.7803, 183.5781
817.2625, 194.8047
817.7446, 187.9453
818.2267, 188.9062
818.7088, 198.4219
819.1909, 198.4453
819.6730, 153.9375
820.1552, 112.5859
820.6373, 112.4609
821.1194, 162.4141
821.6015, 179.3438
822.0836, 140.9531
822.5657, 109.8438
823.0479, 127.2422
823.5300, 183.6875
824.0121, 208.2344
824.4942, 202.5312
824.9763, 195.1016
825.4584, 226.5547
825.9406, 253.9766
826.4227, 222.1875
826.9048, 135.9219
827.3869, 64.63281
827.8690, 4.734375
828.3511, 5.343750
828.8333, 73.65625
829.3154, 231.5938
829.7975, 301.0781
830.2796, 263.4688
830.7617, 216.3203
831.2438, 212.7500
831.7260, 234.4688
832.2081, 232.0391
832.6902, 211.6797
833.1723, 207.4844
833.6544, 261.0703
834.1365, 316.2656
834.6187, 342.4688
835.1008, 340.3359
835.5829, 314.1719
836.0650, 247.7812
836.5471, 189.7188
837.0292, 158.7969
837.5114, 147.9297
837.9935, 128.4922
838.4756, 101.9453
838.9577, 71.71875
839.4398, 43.82812
839.9219, 11.98438
840.4041, 45.59375
840.8862, 114.5859
841.3683, 153.4688
841.8504, 117.7656
842.3325, 79.10156
842.8146, 72.25000
843.2968, 77.49219
843.7789, 33.00000
844.2610, 78.27344
844.7431, 161.3047
845.2252, 173.7109
845.7073, 157.7266
846.1895, 198.3672
846.6716, 278.9922
847.1537, 351.0000
847.6358, 383.3281
848.1179, 409.3203
848.6000, 450.7188
849.0822, 496.2031
849.5643, 523.8984
850.0464, 531.5625
850.5285, 520.2812
851.0106, 485.9766
851.4927, 440.2812
851.9749, 408.3047
852.4570, 389.5703
852.9391, 352.1406
853.4212, 282.6641
853.9033, 220.3984
854.3854, 214.7266
854.8676, 242.3672
855.3497, 269.6953
855.8318, 298.4766
856.3139, 309.2969
856.7960, 269.1562
857.2781, 228.5000
857.7603, 245.5625
858.2424, 330.8828
858.7245, 385.6172
859.2066, 394.3828
859.6887, 391.6562
860.1708, 416.2656
860.6530, 458.0859
861.1351, 498.3672
861.6172, 535.7031
862.0993, 563.7812
862.5814, 585.8672
863.0635, 594.7734
863.5457, 583.1094
864.0278, 544.0469
864.5099, 512.2188
864.9920, 489.7031
865.4741, 469.9688
865.9562, 448.0469
866.4384, 424.8438
866.9205, 396.3516
867.4026, 363.3047
867.8847, 338.7500
868.3668, 362.2344
868.8489, 377.5234
869.3311, 324.2109
869.8132, 192.2266
870.2953, 96.71094
870.7774, 46.64062
871.2595, 38.92188
871.7416, 93.82812
872.2238, 201.9766
872.7059, 236.6328
873.1880, 194.5781
873.6701, 141.8750
874.1522, 101.3750
874.6343, 85.37500
875.1165, 113.0234
875.5986, 174.2109
876.0807, 233.8594
876.5628, 270.9062
877.0449, 314.8594
877.5270, 370.7422
878.0092, 433.1172
878.4913, 497.4375
878.9734, 564.5391
879.4555, 610.1172
879.9376, 621.3359
880.4197, 615.1406
880.9019, 610.2109
881.3840, 607.2578
881.8661, 606.9922
882.3482, 626.0391
882.8303, 631.4219
883.3124, 609.1797
883.7946, 570.6406
884.2767, 530.5547
884.7588, 484.3672
885.2409, 463.0000
885.7230, 477.4219
886.2051, 500.3750
886.6873, 495.1641
887.1694, 468.8828
887.6515, 435.6484
888.1336, 389.6719
888.6157, 367.9531
889.0978, 414.4062
889.5800, 481.4297
890.0621, 522.2266
890.5442, 517.9141
891.0263, 528.4766
891.5084, 561.2969
891.9905, 592.0234
892.4727, 605.7188
892.9548, 600.6875
893.4369, 562.2734
893.9190, 489.0703
894.4011, 418.7500
894.8832, 370.5859
895.3654, 343.9844
895.8475, 340.1719
896.3296, 360.2031
896.8117, 394.7812
897.2938, 465.2500
897.7759, 512.4922
898.2581, 499.2266
898.7402, 438.5859
899.2223, 382.9688
899.7044, 339.4141
900.1865, 332.3828
900.6686, 422.3438
901.1508, 511.0391
901.6329, 489.2812
902.1150, 399.4219
902.5971, 357.0938
903.0792, 448.2656
903.5613, 514.7344
904.0435, 528.1406
904.5256, 509.1562
905.0077, 499.5625
905.4898, 499.6250
905.9719, 485.2812
906.4540, 443.6094
906.9362, 408.6875
907.4183, 435.6719
907.9004, 485.1953
908.3825, 501.4531
908.8646, 441.0781
909.3467, 402.7578
909.8289, 406.8281
910.3110, 429.4688
910.7931, 453.5703
911.2752, 478.2344
911.7573, 496.2109
912.2394, 505.4297
912.7216, 525.2031
913.2037, 597.2734
913.6858, 674.8281
914.1679, 694.0000
914.6500, 647.0625
915.1321, 586.6250
915.6143, 501.2266
916.0964, 435.7656
916.5785, 417.9766
917.0606, 440.8594
917.5427, 434.3047
918.0248, 397.5234
918.5070, 361.9062
918.9891, 338.1641
919.4712, 330.7891
919.9533, 368.9766
920.4354, 430.8359
920.9175, 448.9609
921.3997, 346.2500
921.8818, 261.9219
922.3639, 243.3438
922.8460, 256.8281
923.3281, 232.3750
923.8102, 164.2812
924.2924, 127.7578
924.7745, 144.3828
925.2566, 173.5547
925.7387, 158.4141
926.2208, 124.3125
926.7029, 114.5781
927.1851, 156.7969
927.6672, 178.3672
928.1493, 150.9141
928.6314, 100.2031
929.1135, 31.32031
929.5956, 67.17969
930.0778, 79.73438
930.5599, 2.734375
931.0420, 80.68750
931.5241, 51.67969
932.0062, 22.44531
932.4883, 59.00781
932.9705, 55.95312
933.4526, 50.84375
933.9347, 72.96875
934.4168, 75.04688
934.8989, 31.26562
935.3810, 46.80469
935.8632, 95.62500
936.3453, 117.2031
936.8274, 108.6406
937.3095, 50.03906
937.7916, 9.781250
938.2737, 4.421875
938.7559, 63.03906
939.2380, 106.9766
939.7201, 85.23438
940.2022, 85.76562
940.6843, 140.8125
941.1664, 208.7266
941.6486, 239.9766
942.1307, 232.1953
942.6128, 223.1797
943.0949, 213.0000
943.5770, 193.6406
944.0591, 143.0781
944.5413, 95.14062
945.0234, 96.98438
945.5055, 160.6484
945.9876, 208.7109
946.4697, 204.3281
946.9518, 204.5547
947.4340, 245.5703
947.9161, 318.6484
948.3982, 334.2109
948.8803, 293.9531
949.3624, 229.9531
949.8445, 131.8047
950.3267, 42.12500
950.8088, 7.890625
951.2909, 16.79688
951.7730, 36.53906
952.2551, 53.32812
952.7372, 89.08594
953.2194, 155.4375
953.7015, 230.8203
954.1836, 273.4609
954.6657, 286.4531
955.1478, 324.4141
955.6299, 406.1406
956.1121, 467.0625
956.5942, 417.3750
957.0763, 334.7031
957.5583, 302.4453
958.0405, 350.2656
958.5226, 398.6875
959.0047, 458.3047
959.4868, 495.4922
959.9689, 478.3594
960.4510, 418.7734
960.9332, 383.7734
961.4153, 372.3359
961.8974, 366.9688
962.3795, 365.1641
962.8616, 359.2266
963.3438, 343.2344
963.8259, 319.2344
964.3080, 294.6797
964.7901, 266.0938
965.2722, 245.1719
965.7543, 230.4062
966.2365, 230.5078
966.7186, 277.0625
967.2007, 351.4844
967.6828, 406.4844
968.1649, 430.3438
968.6470, 427.7578
969.1292, 339.5469
969.6113, 267.6016
970.0934, 319.7266
970.5755, 544.1172
971.0576, 666.4688
971.5397, 675.4922
972.0219, 638.2734
972.5040, 567.1328
972.9861, 499.0547
973.4682, 525.7344
973.9503, 631.7031
974.4324, 722.9141
974.9146, 731.4766
975.3967, 746.6797
975.8788, 834.6406
976.3609, 944.1016
976.8430, 917.7812
977.3251, 741.0078
977.8073, 625.4375
978.2894, 634.8906
978.7715, 690.7422
979.2536, 718.7266
979.7357, 722.4375
980.2178, 700.2266
980.7000, 621.1484
981.1821, 607.6328
981.6642, 747.7969
982.1463, 877.7812
982.6284, 875.1016
983.1105, 745.8125
983.5927, 646.0156
984.0748, 575.8984
984.5569, 525.1719
985.0390, 490.2109
985.5211, 467.1797
986.0032, 448.9062
986.4854, 437.5078
986.9675, 448.6719
987.4496, 491.9375
987.9317, 524.1875
988.4138, 536.5000
988.8959, 536.3203
989.3781, 549.3359
989.8602, 566.0156
990.3423, 558.0078
990.8244, 514.5000
991.3065, 473.9062
991.7886, 467.5938
992.2708, 467.5312
992.7529, 452.3047
993.2350, 421.1562
993.7171, 383.6953
994.1992, 342.9922
994.6813, 286.5312
995.1635, 178.2891
995.6456, 62.69531
996.1277, 45.81250
996.6098, 103.7422
997.0919, 136.5312
997.5740, 84.99219
998.0562, 23.73438
998.5383, 27.31250
999.0204, 71.55469
999.5025, 124.2500
999.9846, 186.4297
1000.467, 191.2188
1000.949, 117.0547
1001.431, 31.89062
1001.913, 5.812500
1002.395, 6.679688
1002.877, 3.320313
1003.359, 31.04688
1003.842, 55.35156
1004.324, 62.89844
1004.806, 82.82812
1005.288, 126.2969
1005.770, 193.2422
1006.252, 290.7188
1006.734, 412.0234
1007.216, 514.1172
1007.698, 572.0078
1008.181, 608.0469
1008.663, 622.6094
1009.145, 626.3828
1009.627, 644.8594
1010.109, 692.8984
1010.591, 695.0703
1011.073, 632.3984
1011.555, 567.8359
1012.038, 593.7266
1012.520, 657.4531
1013.002, 673.6250
1013.484, 630.9922
1013.966, 584.8438
1014.448, 550.4688
1014.930, 525.8047
1015.412, 510.0859
1015.894, 505.1484
1016.377, 518.9062
1016.859, 550.1172
1017.341, 569.1250
1017.823, 556.8125
1018.305, 537.6719
1018.787, 524.0156
1019.269, 521.6328
1019.751, 541.5391
1020.234, 621.5234
1020.716, 646.5781
1021.198, 599.0078
1021.680, 531.2031
1022.162, 475.9922
1022.644, 439.1328
1023.126, 445.6797
1023.608, 492.3359
1024.090, 543.8828
1024.573, 612.2188
1025.055, 646.5234
1025.537, 609.0234
1026.019, 521.1953
1026.501, 438.4609
1026.983, 360.2812
1027.465, 302.3047
1027.947, 273.3438
1028.430, 259.1484
1028.912, 236.0547
1029.394, 223.6328
1029.876, 259.9922
1030.358, 393.1406
1030.840, 442.4688
1031.322, 371.0781
1031.804, 266.1719
1032.286, 166.4453
1032.769, 77.89844
1033.251, 30.64844
1033.733, 20.86719
1034.215, 31.96094
1034.697, 83.33594
1035.179, 121.0938
1035.661, 61.92188
1036.143, 11.36719
1036.625, 79.22656
1037.108, 389.6875
1037.590, 539.1250
1038.072, 464.9688
1038.554, 328.7812
1039.036, 284.7969
1039.518, 293.4844
1040.000, 321.2656
1040.482, 366.1406
1040.965, 350.6094
1041.447, 180.7500
1041.929, 69.78125
1042.411, 109.9062
1042.893, 246.3125
1043.375, 305.9062
1043.857, 309.1562
1044.339, 346.0469
1044.822, 473.8125
1045.304, 592.5156
1045.786, 637.7812
1046.268, 646.0156
1046.750, 646.7500
1047.232, 624.4531
1047.714, 642.3594
1048.196, 705.8125
1048.678, 761.8125
1049.161, 778.4844
1049.643, 767.5781
1050.125, 737.3594
1050.607, 692.1094
1051.089, 651.0312
1051.571, 623.8906
1052.053, 607.3750
1052.535, 620.8438
1053.017, 622.0000
1053.500, 496.9375
1053.982, 292.7812
1054.464, 229.7031
1054.946, 354.1875
1055.428, 484.7656
1055.910, 527.0312
1056.392, 515.0000
1056.874, 441.9531
1057.357, 320.9062
1057.839, 303.4375
1058.321, 402.4844
1058.803, 531.5781
1059.285, 687.5156
1059.767, 801.8125
1060.249, 727.5469
1060.731, 577.6250
1061.214, 536.4688
1061.696, 740.6875
1062.178, 884.7344
1062.660, 938.2812
1063.142, 962.5000
1063.624, 969.0781
1064.106, 987.8594
1064.588, 1174.812
1065.070, 1500.859
1065.552, 1773.016
1066.035, 1877.859
1066.517, 1911.594
1066.999, 1876.047
1067.481, 1815.703
1067.963, 1815.953
1068.445, 1879.688
1068.927, 1921.625
1069.409, 1931.062
1069.892, 1913.391
1070.374, 1838.219
1070.856, 1767.234
1071.338, 1791.438
1071.820, 1929.047
1072.302, 1936.359
1072.784, 1763.938
1073.266, 1587.438
1073.749, 1469.219
1074.231, 1387.578
1074.713, 1312.641
1075.195, 1238.406
1075.677, 1144.766
1076.159, 988.9062
1076.641, 894.9531
1077.123, 966.0000
1077.605, 1035.422
1078.088, 960.9375
1078.570, 757.8594
1079.052, 674.7656
1079.534, 702.0938
1080.016, 733.9844
1080.498, 702.1875
1080.980, 660.3906
1081.462, 646.6875
1081.944, 646.5000
1082.427, 621.4375
1082.909, 557.6406
1083.391, 506.0625
1083.873, 469.1094
1084.355, 462.2812
1084.837, 520.5312
1085.319, 609.0000
1085.801, 695.9688
1086.283, 777.6250
1086.766, 805.8906
1087.248, 727.8438
1087.730, 684.7812
1088.212, 729.6094
1088.694, 808.5469
1089.176, 804.0938
1089.658, 744.0938
1090.140, 701.9375
1090.623, 699.5312
1091.105, 695.3281
1091.587, 672.6875
1092.069, 641.3750
1092.551, 599.4062
1093.033, 550.6094
1093.515, 539.8281
1093.997, 564.2344
1094.479, 596.6250
1094.962, 651.4219
1095.444, 670.9219
1095.926, 584.7031
1096.408, 447.0938
1096.890, 338.6719
1097.372, 261.3594
1097.854, 218.6250
1098.336, 214.8906
1098.818, 223.0781
1099.301, 246.6875
1099.783, 253.7344
1100.265, 182.9375
1100.747, 58.07812
1101.229, 16.35938
1101.711, 30.48438
1102.193, 53.00000
1102.675, 29.60938
1103.158, 22.57812
1103.640, 102.5312
1104.122, 187.0312
1104.604, 210.4531
1105.086, 162.9375
1105.568, 102.9531
1106.050, 31.87500
1106.532, 15.06250
1107.015, 8.968750
1107.497, 27.40625
1107.979, 12.31250
1108.461, 48.65625
1108.943, 113.2344
1109.425, 181.2969
1109.907, 217.2656
1110.389, 175.1250
1110.871, 106.9688
1111.354, 58.14062
1111.836, 29.59375
1112.318, 14.93750
1112.800, 11.96875
1113.282, 67.21875
1113.764, 268.3438
1114.246, 471.8125
1114.728, 476.2656
1115.210, 378.7656
1115.693, 349.5312
1116.175, 486.9375
1116.657, 527.8906
1117.139, 440.2500
1117.621, 344.6250
1118.103, 358.3906
1118.585, 426.0625
1119.067, 459.4375
1119.550, 459.4062
1120.032, 446.3906
1120.514, 415.5625
1120.996, 396.9375
1121.478, 412.2031
1121.960, 422.5625
1122.442, 347.8281
1122.924, 222.8750
1123.406, 161.7656
1123.889, 177.9844
1124.371, 243.6094
1124.853, 432.0469
1125.335, 564.9219
1125.817, 533.8750
1126.299, 403.9219
1126.781, 362.9219
1127.263, 401.7344
1127.745, 444.5469
1128.228, 471.2500
1128.710, 497.5469
1129.192, 534.5312
1129.674, 575.3281
1130.156, 626.1250
1130.638, 685.0000
1131.120, 686.1875
1131.602, 624.6719
1132.085, 580.5469
1132.567, 605.3906
1133.049, 632.1406
1133.531, 576.2031
1134.013, 487.7656
1134.495, 444.4844
1134.977, 494.1406
1135.459, 452.1875
1135.942, 292.5156
1136.424, 153.8438
1136.906, 165.0625
1137.388, 233.4844
1137.870, 210.9062
1138.352, 126.9062
1138.834, 49.73438
1139.316, 25.17188
1139.798, 44.39062
1140.281, 18.85938
1140.763, 87.68750
1141.245, 79.53125
1141.727, 24.54688
1142.209, 21.62500
1142.691, 50.45312
1143.173, 20.42188
1143.655, 181.2031
1144.137, 304.7031
1144.620, 263.8438
1145.102, 161.7656
1145.584, 180.3594
1146.066, 278.2656
1146.548, 262.1875
1147.030, 109.6562
1147.512, 7.234375
1147.994, 137.7188
1148.477, 260.1875
1148.959, 258.8281
1149.441, 178.7500
1149.923, 131.7188
1150.405, 118.3906
1150.887, 164.3906
1151.369, 285.7656
1151.851, 393.7500
1152.333, 410.7188
1152.816, 397.2031
1153.298, 377.9531
1153.780, 360.2344
1154.262, 447.4844
1154.744, 638.1406
1155.226, 757.8906
1155.708, 721.2188
1156.190, 629.4688
1156.672, 533.0000
1157.155, 454.8281
1157.637, 437.5625
1158.119, 495.7812
1158.601, 496.1875
1159.083, 435.9531
1159.565, 351.7188
1160.047, 242.5000
1160.529, 142.8750
1161.012, 98.09375
1161.494, 83.42188
1161.976, 60.92188
1162.458, 13.35938
1162.940, 6.750000
1163.422, 43.82812
1163.904, 112.6562
1164.386, 213.3750
1164.869, 325.4062
1165.351, 434.5625
1165.833, 535.0469
1166.315, 602.5156
1166.797, 610.3906
1167.279, 623.7656
1167.761, 651.7344
1168.243, 664.7188
1168.725, 606.9219
1169.208, 525.3281
1169.690, 520.8125
1170.172, 580.4375
1170.654, 610.9375
1171.136, 556.4688
1171.618, 514.8906
1172.100, 501.2344
1172.582, 506.6562
1173.064, 533.7656
1173.547, 569.5625
1174.029, 595.1875
1174.511, 609.1719
1174.993, 593.9688
1175.475, 488.1406
1175.957, 433.5156
1176.439, 490.0781
1176.921, 579.6406
1177.404, 533.8750
1177.886, 404.5469
1178.368, 340.4688
1178.850, 370.3906
1179.332, 405.4219
1179.814, 412.9531
1180.296, 416.1406
1180.778, 445.0625
1181.260, 464.6562
1181.743, 379.1094
1182.225, 237.6719
1182.707, 206.9531
1183.189, 359.7500
1183.671, 504.4688
1184.153, 559.4844
1184.635, 539.9375
1185.117, 447.0469
1185.599, 312.4688
1186.082, 262.9844
1186.564, 286.8594
1187.046, 334.7188
1187.528, 397.0625
1188.010, 459.3125
1188.492, 504.4375
1188.974, 549.0625
1189.456, 603.4531
1189.939, 665.3438
1190.421, 741.0312
1190.903, 823.1094
1191.385, 854.1719
1191.867, 797.3281
1192.349, 703.0938
1192.831, 550.5469
1193.313, 412.0938
1193.796, 359.3281
1194.278, 392.3750
1194.760, 400.0000
1195.242, 384.9219
1195.724, 375.2500
1196.206, 410.0469
1196.688, 425.8750
1197.170, 345.4375
1197.652, 257.7500
1198.135, 292.1094
1198.617, 450.0156
1199.099, 443.3750
1199.581, 273.7188
1200.063, 112.6719
1200.545, 53.29688
1201.027, 52.15625
1201.509, 143.5781
1201.991, 247.2031
1202.474, 229.8906
1202.956, 91.79688
1203.438, 29.35938
1203.920, 54.04688
1204.402, 97.62500
1204.884, 138.1406
1205.366, 157.5938
1205.848, 119.3594
1206.331, 62.20312
1206.813, 50.35938
1207.295, 82.76562
1207.777, 162.2188
1208.259, 287.5781
1208.741, 366.6094
1209.223, 252.5000
1209.705, 138.8281
1210.188, 187.3281
1210.670, 316.7500
1211.152, 333.2188
1211.634, 239.6094
1212.116, 229.9219
1212.598, 338.4062
1213.080, 442.2812
1213.562, 425.5625
1214.044, 396.9219
1214.526, 444.0312
1215.009, 534.8594
1215.491, 574.3906
1215.973, 563.8906
1216.455, 553.4219
1216.937, 550.6562
1217.419, 565.4844
1217.901, 656.5000
1218.383, 720.2969
1218.866, 663.4375
1219.348, 529.4531
1219.830, 469.1562
1220.312, 478.5625
1220.794, 481.1875
1221.276, 460.5781
1221.758, 428.1250
1222.240, 371.3125
1222.723, 327.5156
1223.205, 320.2188
1223.687, 347.0781
1224.169, 431.8281
1224.651, 561.5781
1225.133, 565.6875
1225.615, 360.1875
1226.097, 198.0781
1226.579, 282.2500
1227.062, 434.7812
1227.544, 548.2031
1228.026, 622.1875
1228.508, 650.5781
1228.990, 636.8281
1229.472, 602.7500
1229.954, 543.0469
1230.436, 499.2344
1230.918, 495.1719
1231.401, 512.9531
1231.883, 540.5469
1232.365, 576.2031
1232.847, 630.4375
1233.329, 694.6875
1233.811, 723.8906
1234.293, 700.7969
1234.775, 650.6719
1235.258, 538.7500
1235.740, 452.3125
1236.222, 480.3594
1236.704, 575.1719
1237.186, 434.0156
1237.668, 122.6562
1238.150, 85.14062
1238.632, 34.00000
1239.115, 16.28125
1239.597, 28.53125
1240.079, 103.8750
1240.561, 205.8750
1241.043, 300.4531
1241.525, 209.7969
1242.007, 13.81250
1242.489, 181.0938
1242.971, 187.8125
1243.453, 200.3438
1243.936, 270.0312
1244.418, 329.3906
1244.900, 302.2500
1245.382, 241.5625
1245.864, 370.5000
1246.346, 617.6250
1246.828, 785.6719
1247.310, 750.7969
1247.793, 730.9531
1248.275, 758.9219
1248.757, 793.7031
1249.239, 813.5625
1249.721, 820.4375
1250.203, 820.5781
1250.685, 809.2031
1251.167, 772.5312
1251.650, 699.5938
1252.132, 609.7656
1252.614, 481.6250
1253.096, 408.7188
1253.578, 531.4531
1254.060, 713.6406
1254.542, 689.7344
1255.024, 535.3281
1255.506, 407.9844
1255.989, 350.8750
1256.471, 296.1094
1256.953, 233.4375
1257.435, 212.6875
1257.917, 313.9375
1258.399, 440.8594
1258.881, 451.8906
1259.363, 397.4688
1259.845, 387.0781
1260.328, 465.9531
1260.810, 483.7344
1261.292, 433.1094
1261.774, 378.5938
1262.256, 366.6875
1262.738, 371.3906
1263.220, 331.5938
1263.702, 306.7344
1264.185, 428.5781
1264.667, 769.2969
1265.149, 839.1562
1265.631, 624.1875
1266.113, 431.4375
1266.595, 519.0781
1267.077, 644.2656
1267.559, 655.2344
1268.042, 589.8281
1268.524, 490.3438
1269.006, 351.9531
1269.488, 319.7031
1269.970, 393.4844
1270.452, 502.9375
1270.934, 661.0312
1271.416, 786.2500
1271.898, 800.7656
1272.380, 777.6719
1272.863, 749.7656
1273.345, 686.0156
1273.827, 675.2344
1274.309, 710.9375
1274.791, 708.6562
1275.273, 556.6875
1275.755, 485.3281
1276.237, 596.8906
1276.720, 738.1250
1277.202, 755.2969
1277.684, 690.4688
1278.166, 703.8281
1278.648, 777.5938
1279.130, 827.6250
1279.612, 810.0781
1280.094, 786.0312
1280.577, 763.9375
1281.059, 735.1406
1281.541, 681.4219
1282.023, 620.7812
1282.505, 576.3594
1282.987, 554.6094
1283.469, 577.1719
1283.951, 680.0312
1284.433, 761.7969
1284.916, 819.7656
1285.398, 840.8750
1285.880, 817.6406
1286.362, 749.4375
1286.844, 597.4531
1287.326, 412.7344
1287.808, 308.4531
1288.290, 313.2031
1288.772, 316.6094
1289.255, 320.4688
1289.737, 324.2812
1290.219, 358.5625
1290.701, 356.5156
1291.183, 217.5000
1291.665, 40.25000
1292.147, 26.85938
1292.629, 24.82812
1293.112, 42.76562
1293.594, 25.87500
1294.076, 9.125000
1294.558, 12.62500
1295.040, 4.468750
1295.522, 105.5156
1296.004, 205.1719
1296.486, 160.3438
1296.969, 4.625000
1297.451, 10.17188
1297.933, 84.70312
1298.415, 146.1406
1298.897, 39.84375
1299.379, 1.218750
1299.861, 59.29688
1300.343, 155.2188
1300.825, 231.3281
1301.307, 282.1562
1301.790, 388.1094
1302.272, 518.9375
1302.754, 543.3125
1303.236, 285.7031
1303.718, 172.6875
1304.200, 226.9062
1304.682, 224.6406
1305.164, 0.0000000E+00
##END=



