##NAMES=Stromeyerite
##RRUFFID=R060908
##IDEAL CHEMISTRY=Cu^1+^Ag^1+^S^2-^
##LOCALITY=Cobalt, Ontario, Canada
##OWNER=RRUFF
##SOURCE=Royal Ontario Museum
##DESCRIPTION=Black metallic massive with conchoidal fracture
##STATUS=The identification of this mineral has been confirmed by X-ray diffraction and chemical analysis
##URL=rruff.info/R060908
##MEASURED CHEMISTRY=Cu_1.01_Ag_0.99_S
165.8822, 0.0000000E+00
166.3643, 16.05713
166.8464, 0.1435550
167.3285, 19.82373
167.8106, 39.04053
168.2927, 52.72363
168.7749, 63.48096
169.2570, 74.58594
169.7391, 89.43945
170.2212, 100.8262
170.7033, 103.0317
171.1854, 98.88232
171.6676, 92.95117
172.1497, 88.34912
172.6318, 96.45996
173.1139, 112.5845
173.5960, 113.2427
174.0781, 104.8374
174.5603, 86.66797
175.0424, 56.07031
175.5245, 30.07227
176.0066, 9.335449
176.4887, 4.112305
176.9708, 2.597168
177.4530, 19.06689
177.9351, 42.82324
178.4172, 35.95215
178.8993, 6.502441
179.3814, 39.32227
179.8635, 48.96094
180.3457, 42.67334
180.8278, 29.60010
181.3099, 10.62939
181.7920, 9.339844
182.2741, 20.03467
182.7562, 19.81152
183.2384, 26.73877
183.7205, 54.17920
184.2026, 90.30664
184.6847, 113.6851
185.1668, 116.6045
185.6489, 112.1299
186.1311, 118.7339
186.6132, 136.2603
187.0953, 154.3511
187.5774, 171.1289
188.0595, 186.2349
188.5416, 196.8296
189.0238, 200.0571
189.5059, 205.1475
189.9880, 228.6841
190.4701, 270.6455
190.9522, 308.0195
191.4343, 330.6514
191.9165, 344.6694
192.3986, 361.1650
192.8807, 382.9507
193.3628, 406.5942
193.8449, 427.0317
194.3270, 444.4502
194.8092, 464.5405
195.2913, 492.3813
195.7734, 523.5566
196.2555, 549.4751
196.7376, 567.7856
197.2197, 583.4482
197.7019, 600.0059
198.1840, 617.2764
198.6661, 641.4165
199.1482, 682.5791
199.6303, 730.0322
200.1124, 763.4980
200.5946, 777.1196
201.0767, 785.6484
201.5588, 807.2344
202.0409, 839.7842
202.5230, 868.8921
203.0051, 891.0151
203.4873, 906.9341
203.9694, 915.9771
204.4515, 916.5283
204.9336, 915.9746
205.4157, 921.2124
205.8978, 931.5278
206.3800, 945.8003
206.8621, 967.2036
207.3442, 991.1968
207.8263, 1011.153
208.3084, 1025.982
208.7905, 1038.858
209.2727, 1053.281
209.7548, 1068.626
210.2369, 1080.304
210.7190, 1079.018
211.2011, 1077.272
211.6832, 1093.669
212.1654, 1131.511
212.6475, 1171.301
213.1296, 1194.266
213.6117, 1203.842
214.0938, 1218.576
214.5759, 1245.420
215.0581, 1276.509
215.5402, 1304.155
216.0223, 1327.801
216.5044, 1349.855
216.9865, 1371.749
217.4686, 1393.582
217.9508, 1415.920
218.4329, 1434.784
218.9150, 1456.938
219.3971, 1494.288
219.8792, 1546.665
220.3613, 1590.093
220.8435, 1603.392
221.3256, 1592.898
221.8077, 1594.537
222.2898, 1621.584
222.7719, 1651.674
223.2540, 1668.291
223.7362, 1668.878
224.2183, 1665.268
224.7004, 1660.795
225.1825, 1656.908
225.6646, 1657.394
226.1467, 1659.624
226.6289, 1668.288
227.1110, 1690.359
227.5931, 1722.703
228.0752, 1752.455
228.5573, 1773.582
229.0394, 1786.275
229.5216, 1792.432
230.0037, 1781.378
230.4858, 1777.623
230.9679, 1799.326
231.4500, 1837.846
231.9321, 1868.345
232.4143, 1877.986
232.8964, 1875.159
233.3785, 1884.080
233.8606, 1916.772
234.3427, 1938.561
234.8248, 1928.884
235.3070, 1902.486
235.7891, 1887.580
236.2712, 1895.571
236.7533, 1916.483
237.2354, 1928.540
237.7175, 1927.981
238.1997, 1931.171
238.6818, 1943.410
239.1639, 1960.741
239.6460, 1979.036
240.1281, 1997.463
240.6102, 2012.474
241.0924, 2017.578
241.5745, 2008.230
242.0566, 2000.527
242.5387, 1996.389
243.0208, 1994.184
243.5029, 1992.912
243.9851, 1992.302
244.4672, 1991.461
244.9493, 1989.622
245.4314, 1987.517
245.9135, 1981.292
246.3956, 1970.771
246.8778, 1956.508
247.3599, 1936.000
247.8420, 1910.371
248.3241, 1887.391
248.8062, 1875.157
249.2883, 1876.046
249.7705, 1873.801
250.2526, 1869.852
250.7347, 1861.875
251.2168, 1844.110
251.6989, 1819.816
252.1810, 1799.829
252.6632, 1793.512
253.1453, 1801.101
253.6274, 1805.877
254.1095, 1812.378
254.5916, 1811.746
255.0737, 1799.264
255.5559, 1777.309
256.0380, 1748.921
256.5201, 1714.644
257.0022, 1677.339
257.4843, 1656.062
257.9665, 1670.895
258.4486, 1680.690
258.9307, 1680.580
259.4128, 1671.785
259.8949, 1655.527
260.3770, 1632.187
260.8592, 1603.959
261.3413, 1576.175
261.8234, 1544.285
262.3055, 1520.431
262.7876, 1510.391
263.2697, 1505.643
263.7519, 1498.848
264.2340, 1487.522
264.7161, 1473.264
265.1982, 1459.647
265.6803, 1449.890
266.1624, 1432.656
266.6446, 1400.259
267.1267, 1366.138
267.6088, 1337.664
268.0909, 1316.420
268.5730, 1301.468
269.0551, 1296.955
269.5373, 1308.933
270.0194, 1299.866
270.5015, 1239.048
270.9836, 1180.038
271.4657, 1145.308
271.9478, 1133.774
272.4300, 1132.115
272.9121, 1133.203
273.3942, 1136.523
273.8763, 1132.052
274.3584, 1114.697
274.8405, 1095.524
275.3227, 1080.289
275.8048, 1067.317
276.2869, 1052.110
276.7690, 1028.855
277.2511, 1002.998
277.7332, 993.1187
278.2154, 1008.835
278.6975, 1017.040
279.1796, 995.0908
279.6617, 958.6118
280.1438, 926.9355
280.6259, 903.8862
281.1081, 889.5127
281.5902, 889.8579
282.0723, 907.4136
282.5544, 914.4331
283.0365, 893.6221
283.5186, 861.4648
284.0008, 834.2925
284.4829, 810.6733
284.9650, 794.2500
285.4471, 795.8867
285.9292, 810.4897
286.4113, 809.0132
286.8935, 777.3071
287.3756, 736.7490
287.8577, 714.9448
288.3398, 712.5469
288.8219, 713.9365
289.3040, 722.5312
289.7862, 728.3447
290.2683, 706.3901
290.7504, 646.8481
291.2325, 587.6758
291.7146, 578.1782
292.1967, 618.9385
292.6789, 640.3706
293.1610, 616.0259
293.6431, 580.6191
294.1252, 566.2412
294.6073, 572.8037
295.0894, 582.8931
295.5716, 582.5122
296.0537, 571.3604
296.5358, 558.8677
297.0179, 543.6470
297.5000, 527.5356
297.9821, 509.9238
298.4643, 492.5176
298.9464, 478.4849
299.4285, 468.2368
299.9106, 462.4902
300.3927, 466.5464
300.8748, 494.0000
301.3570, 513.9624
301.8391, 518.9980
302.3212, 516.0015
302.8033, 512.5981
303.2854, 511.7451
303.7675, 513.2427
304.2497, 515.5879
304.7318, 522.1045
305.2139, 521.5771
305.6960, 509.3955
306.1781, 494.8667
306.6602, 483.2061
307.1424, 475.9150
307.6245, 471.9370
308.1066, 471.5146
308.5887, 476.3350
309.0708, 470.8716
309.5529, 437.0928
310.0351, 410.7969
310.5172, 412.3726
310.9993, 432.8618
311.4814, 449.2046
311.9635, 444.4146
312.4456, 422.4170
312.9278, 401.0366
313.4099, 377.5664
313.8920, 360.8960
314.3741, 359.9009
314.8562, 363.8555
315.3383, 358.5205
315.8205, 336.8042
316.3026, 310.4648
316.7847, 299.3564
317.2668, 307.0273
317.7489, 305.4888
318.2310, 278.5576
318.7132, 243.5229
319.1953, 214.2158
319.6774, 191.9546
320.1595, 177.6392
320.6416, 178.5615
321.1237, 189.4375
321.6059, 186.7251
322.0880, 158.4067
322.5701, 130.8481
323.0522, 138.1357
323.5343, 175.0669
324.0164, 201.5791
324.4986, 200.3301
324.9807, 186.0327
325.4628, 174.7124
325.9449, 167.5747
326.4270, 162.4102
326.9091, 158.1450
327.3913, 154.5190
327.8734, 149.3662
328.3555, 139.5498
328.8376, 131.5029
329.3197, 129.0239
329.8018, 130.7612
330.2840, 134.4570
330.7661, 139.9390
331.2482, 144.3027
331.7303, 139.1885
332.2124, 117.3374
332.6945, 96.33887
333.1767, 76.53662
333.6588, 59.06689
334.1409, 43.89697
334.6230, 31.07373
335.1051, 21.34082
335.5872, 16.32227
336.0694, 19.95312
336.5515, 14.49365
337.0336, 11.92969
337.5157, 35.11816
337.9978, 42.87012
338.4799, 37.20703
338.9621, 26.38428
339.4442, 14.11523
339.9263, 2.732422
340.4084, 9.529297
340.8905, 54.75684
341.3727, 87.71680
341.8548, 92.59082
342.3369, 79.90381
342.8190, 59.04688
343.3011, 31.24121
343.7832, 6.784668
344.2654, 4.367676
344.7475, 27.68018
345.2296, 46.91309
345.7117, 55.26074
346.1938, 56.69434
346.6759, 52.07666
347.1581, 41.63477
347.6402, 33.70654
348.1223, 37.14990
348.6044, 47.29590
349.0865, 49.49219
349.5686, 39.82715
350.0508, 28.47852
350.5329, 28.17432
351.0150, 34.89453
351.4971, 30.41553
351.9792, 5.652344
352.4613, 42.04150
352.9435, 47.38330
353.4256, 26.16309
353.9077, 8.308594
354.3898, 12.04297
354.8719, 29.85645
355.3540, 33.66211
355.8362, 12.34131
356.3183, 4.923340
356.8004, 11.68799
357.2825, 10.46973
357.7646, 2.449707
358.2467, 11.64355
358.7289, 27.63477
359.2110, 40.42139
359.6931, 52.34741
360.1752, 52.47168
360.6573, 31.18774
361.1394, 8.747803
361.6216, 4.315430
362.1037, 8.750000
362.5858, 10.62549
363.0679, 14.39746
363.5500, 20.04419
364.0321, 24.90112
364.5143, 32.82886
364.9964, 33.25732
365.4785, 20.17798
365.9606, 0.8776860
366.4427, 18.48755
366.9248, 36.57812
367.4070, 49.16943
367.8891, 46.64868
368.3712, 27.10791
368.8533, 15.25195
369.3354, 21.00488
369.8175, 30.86206
370.2997, 32.64087
370.7818, 27.05273
371.2639, 24.44141
371.7460, 31.25537
372.2281, 44.23071
372.7102, 59.60645
373.1924, 78.25537
373.6745, 91.21948
374.1566, 87.22388
374.6387, 71.82471
375.1208, 68.83228
375.6029, 93.63037
376.0851, 117.0078
376.5672, 121.4348
377.0493, 112.4871
377.5314, 103.6536
378.0135, 100.4070
378.4956, 99.29419
378.9778, 93.29272
379.4599, 75.29785
379.9420, 66.13696
380.4241, 74.88647
380.9062, 86.37256
381.3883, 88.32178
381.8705, 80.42627
382.3526, 70.07690
382.8347, 63.38208
383.3168, 60.19189
383.7989, 60.69067
384.2810, 70.80420
384.7632, 78.44946
385.2453, 79.12207
385.7274, 76.41406
386.2095, 75.19775
386.6916, 77.48193
387.1737, 81.54614
387.6559, 84.74365
388.1380, 86.98096
388.6201, 89.60278
389.1022, 97.59033
389.5843, 101.9514
390.0664, 91.19775
390.5486, 66.64990
391.0307, 49.58154
391.5128, 59.00586
391.9949, 83.33301
392.4770, 96.35132
392.9591, 94.81860
393.4413, 92.42090
393.9234, 100.9824
394.4055, 115.8137
394.8876, 119.4841
395.3697, 100.1018
395.8518, 80.51929
396.3340, 70.83374
396.8161, 70.43115
397.2982, 80.47363
397.7803, 102.2654
398.2624, 125.6887
398.7445, 132.1492
399.2267, 110.1873
399.7088, 99.15869
400.1909, 113.9023
400.6730, 128.9099
401.1551, 124.9526
401.6372, 104.4990
402.1194, 82.50073
402.6015, 69.70776
403.0836, 65.16162
403.5657, 62.45850
404.0478, 64.16211
404.5299, 65.46411
405.0121, 65.65723
405.4942, 65.21655
405.9763, 65.39429
406.4584, 66.42505
406.9405, 63.93262
407.4226, 47.83325
407.9048, 18.87256
408.3869, 5.986084
408.8690, 20.83203
409.3511, 41.52246
409.8332, 53.57617
410.3153, 56.83032
410.7975, 55.91577
411.2796, 48.59058
411.7617, 40.01587
412.2438, 35.16260
412.7259, 34.33545
413.2080, 40.29297
413.6902, 57.00757
414.1723, 77.76636
414.6544, 85.01709
415.1365, 73.06055
415.6186, 62.78027
416.1007, 54.82886
416.5829, 52.25854
417.0650, 60.67139
417.5471, 79.75220
418.0292, 101.3474
418.5113, 118.6733
418.9934, 131.7332
419.4756, 127.9534
419.9577, 78.91211
420.4398, 45.03540
420.9219, 56.30176
421.4040, 87.62988
421.8861, 99.30835
422.3683, 72.94458
422.8504, 35.34668
423.3325, 35.58301
423.8146, 81.41675
424.2967, 114.0181
424.7788, 116.8335
425.2610, 108.1033
425.7431, 98.29492
426.2252, 87.59961
426.7073, 78.72852
427.1894, 75.07056
427.6715, 74.25122
428.1537, 70.75049
428.6358, 64.11279
429.1179, 63.04565
429.6000, 76.89600
430.0821, 98.14648
430.5642, 102.3044
431.0464, 77.60742
431.5285, 56.77881
432.0106, 51.81421
432.4927, 53.84448
432.9748, 51.73267
433.4569, 43.81250
433.9391, 36.47314
434.4212, 36.87305
434.9033, 45.79517
435.3854, 54.08887
435.8675, 65.15625
436.3496, 71.87500
436.8318, 71.69092
437.3139, 65.78589
437.7960, 54.84790
438.2781, 39.05640
438.7602, 23.59351
439.2423, 14.64844
439.7245, 11.26855
440.2066, 21.85840
440.6887, 62.41626
441.1708, 102.4731
441.6529, 119.1089
442.1350, 114.9788
442.6172, 105.2278
443.0993, 87.83789
443.5814, 72.61621
444.0635, 77.02051
444.5456, 99.83008
445.0277, 118.6816
445.5099, 122.9387
445.9920, 114.8955
446.4741, 98.49927
446.9562, 61.58887
447.4383, 40.58716
447.9204, 51.42480
448.4026, 74.00317
448.8847, 93.54126
449.3668, 106.7988
449.8489, 110.5657
450.3310, 99.13501
450.8131, 73.19604
451.2953, 59.72119
451.7774, 62.64062
452.2595, 74.83643
452.7416, 109.2585
453.2237, 144.4131
453.7059, 152.6631
454.1880, 125.4106
454.6701, 91.58447
455.1522, 88.98389
455.6343, 113.7278
456.1165, 116.6167
456.5986, 80.91479
457.0807, 41.95557
457.5628, 29.57910
458.0449, 37.00073
458.5270, 45.53491
459.0092, 50.73120
459.4913, 56.11060
459.9734, 66.94507
460.4555, 80.11255
460.9376, 86.58545
461.4197, 82.60352
461.9019, 72.51660
462.3840, 63.08032
462.8661, 53.70508
463.3482, 46.74609
463.8303, 42.73511
464.3124, 40.56592
464.7946, 40.15527
465.2767, 40.92822
465.7588, 41.99097
466.2409, 43.83252
466.7230, 46.15283
467.2051, 44.40747
467.6873, 35.92407
468.1694, 30.43311
468.6515, 26.12085
469.1336, 28.79565
469.6157, 48.21704
470.0978, 82.95801
470.5800, 111.3513
471.0621, 121.5884
471.5442, 118.3589
472.0263, 106.1543
472.5084, 85.14917
472.9905, 63.93994
473.4727, 46.63501
473.9548, 33.30225
474.4369, 24.62622
474.9190, 19.08936
475.4011, 20.01538
475.8832, 31.97876
476.3654, 47.98047
476.8475, 65.92310
477.3296, 82.78564
477.8117, 88.23071
478.2938, 70.33521
478.7759, 31.87231
479.2581, 9.057129
479.7402, 11.13794
480.2223, 15.13037
480.7044, 18.30981
481.1865, 19.13672
481.6686, 13.89209
482.1508, 1.562988
482.6329, 8.303467
483.1150, 4.893555
483.5971, 7.995361
484.0792, 16.06812
484.5613, 16.77783
485.0435, 18.09033
485.5256, 29.06836
486.0077, 45.49487
486.4898, 48.82251
486.9719, 21.37817
487.4540, 1.387451
487.9362, 8.692139
488.4183, 30.47681
488.9004, 50.26270
489.3825, 63.58936
489.8646, 71.15405
490.3467, 74.24805
490.8289, 72.44092
491.3110, 70.27246
491.7931, 65.75635
492.2752, 63.09717
492.7573, 64.02197
493.2394, 67.23535
493.7216, 72.73560
494.2037, 81.04248
494.6858, 85.05859
495.1679, 73.49219
495.6500, 48.72754
496.1321, 29.00366
496.6143, 16.32129
497.0964, 9.966309
497.5785, 12.42407
498.0606, 21.85962
498.5427, 29.25732
499.0248, 32.47021
499.5070, 34.46997
499.9891, 36.20361
500.4712, 37.74487
500.9533, 40.51562
501.4354, 44.70215
501.9175, 45.62354
502.3997, 35.08496
502.8818, 8.212646
503.3639, 1.582764
503.8460, 29.07373
504.3281, 52.07910
504.8102, 44.58960
505.2924, 23.39966
505.7745, 15.67920
506.2566, 32.79956
506.7387, 54.21851
507.2208, 52.08228
507.7029, 29.55762
508.1851, 16.53198
508.6672, 19.87109
509.1493, 27.70898
509.6314, 30.12280
510.1135, 28.37744
510.5956, 29.20117
511.0778, 36.32397
511.5599, 43.47583
512.0420, 48.40894
512.5241, 50.74072
513.0062, 47.06885
513.4883, 36.16553
513.9705, 26.57642
514.4526, 32.37622
514.9347, 57.34717
515.4168, 71.50610
515.8989, 62.90869
516.3810, 56.68115
516.8632, 63.78687
517.3453, 76.35693
517.8274, 83.29590
518.3095, 78.12329
518.7916, 68.72778
519.2737, 58.52930
519.7559, 49.08643
520.2380, 51.17725
520.7201, 70.35010
521.2022, 84.86377
521.6843, 72.19141
522.1664, 37.26440
522.6486, 20.87378
523.1307, 41.03394
523.6128, 59.14087
524.0949, 55.70459
524.5770, 43.87207
525.0591, 40.42993
525.5413, 49.02954
526.0234, 62.42017
526.5055, 73.83618
526.9876, 83.24146
527.4697, 89.27124
527.9518, 95.64697
528.4340, 92.27856
528.9161, 64.42480
529.3982, 32.20166
529.8803, 21.11841
530.3624, 37.79102
530.8445, 55.70312
531.3267, 54.89014
531.8088, 42.14062
532.2909, 29.78247
532.7730, 18.97339
533.2551, 15.23999
533.7372, 25.64648
534.2194, 44.95972
534.7015, 48.35181
535.1836, 14.77271
535.6657, 5.309082
536.1478, 2.164307
536.6299, 19.01733
537.1121, 31.83594
537.5942, 38.55762
538.0763, 42.21338
538.5584, 45.24487
539.0405, 46.97559
539.5226, 42.92676
540.0048, 29.42065
540.4869, 23.80566
540.9690, 36.87744
541.4511, 57.80176
541.9332, 79.70483
542.4153, 102.6162
542.8975, 111.1553
543.3796, 85.95020
543.8617, 53.90918
544.3438, 45.37842
544.8259, 55.38623
545.3080, 56.77979
545.7902, 35.40430
546.2723, 4.008301
546.7544, 10.34814
547.2365, 1.683105
547.7186, 9.662109
548.2007, 9.395020
548.6829, 9.600586
549.1650, 15.62012
549.6471, 25.14062
550.1292, 32.64209
550.6113, 35.19971
551.0934, 35.97217
551.5756, 40.91699
552.0577, 48.84033
552.5398, 48.77148
553.0219, 35.53174
553.5040, 22.56104
553.9861, 24.37451
554.4683, 40.72021
554.9504, 48.08154
555.4325, 33.77051
555.9146, 24.98828
556.3967, 41.06787
556.8788, 64.59033
557.3610, 69.44824
557.8431, 50.62646
558.3252, 29.19727
558.8073, 30.21826
559.2894, 52.07666
559.7715, 59.81934
560.2537, 45.29541
560.7358, 32.85938
561.2179, 36.37598
561.7000, 45.10498
562.1821, 45.84521
562.6642, 35.54053
563.1464, 30.03174
563.6285, 43.30908
564.1106, 62.40332
564.5927, 71.74219
565.0748, 70.52197
565.5569, 61.56982
566.0391, 45.43115
566.5212, 25.80762
567.0033, 12.97070
567.4854, 12.94678
567.9675, 8.355469
568.4496, 4.812988
568.9318, 18.50635
569.4139, 32.05176
569.8960, 42.45215
570.3781, 42.66553
570.8602, 26.46973
571.3423, 4.549316
571.8245, 7.003906
572.3066, 10.59717
572.7887, 26.55664
573.2708, 65.22412
573.7529, 94.56543
574.2350, 72.00195
574.7172, 2.390625
575.1993, 20.70703
575.6814, 82.50342
576.1635, 160.4409
576.6456, 150.7002
577.1277, 100.7710
577.6099, 63.31445
578.0920, 51.58398
578.5741, 51.26221
579.0562, 52.00146
579.5383, 52.32959
580.0204, 40.31299
580.5026, 9.249512
580.9847, 9.943359
581.4668, 2.273438
581.9489, 27.58252
582.4310, 39.95215
582.9131, 37.96143
583.3953, 33.54346
583.8774, 26.84082
584.3595, 21.62646
584.8416, 22.67285
585.3237, 27.96533
585.8058, 30.43408
586.2880, 26.50635
586.7701, 22.08398
587.2522, 31.04150
587.7343, 60.62939
588.2164, 71.39697
588.6985, 47.40869
589.1807, 22.55273
589.6628, 13.01855
590.1449, 13.11768
590.6270, 12.59619
591.1091, 8.028320
591.5912, 5.119141
592.0734, 9.094727
592.5555, 16.92725
593.0376, 24.53271
593.5197, 31.04785
594.0018, 34.20703
594.4839, 31.49219
594.9661, 24.24756
595.4482, 19.52539
595.9303, 20.68262
596.4124, 18.70312
596.8945, 2.711426
597.3766, 7.720703
597.8588, 7.213379
598.3409, 40.51709
598.8230, 64.93359
599.3051, 63.17920
599.7872, 50.29004
600.2693, 44.54932
600.7515, 44.58936
601.2336, 42.98779
601.7157, 37.15820
602.1978, 31.07910
602.6799, 29.68018
603.1620, 33.36768
603.6442, 31.63330
604.1263, 13.33545
604.6084, 4.133301
605.0905, 15.68213
605.5726, 34.61572
606.0547, 50.03711
606.5369, 59.35205
607.0190, 64.35400
607.5011, 64.75684
607.9832, 62.04248
608.4653, 60.97705
608.9474, 61.73877
609.4296, 56.33203
609.9117, 37.56738
610.3938, 18.24707
610.8759, 18.89258
611.3580, 45.16260
611.8401, 62.73975
612.3223, 72.16895
612.8044, 71.44336
613.2865, 51.29199
613.7686, 23.40869
614.2507, 4.188477
614.7328, 1.245605
615.2150, 2.110352
615.6971, 12.22119
616.1792, 27.39355
616.6613, 35.34131
617.1434, 34.19873
617.6255, 33.45459
618.1077, 36.64014
618.5898, 43.51221
619.0719, 54.78467
619.5540, 72.91211
620.0361, 86.15234
620.5182, 96.83594
621.0004, 98.16357
621.4825, 76.04932
621.9646, 42.11133
622.4467, 21.71631
622.9288, 25.84180
623.4109, 40.84326
623.8931, 45.91309
624.3752, 41.10693
624.8573, 45.86377
625.3394, 64.94873
625.8215, 84.83105
626.3036, 102.6724
626.7858, 113.2021
627.2679, 105.8608
627.7500, 71.71582
628.2321, 43.65674
628.7142, 33.02930
629.1964, 31.73584
629.6785, 34.42822
630.1606, 38.80176
630.6427, 41.68164
631.1248, 41.46191
631.6069, 40.34082
632.0891, 41.70898
632.5712, 46.78076
633.0533, 39.57178
633.5354, 12.64990
634.0175, 9.633789
634.4996, 5.444336
634.9818, 14.68359
635.4639, 25.93457
635.9460, 21.00732
636.4281, 18.69434
636.9102, 26.32861
637.3923, 38.56787
637.8745, 53.69434
638.3566, 68.39453
638.8387, 73.95264
639.3208, 65.86182
639.8029, 50.47754
640.2850, 41.90820
640.7672, 40.75342
641.2493, 40.01025
641.7314, 38.88672
642.2135, 38.52441
642.6956, 42.17529
643.1777, 46.73193
643.6599, 42.01562
644.1420, 16.07910
644.6241, 0.8642580
645.1062, 17.07227
645.5883, 42.59277
646.0704, 57.55664
646.5526, 60.35889
647.0347, 54.72363
647.5168, 42.02100
647.9989, 28.52881
648.4810, 26.81641
648.9631, 39.12451
649.4453, 46.09375
649.9274, 44.42871
650.4095, 38.78418
650.8916, 28.55957
651.3737, 16.96631
651.8558, 14.77588
652.3380, 30.26025
652.8201, 42.33496
653.3022, 41.43408
653.7843, 36.65625
654.2664, 36.05957
654.7485, 39.67920
655.2307, 43.77490
655.7128, 47.65820
656.1949, 50.47656
656.6770, 52.59082
657.1591, 54.11279
657.6412, 45.60693
658.1234, 19.53906
658.6055, 1.514648
659.0876, 2.604004
659.5697, 24.74902
660.0518, 35.21436
660.5339, 29.17920
661.0161, 20.02881
661.4982, 3.861328
661.9803, 9.143555
662.4624, 6.413086
662.9445, 7.325684
663.4266, 15.89111
663.9088, 9.901367
664.3909, 0.7866210
664.8730, 1.142090
665.3551, 14.20264
665.8372, 21.55713
666.3193, 20.51562
666.8015, 16.31104
667.2836, 10.78662
667.7657, 5.102539
668.2478, 4.373047
668.7299, 12.79150
669.2120, 19.22217
669.6942, 21.58643
670.1763, 22.57666
670.6584, 22.33301
671.1405, 22.44727
671.6226, 28.07764
672.1047, 40.09131
672.5869, 49.30469
673.0690, 49.43408
673.5511, 42.67871
674.0332, 35.20654
674.5153, 27.32715
674.9974, 23.23730
675.4796, 26.11719
675.9617, 33.95947
676.4438, 41.66602
676.9259, 49.70068
677.4080, 56.64795
677.8901, 67.93896
678.3723, 72.59229
678.8544, 55.64502
679.3365, 31.87939
679.8186, 28.35596
680.3007, 54.97314
680.7828, 82.66064
681.2650, 90.42920
681.7471, 82.85840
682.2292, 61.81738
682.7113, 30.41211
683.1934, 6.583008
683.6755, 0.8686520
684.1577, 3.192871
684.6398, 10.89258
685.1219, 23.07227
685.6040, 35.70508
686.0861, 52.82812
686.5682, 64.53711
687.0504, 70.28174
687.5325, 68.21826
688.0146, 50.84814
688.4967, 12.51318
688.9788, 8.959473
689.4609, 24.34180
689.9431, 68.83301
690.4252, 81.98779
690.9073, 71.03906
691.3894, 56.17529
691.8715, 44.27637
692.3536, 41.31348
692.8358, 59.52539
693.3179, 96.01172
693.8000, 97.47217
694.2821, 46.22412
694.7642, 11.87695
695.2463, 28.10693
695.7285, 61.50586
696.2106, 74.05615
696.6927, 66.43408
697.1748, 56.67822
697.6569, 47.58887
698.1390, 36.97217
698.6212, 17.68115
699.1033, 0.5947270
699.5854, 4.020020
700.0675, 8.439453
700.5496, 26.80811
701.0317, 46.72559
701.5139, 63.28857
701.9960, 58.88086
702.4781, 34.40918
702.9602, 28.47266
703.4423, 56.18750
703.9244, 81.33105
704.4066, 66.86865
704.8887, 17.95068
705.3708, 8.444336
705.8529, 4.661621
706.3350, 16.59717
706.8171, 23.54980
707.2993, 28.23682
707.7814, 32.93311
708.2635, 37.24414
708.7456, 39.05371
709.2277, 37.04590
709.7098, 33.49658
710.1920, 30.86328
710.6741, 28.27197
711.1562, 21.28516
711.6383, 10.65967
712.1204, 8.093750
712.6025, 22.50488
713.0847, 44.94385
713.5668, 52.43555
714.0489, 40.09570
714.5310, 29.12012
715.0131, 16.67188
715.4952, 10.13672
715.9774, 14.52246
716.4595, 25.85889
716.9416, 41.55615
717.4237, 64.30225
717.9058, 76.00293
718.3879, 60.66309
718.8701, 40.31543
719.3522, 26.71729
719.8343, 22.77979
720.3164, 39.07373
720.7985, 77.32520
721.2806, 112.2261
721.7628, 110.8408
722.2449, 81.52588
722.7270, 68.57764
723.2091, 74.11377
723.6912, 69.12256
724.1733, 36.30127
724.6555, 4.814941
725.1376, 16.16357
725.6197, 75.18164
726.1018, 104.6743
726.5839, 87.38574
727.0660, 65.79004
727.5482, 46.40430
728.0303, 28.01660
728.5124, 2.053711
728.9945, 25.78271
729.4766, 30.75439
729.9587, 14.61523
730.4409, 64.68896
730.9230, 64.41992
731.4051, 36.28760
731.8872, 33.48535
732.3693, 61.67822
732.8514, 85.57910
733.3336, 79.01172
733.8157, 56.00195
734.2978, 60.10400
734.7799, 103.2646
735.2620, 118.4551
735.7441, 84.51611
736.2263, 47.81055
736.7084, 35.57861
737.1905, 37.76025
737.6726, 36.25195
738.1547, 29.39014
738.6368, 21.99365
739.1190, 10.63818
739.6011, 3.547363
740.0832, 5.280762
740.5653, 15.50977
741.0474, 39.66650
741.5295, 77.38818
742.0117, 103.2461
742.4938, 79.22803
742.9759, 29.64844
743.4580, 21.65137
743.9401, 50.78564
744.4222, 56.48096
744.9044, 14.71777
745.3865, 28.22070
745.8686, 17.06934
746.3507, 45.61230
746.8328, 84.30713
747.3149, 94.01123
747.7971, 90.60645
748.2792, 56.04395
748.7613, 27.16943
749.2434, 39.07227
749.7255, 78.98779
750.2076, 98.93359
750.6898, 77.09961
751.1719, 49.64795
751.6540, 26.46436
752.1361, 12.43896
752.6182, 15.44678
753.1003, 33.07471
753.5825, 58.85059
754.0646, 90.38477
754.5467, 115.1675
755.0288, 108.6436
755.5109, 76.59863
755.9930, 55.85400
756.4752, 48.86865
756.9573, 47.11328
757.4394, 47.48242
757.9215, 50.66162
758.4036, 58.02490
758.8857, 72.78320
759.3679, 74.57812
759.8500, 40.04736
760.3321, 21.36719
760.8142, 47.89209
761.2963, 82.85547
761.7784, 90.83350
762.2606, 71.22217
762.7427, 48.60205
763.2248, 23.56055
763.7069, 8.792969
764.1890, 16.00488
764.6711, 35.45801
765.1533, 58.19678
765.6354, 79.41650
766.1175, 88.15381
766.5996, 76.08838
767.0817, 53.09912
767.5638, 33.84229
768.0460, 16.62109
768.5281, 5.640625
769.0102, 0.8388670
769.4923, 12.87109
769.9744, 56.41064
770.4565, 109.2446
770.9387, 122.1123
771.4208, 76.97510
771.9029, 48.76270
772.3850, 44.85449
772.8671, 48.85205
773.3492, 61.36816
773.8314, 76.13965
774.3135, 88.54590
774.7956, 97.49316
775.2777, 98.73682
775.7598, 85.43018
776.2419, 68.93311
776.7241, 48.70898
777.2062, 34.54297
777.6883, 54.02100
778.1704, 101.7202
778.6525, 126.0137
779.1346, 83.72754
779.6168, 17.53857
780.0989, 23.59473
780.5810, 92.99121
781.0631, 124.4155
781.5452, 102.1660
782.0273, 68.73730
782.5095, 45.65137
782.9916, 33.41504
783.4737, 34.00586
783.9558, 52.45215
784.4379, 67.50049
784.9200, 80.56104
785.4022, 88.24756
785.8843, 84.47461
786.3664, 77.39893
786.8485, 77.47021
787.3306, 86.49902
787.8127, 90.92969
788.2949, 76.77002
788.7770, 62.16016
789.2591, 52.28662
789.7412, 51.02246
790.2233, 73.28955
790.7054, 112.9087
791.1876, 137.7124
791.6697, 124.4805
792.1518, 94.99854
792.6339, 83.75146
793.1160, 85.36035
793.5981, 73.93848
794.0803, 46.97217
794.5624, 30.74219
795.0445, 41.36328
795.5266, 65.80273
796.0087, 79.39893
796.4908, 80.68896
796.9730, 80.52197
797.4551, 81.80566
797.9372, 75.66992
798.4193, 53.97510
798.9014, 27.47461
799.3835, 5.403320
799.8657, 12.25000
800.3478, 18.89258
800.8299, 5.138672
801.3120, 8.766113
801.7941, 13.01904
802.2762, 16.81885
802.7584, 35.00537
803.2405, 59.01465
803.7226, 66.35547
804.2047, 40.92773
804.6868, 14.94531
805.1689, 28.44678
805.6511, 58.57227
806.1332, 63.74463
806.6153, 45.74512
807.0974, 26.81299
807.5795, 16.47168
808.0616, 17.68652
808.5438, 39.88867
809.0259, 78.99658
809.5080, 93.47461
809.9901, 79.47070
810.4722, 65.42139
810.9543, 57.71777
811.4365, 56.89941
811.9186, 65.10986
812.4007, 79.93359
812.8828, 88.00098
813.3649, 84.06348
813.8470, 81.52539
814.3292, 87.50049
814.8113, 88.62793
815.2934, 71.46777
815.7755, 46.16016
816.2576, 31.91748
816.7397, 33.45020
817.2219, 39.93896
817.7040, 53.04199
818.1861, 63.54053
818.6682, 63.44629
819.1503, 56.17725
819.6324, 45.91357
820.1146, 34.81885
820.5967, 27.43115
821.0788, 28.22900
821.5609, 33.80469
822.0430, 42.14697
822.5251, 50.67529
823.0073, 47.32666
823.4894, 30.46436
823.9716, 9.110352
824.4537, 12.97461
824.9358, 27.54736
825.4179, 9.191406
825.9000, 50.26709
826.3821, 77.54980
826.8643, 58.04932
827.3464, 43.16406
827.8285, 59.34619
828.3106, 84.45605
828.7927, 85.99951
829.2748, 60.74902
829.7570, 46.73242
830.2391, 50.51904
830.7212, 56.72070
831.2033, 68.56836
831.6854, 76.76318
832.1675, 71.05273
832.6497, 55.52490
833.1318, 42.72998
833.6139, 35.14941
834.0960, 34.03955
834.5781, 44.64990
835.0602, 58.77979
835.5424, 70.68848
836.0245, 77.75684
836.5066, 71.39941
836.9887, 50.45312
837.4708, 32.86084
837.9529, 42.21436
838.4351, 62.01416
838.9172, 56.59131
839.3993, 32.19971
839.8814, 13.85156
840.3635, 6.956055
840.8456, 7.127930
841.3278, 12.33789
841.8099, 19.17139
842.2920, 16.23145
842.7741, 1.889160
843.2562, 3.188477
843.7383, 4.720215
844.2205, 17.99072
844.7026, 38.24707
845.1847, 54.94678
845.6668, 47.90674
846.1489, 10.71924
846.6310, 3.324707
847.1132, 29.45605
847.5953, 53.59961
848.0774, 53.93652
848.5595, 47.87354
849.0416, 45.38672
849.5237, 47.81348
850.0059, 58.17041
850.4880, 84.57812
850.9701, 101.8472
851.4522, 97.92090
851.9343, 84.40576
852.4164, 65.84229
852.8986, 45.95654
853.3807, 27.38428
853.8628, 11.45215
854.3449, 5.341797
854.8270, 26.63184
855.3091, 51.02637
855.7913, 42.26416
856.2734, 14.55176
856.7555, 1.366211
857.2376, 0.6953130
857.7197, 5.582520
858.2018, 11.42676
858.6840, 19.32959
859.1661, 35.30615
859.6482, 56.13916
860.1303, 57.09961
860.6124, 35.84961
861.0945, 24.42578
861.5767, 38.04639
862.0588, 56.59814
862.5409, 52.99512
863.0230, 29.80273
863.5051, 24.15088
863.9872, 43.50635
864.4694, 52.11084
864.9515, 39.32666
865.4336, 24.56885
865.9157, 20.66699
866.3978, 25.46143
866.8799, 33.53418
867.3621, 52.58301
867.8442, 55.40430
868.3263, 22.41211
868.8084, 4.729492
869.2905, 10.29834
869.7726, 1.484863
870.2548, 18.21143
870.7369, 46.08447
871.2190, 66.56250
871.7011, 74.49512
872.1832, 73.74805
872.6653, 57.55273
873.1475, 40.29248
873.6296, 36.29150
874.1117, 43.56250
874.5938, 55.58447
875.0759, 70.11865
875.5580, 79.81006
876.0402, 73.47559
876.5223, 61.87939
877.0044, 58.52734
877.4865, 62.45361
877.9686, 74.16748
878.4507, 91.43555
878.9329, 98.88965
879.4150, 82.54492
879.8971, 56.27832
880.3792, 48.06348
880.8613, 55.14307
881.3434, 63.92285
881.8256, 73.03369
882.3077, 71.89014
882.7898, 54.43994
883.2719, 34.27344
883.7540, 27.68066
884.2361, 33.23047
884.7183, 36.71973
885.2004, 39.06885
885.6825, 33.25537
886.1646, 10.25586
886.6467, 3.568848
887.1288, 18.36719
887.6110, 61.28711
888.0931, 76.66650
888.5752, 49.45752
889.0573, 31.60059
889.5394, 22.60791
890.0215, 23.65479
890.5037, 50.94238
890.9858, 76.94141
891.4679, 63.60010
891.9500, 14.66846
892.4321, 10.10449
892.9142, 17.92871
893.3964, 42.58008
893.8785, 49.77734
894.3606, 49.60889
894.8427, 48.42529
895.3248, 45.94336
895.8069, 38.24805
896.2891, 23.79395
896.7712, 15.50586
897.2533, 26.29492
897.7354, 38.56787
898.2175, 41.68848
898.6996, 37.02686
899.1818, 20.73877
899.6639, 1.797852
900.1460, 9.969238
900.6281, 9.933105
901.1102, 33.53467
901.5923, 34.05566
902.0745, 24.36816
902.5566, 24.48291
903.0387, 33.86426
903.5208, 46.83154
904.0029, 59.72607
904.4850, 68.51758
904.9672, 69.40430
905.4493, 64.31348
905.9314, 56.94092
906.4135, 47.33545
906.8956, 31.06445
907.3777, 9.049805
907.8599, 7.824219
908.3420, 43.26953
908.8241, 89.16113
909.3062, 104.1748
909.7883, 90.42676
910.2704, 76.08838
910.7526, 60.02490
911.2347, 57.22949
911.7168, 74.15918
912.1989, 93.44238
912.6810, 101.7671
913.1631, 101.0283
913.6453, 97.81592
914.1274, 94.47168
914.6095, 77.92285
915.0916, 38.27246
915.5737, 8.699707
916.0558, 4.295410
916.5380, 11.42090
917.0201, 16.19092
917.5022, 18.78418
917.9843, 20.09717
918.4664, 21.87500
918.9485, 19.49023
919.4307, 10.06055
919.9128, 0.4438480
920.3949, 16.07422
920.8770, 28.18604
921.3591, 18.55957
921.8412, 17.38086
922.3234, 38.91016
922.8055, 30.85352
923.2876, 20.97559
923.7697, 6.985840
924.2518, 1.929199
924.7339, 26.12158
925.2161, 65.81494
925.6982, 82.57178
926.1803, 60.37061
926.6624, 45.67969
927.1445, 67.56836
927.6266, 92.05664
928.1088, 96.17725
928.5909, 89.80762
929.0730, 89.38086
929.5551, 93.81299
930.0372, 86.05908
930.5193, 51.65723
931.0015, 20.35742
931.4836, 11.48828
931.9657, 21.92334
932.4478, 66.73242
932.9299, 122.7544
933.4120, 138.6216
933.8942, 107.5317
934.3763, 73.96484
934.8584, 75.78027
935.3405, 89.59033
935.8226, 88.37842
936.3047, 78.59912
936.7869, 69.72119
937.2690, 63.84521
937.7511, 65.01611
938.2332, 74.71436
938.7153, 80.84863
939.1974, 64.79102
939.6796, 40.03516
940.1617, 37.21973
940.6438, 51.84863
941.1259, 68.43164
941.6080, 82.99609
942.0901, 88.62109
942.5723, 80.56445
943.0544, 67.27441
943.5365, 61.25000
944.0186, 61.57422
944.5007, 65.02051
944.9828, 71.71387
945.4650, 77.69824
945.9471, 81.91895
946.4292, 79.10938
946.9113, 63.22949
947.3934, 43.13867
947.8755, 43.68066
948.3577, 64.74512
948.8398, 78.47070
949.3219, 84.09961
949.8040, 73.15625
950.2861, 37.61230
950.7682, 9.439453
951.2504, 23.69824
951.7325, 67.33398
952.2146, 79.15137
952.6967, 52.77539
953.1788, 35.24512
953.6609, 30.93945
954.1431, 31.53711
954.6252, 32.59375
955.1073, 39.86035
955.5894, 64.42676
956.0715, 103.8096
956.5536, 116.0938
957.0358, 90.58301
957.5179, 72.30566
958.0000, 70.22949
958.4821, 69.22754
958.9642, 60.26367
959.4464, 45.30566
959.9285, 25.11523
960.4106, 2.707031
960.8927, 6.718750
961.3748, 32.40234
961.8569, 56.74121
962.3391, 45.44629
962.8212, 31.39160
963.3033, 37.75781
963.7854, 56.07324
964.2675, 68.14062
964.7496, 73.45605
965.2318, 67.23730
965.7139, 32.28320
966.1960, 10.69922
966.6781, 11.32812
967.1602, 27.95312
967.6423, 73.44922
968.1245, 130.4404
968.6066, 143.4805
969.0887, 86.75879
969.5708, 54.78223
970.0529, 65.72852
970.5350, 79.96387
971.0172, 95.49121
971.4993, 101.1855
971.9814, 74.40723
972.4635, 27.03418
972.9456, 11.21680
973.4277, 51.57227
973.9099, 81.35645
974.3920, 86.97559
974.8741, 85.90625
975.3562, 80.14258
975.8383, 75.03223
976.3204, 77.96387
976.8026, 87.26660
977.2847, 91.81836
977.7668, 86.25293
978.2489, 80.78125
978.7310, 89.09570
979.2131, 87.41992
979.6953, 44.36426
980.1774, 5.777344
980.6595, 13.89551
981.1416, 19.64453
981.6237, 49.71484
982.1058, 70.80762
982.5880, 77.69922
983.0701, 54.03223
983.5522, 31.39551
984.0343, 32.97168
984.5164, 47.55273
984.9985, 60.80371
985.4807, 69.89355
985.9628, 68.52832
986.4449, 47.18359
986.9270, 24.94922
987.4091, 1.331055
987.8912, 15.99121
988.3734, 2.708984
988.8555, 36.64062
989.3376, 58.79590
989.8197, 63.76660
990.3018, 53.22168
990.7839, 2.359375
991.2661, 31.30078
991.7482, 6.856445
992.2303, 30.52246
992.7124, 47.12793
993.1945, 46.88965
993.6766, 39.97559
994.1588, 28.97754
994.6409, 25.17480
995.1230, 48.66504
995.6051, 61.05469
996.0872, 25.53809
996.5693, 14.00391
997.0515, 15.33301
997.5336, 9.013672
998.0157, 30.40234
998.4978, 42.10938
998.9799, 44.71777
999.4620, 25.48340
999.9442, 13.35156
1000.426, 31.83105
1000.908, 56.51953
1001.391, 63.43750
1001.873, 58.58203
1002.355, 61.95215
1002.837, 78.81152
1003.319, 83.02637
1003.801, 39.99902
1004.283, 9.416016
1004.765, 40.57227
1005.247, 84.67285
1005.730, 97.03516
1006.212, 83.23047
1006.694, 59.40820
1007.176, 29.80469
1007.658, 22.69824
1008.140, 75.63379
1008.622, 125.2139
1009.104, 140.5400
1009.586, 134.3330
1010.069, 105.9717
1010.551, 69.42578
1011.033, 54.99316
1011.515, 71.17676
1011.997, 79.04297
1012.479, 42.01367
1012.961, 17.28809
1013.443, 49.83789
1013.926, 94.48047
1014.408, 111.4785
1014.890, 105.2305
1015.372, 88.96387
1015.854, 64.17188
1016.336, 58.49023
1016.818, 111.0293
1017.300, 148.9004
1017.782, 126.4521
1018.265, 84.35352
1018.747, 49.04883
1019.229, 27.74316
1019.711, 32.06641
1020.193, 67.10254
1020.675, 82.28906
1021.157, 25.10059
1021.639, 8.100586
1022.122, 60.68262
1022.604, 134.4375
1023.086, 122.1738
1023.568, 57.55957
1024.050, 17.00879
1024.532, 14.50781
1025.014, 19.86914
1025.496, 38.56934
1025.978, 45.81543
1026.461, 8.278320
1026.943, 19.84668
1027.425, 25.33789
1027.907, 99.97363
1028.389, 111.3516
1028.871, 42.62988
1029.353, 2.935547
1029.835, 36.59863
1030.318, 69.27441
1030.800, 92.44922
1031.282, 98.45410
1031.764, 67.25195
1032.246, 22.21191
1032.728, 1.386719
1033.210, 8.162109
1033.692, 26.70312
1034.174, 65.39746
1034.656, 101.6680
1035.139, 144.8516
1035.621, 169.9111
1036.103, 153.2021
1036.585, 114.4170
1037.067, 79.09570
1037.549, 47.62988
1038.031, 28.75195
1038.513, 25.10938
1038.996, 32.78613
1039.478, 64.68652
1039.960, 89.28223
1040.442, 88.63672
1040.924, 75.42480
1041.406, 66.24121
1041.888, 60.63184
1042.370, 47.48047
1042.853, 9.837891
1043.335, 0.3203130
1043.817, 42.89844
1044.299, 78.15137
1044.781, 80.67578
1045.263, 63.91895
1045.745, 33.78711
1046.227, 1.485352
1046.709, 12.16113
1047.192, 106.5635
1047.674, 152.3936
1048.156, 129.5898
1048.638, 93.05957
1049.120, 52.34668
1049.602, 27.73730
1050.084, 39.31641
1050.566, 74.34863
1051.048, 89.16895
1051.531, 81.97070
1052.013, 61.91504
1052.495, 22.65039
1052.977, 6.085938
1053.459, 29.92773
1053.941, 57.42676
1054.423, 53.92676
1054.905, 35.97949
1055.388, 55.33105
1055.870, 112.2588
1056.352, 107.6172
1056.834, 36.20703
1057.316, 0.9218750
1057.798, 23.53711
1058.280, 62.42969
1058.762, 84.62695
1059.245, 90.30273
1059.727, 69.79004
1060.209, 31.12402
1060.691, 35.10254
1061.173, 74.93164
1061.655, 92.12695
1062.137, 76.81738
1062.619, 56.15723
1063.101, 45.60156
1063.583, 35.81055
1064.066, 6.374023
1064.548, 27.59570
1065.030, 17.65332
1065.512, 20.53809
1065.994, 35.85938
1066.476, 24.85645
1066.958, 9.856445
1067.440, 0.7011720
1067.923, 3.330078
1068.405, 3.351563
1068.887, 1.809570
1069.369, 16.19434
1069.851, 35.06445
1070.333, 50.16113
1070.815, 62.03418
1071.297, 78.01855
1071.780, 98.49512
1072.262, 105.2295
1072.744, 76.19043
1073.226, 46.46191
1073.708, 55.39453
1074.190, 72.71973
1074.672, 58.53516
1075.154, 29.64258
1075.636, 18.78418
1076.119, 31.77344
1076.601, 60.45996
1077.083, 118.0127
1077.565, 149.6826
1078.047, 101.4062
1078.529, 46.11035
1079.011, 31.38281
1079.493, 40.52344
1079.976, 62.93262
1080.458, 88.41016
1080.940, 88.22754
1081.422, 42.20898
1081.904, 15.85352
1082.386, 40.80566
1082.868, 68.30957
1083.350, 91.99414
1083.833, 99.82812
1084.315, 69.36914
1084.797, 17.66992
1085.279, 6.904297
1085.761, 1.959961
1086.243, 13.00293
1086.725, 29.47852
1087.207, 41.02539
1087.689, 41.93262
1088.172, 45.38770
1088.654, 63.94434
1089.136, 83.27930
1089.618, 77.93555
1090.100, 48.91504
1090.582, 42.47559
1091.064, 70.65820
1091.546, 70.55859
1092.028, 25.32422
1092.511, 1.982422
1092.993, 16.09766
1093.475, 60.10547
1093.957, 113.6094
1094.439, 167.0938
1094.921, 181.1924
1095.403, 156.9990
1095.885, 152.4922
1096.368, 169.6895
1096.850, 167.2812
1097.332, 134.0293
1097.814, 95.46777
1098.296, 70.36816
1098.778, 59.59375
1099.260, 73.81738
1099.742, 102.7070
1100.224, 110.3848
1100.707, 99.14062
1101.189, 72.71387
1101.671, 37.33691
1102.153, 14.21582
1102.635, 13.29688
1103.117, 25.93652
1103.599, 60.45703
1104.081, 88.96387
1104.563, 65.85742
1105.046, 23.09082
1105.528, 7.609375
1106.010, 13.00488
1106.492, 9.150391
1106.974, 10.18555
1107.456, 20.04395
1107.938, 5.567383
1108.420, 18.56250
1108.903, 58.67383
1109.385, 89.64453
1109.867, 84.62793
1110.349, 63.45117
1110.831, 51.95020
1111.313, 51.79492
1111.795, 53.46387
1112.277, 54.68945
1112.760, 57.11133
1113.242, 52.94238
1113.724, 61.66016
1114.206, 113.8008
1114.688, 157.1680
1115.170, 143.4434
1115.652, 96.84375
1116.134, 67.74707
1116.616, 55.38574
1117.099, 71.38867
1117.581, 139.5381
1118.063, 163.7383
1118.545, 114.0371
1119.027, 68.26465
1119.509, 64.31738
1119.991, 85.59668
1120.473, 116.9844
1120.955, 150.7754
1121.438, 146.3701
1121.920, 105.1260
1122.402, 77.52930
1122.884, 68.45703
1123.366, 65.32324
1123.848, 63.30957
1124.330, 73.12793
1124.812, 106.4375
1125.295, 136.3984
1125.777, 106.4375
1126.259, 48.86133
1126.741, 38.93262
1127.223, 61.63965
1127.705, 74.14844
1128.187, 74.20703
1128.669, 91.21289
1129.151, 135.1260
1129.634, 161.9502
1130.116, 118.7451
1130.598, 68.25488
1131.080, 58.79785
1131.562, 70.18262
1132.044, 93.17383
1132.526, 115.8193
1133.008, 118.5703
1133.490, 101.1514
1133.973, 88.40527
1134.455, 96.20703
1134.937, 94.73340
1135.419, 54.77441
1135.901, 24.48828
1136.383, 38.58301
1136.865, 65.35254
1137.347, 77.48730
1137.830, 77.65430
1138.312, 72.67090
1138.794, 61.06934
1139.276, 50.08301
1139.758, 32.84668
1140.240, 39.54199
1140.722, 85.43457
1141.204, 121.5479
1141.687, 122.7080
1142.169, 99.21680
1142.651, 57.93164
1143.133, 10.17090
1143.615, 8.920898
1144.097, 47.96289
1144.579, 61.69727
1145.061, 48.61035
1145.543, 37.27832
1146.026, 35.95215
1146.508, 40.55859
1146.990, 49.10254
1147.472, 54.71680
1147.954, 49.09570
1148.436, 35.01465
1148.918, 5.667969
1149.400, 21.59375
1149.882, 13.09766
1150.365, 21.19336
1150.847, 54.08496
1151.329, 78.16895
1151.811, 93.72754
1152.293, 94.08594
1152.775, 96.06641
1153.257, 119.3203
1153.739, 133.1250
1154.222, 111.4102
1154.704, 71.37402
1155.186, 22.36328
1155.668, 26.25391
1156.150, 30.66895
1156.632, 39.45410
1157.114, 81.14551
1157.596, 78.59375
1158.078, 78.43359
1158.561, 93.80664
1159.043, 104.6260
1159.525, 96.04980
1160.007, 81.24121
1160.489, 82.51953
1160.971, 95.75586
1161.453, 85.49414
1161.935, 53.19531
1162.417, 57.42383
1162.900, 99.93945
1163.382, 126.4551
1163.864, 119.8818
1164.346, 94.03223
1164.828, 54.74023
1165.310, 21.18750
1165.792, 20.91309
1166.274, 44.46973
1166.757, 99.19434
1167.239, 155.4512
1167.721, 152.8711
1168.203, 103.1787
1168.685, 55.22363
1169.167, 23.30762
1169.649, 13.69629
1170.131, 50.94824
1170.614, 80.95215
1171.096, 74.60938
1171.578, 60.48926
1172.060, 54.72559
1172.542, 52.99512
1173.024, 45.33789
1173.506, 35.91992
1173.988, 45.82617
1174.470, 81.07910
1174.953, 115.1455
1175.435, 156.2227
1175.917, 171.8018
1176.399, 149.7539
1176.881, 120.1855
1177.363, 96.38672
1177.845, 86.00488
1178.327, 104.1328
1178.809, 135.7109
1179.292, 119.9834
1179.774, 69.22168
1180.256, 48.02148
1180.738, 56.85352
1181.220, 84.22461
1181.702, 121.0332
1182.184, 132.9238
1182.666, 98.47363
1183.149, 64.50781
1183.631, 89.67090
1184.113, 119.9551
1184.595, 101.5410
1185.077, 62.66602
1185.559, 22.22461
1186.041, 6.820313
1186.523, 7.7147998E-02
1187.005, 41.74609
1187.488, 69.45703
1187.970, 55.34961
1188.452, 58.10840
1188.934, 112.1475
1189.416, 146.3584
1189.898, 131.4033
1190.380, 104.8193
1190.862, 96.84570
1191.344, 88.50488
1191.827, 48.05176
1192.309, 18.77637
1192.791, 29.65820
1193.273, 16.12109
1193.755, 63.78027
1194.237, 107.2148
1194.719, 131.8428
1195.201, 133.0439
1195.684, 119.9590
1196.166, 97.62402
1196.648, 74.64453
1197.130, 55.30078
1197.612, 47.60254
1198.094, 74.05078
1198.576, 113.7383
1199.058, 137.9951
1199.541, 144.2207
1200.023, 132.1113
1200.505, 103.1826
1200.987, 84.43066
1201.469, 88.63574
1201.951, 99.60352
1202.433, 131.3242
1202.915, 145.4707
1203.397, 106.4316
1203.880, 61.82422
1204.362, 47.90723
1204.844, 55.77832
1205.326, 70.32324
1205.808, 91.85059
1206.290, 69.46387
1206.772, 3.062500
1207.254, 35.16016
1207.736, 14.09668
1208.219, 15.78125
1208.701, 37.07617
1209.183, 43.59668
1209.665, 26.78125
1210.147, 11.29199
1210.629, 41.78809
1211.111, 87.24219
1211.593, 98.18066
1212.076, 91.25195
1212.558, 88.37988
1213.040, 95.52734
1213.522, 125.1143
1214.004, 184.7549
1214.486, 205.9092
1214.968, 131.1416
1215.450, 74.77832
1215.932, 65.76367
1216.415, 79.57812
1216.897, 133.6777
1217.379, 174.5273
1217.861, 144.5684
1218.343, 91.73730
1218.825, 123.5664
1219.307, 230.6123
1219.789, 243.8760
1220.271, 161.0674
1220.754, 113.1445
1221.236, 110.1182
1221.718, 114.6553
1222.200, 115.5430
1222.682, 126.6855
1223.164, 158.9229
1223.646, 194.2539
1224.128, 234.1162
1224.611, 244.9473
1225.093, 146.7158
1225.575, 27.46484
1226.057, 4.769531
1226.539, 52.09277
1227.021, 105.3682
1227.503, 151.0479
1227.985, 170.4346
1228.468, 141.6338
1228.950, 121.9268
1229.432, 124.0010
1229.914, 123.5449
1230.396, 115.8467
1230.878, 102.9434
1231.360, 83.52051
1231.842, 60.30469
1232.324, 61.67188
1232.807, 77.67676
1233.289, 92.02734
1233.771, 102.9229
1234.253, 100.1338
1234.735, 87.63574
1235.217, 81.05664
1235.699, 81.55664
1236.181, 76.19238
1236.663, 59.45703
1237.146, 51.66895
1237.628, 71.13477
1238.110, 99.07031
1238.592, 140.4453
1239.074, 158.1680
1239.556, 120.6641
1240.038, 73.07227
1240.520, 80.01953
1241.003, 126.9023
1241.485, 127.4434
1241.967, 67.99023
1242.449, 48.55273
1242.931, 74.70898
1243.413, 121.8574
1243.895, 194.2559
1244.377, 231.7637
1244.859, 209.6602
1245.342, 168.2871
1245.824, 140.1328
1246.306, 117.5645
1246.788, 90.14844
1247.270, 59.57617
1247.752, 9.355469
1248.234, 30.57227
1248.716, 10.47266
1249.198, 102.8516
1249.681, 152.6289
1250.163, 144.7168
1250.645, 135.3457
1251.127, 146.0547
1251.609, 143.8691
1252.091, 115.5898
1252.573, 86.56250
1253.055, 59.83984
1253.538, 37.60352
1254.020, 18.76367
1254.502, 10.74023
1254.984, 24.29883
1255.466, 50.80273
1255.948, 58.91211
1256.430, 51.54883
1256.912, 37.53711
1257.395, 25.93359
1257.877, 57.77148
1258.359, 124.5117
1258.841, 153.8711
1259.323, 115.7988
1259.805, 63.52930
1260.287, 59.92578
1260.769, 74.81055
1261.251, 129.7090
1261.734, 165.5410
1262.216, 128.8789
1262.698, 66.26172
1263.180, 22.37695
1263.662, 1.458984
1264.144, 5.458984
1264.626, 14.48047
1265.108, 70.71875
1265.590, 170.5723
1266.073, 218.3516
1266.555, 208.4316
1267.037, 171.5957
1267.519, 100.3555
1268.001, 51.57422
1268.483, 24.51172
1268.965, 9.583984
1269.447, 17.79883
1269.930, 24.74023
1270.412, 0.0000000E+00
##END=



