##NAMES=Tennantite-(Fe)
##RRUFFID=R110024
##IDEAL CHEMISTRY=Cu^1+^_6_(Cu^1+^_4_Fe^2+^_2_)As^3+^_4_S^2-^_13_
##LOCALITY=Quiruvilca, La Libertad Department, Peru
##OWNER=RRUFF
##SOURCE=William Pinch
##DESCRIPTION=Black metallic tetrahedral crystals associated with pinkish grey famatinite, R110022, on pyrite
##STATUS=The identification of this mineral has been confirmed only by single crystal X-ray diffraction.
##URL=rruff.info/R110024
204.9009, 0.0000000E+00
205.3831, 0.7180890
205.8652, 1.277081
206.3473, 1.305687
206.8294, 1.261486
207.3115, 1.423693
207.7936, 1.879099
208.2758, 2.337726
208.7579, 2.537558
209.2400, 2.314308
209.7221, 2.263900
210.2042, 2.863724
210.6863, 2.946506
211.1685, 2.621816
211.6506, 1.897007
212.1327, 1.118160
212.6148, 0.7743500
213.0969, 1.250317
213.5790, 1.369637
214.0612, 0.7740870
214.5433, 7.4078999E-02
215.0254, 0.2516020
215.5075, 9.2134997E-02
215.9896, 0.3512650
216.4717, 0.8190430
216.9539, 1.379783
217.4360, 1.780574
217.9181, 2.068975
218.4002, 3.072040
218.8823, 2.812938
219.3644, 2.011829
219.8466, 1.240206
220.3287, 1.297112
220.8108, 2.397030
221.2929, 3.076715
221.7750, 2.751607
222.2571, 2.052203
222.7393, 1.751849
223.2214, 2.049114
223.7035, 2.642569
224.1856, 3.470172
224.6677, 4.564049
225.1498, 5.117042
225.6320, 4.622444
226.1141, 3.584281
226.5962, 2.821938
227.0783, 2.516871
227.5604, 2.338829
228.0425, 1.694345
228.5247, 0.7620650
229.0068, 0.4909800
229.4889, 2.285886
229.9710, 4.910928
230.4531, 5.203714
230.9352, 1.775930
231.4174, 1.712474
231.8995, 2.158653
232.3816, 0.4174740
232.8637, 1.303443
233.3458, 1.897107
233.8280, 1.645878
234.3101, 1.444697
234.7922, 1.275265
235.2743, 1.234558
235.7564, 1.470523
236.2385, 1.856313
236.7207, 2.130214
237.2028, 2.076056
237.6849, 1.786210
238.1670, 1.692338
238.6491, 2.040483
239.1312, 2.204000
239.6134, 1.826660
240.0955, 1.133308
240.5776, 0.4663680
241.0597, 4.8264001E-02
241.5418, 0.3558070
242.0239, 8.9351997E-02
242.5061, 1.612032
242.9882, 2.674246
243.4703, 1.966459
243.9524, 0.4088340
244.4345, 0.6175990
244.9166, 0.2418170
245.3988, 1.182148
245.8809, 1.958774
246.3630, 1.474004
246.8451, 1.092902
247.3272, 1.194557
247.8093, 1.530263
248.2915, 1.774297
248.7736, 1.749554
249.2557, 1.506906
249.7378, 1.243216
250.2199, 0.7546220
250.7020, 0.5192200
251.1842, 0.8583410
251.6663, 1.392348
252.1484, 1.579309
252.6305, 1.147921
253.1126, 0.4105650
253.5947, 0.3618300
254.0769, 1.976625
254.5590, 3.136530
255.0411, 3.601534
255.5232, 3.598614
256.0053, 3.255764
256.4874, 2.632607
256.9695, 1.962197
257.4517, 1.809573
257.9338, 3.079912
258.4159, 3.791937
258.8980, 3.686276
259.3801, 3.124730
259.8622, 2.319672
260.3444, 1.363168
260.8265, 0.5438670
261.3086, 0.4274230
261.7907, 1.702407
262.2728, 2.632053
262.7549, 3.155518
263.2371, 3.344410
263.7192, 3.143727
264.2013, 2.556782
264.6834, 1.856948
265.1655, 1.425825
265.6476, 1.274124
266.1298, 1.467687
266.6119, 2.588245
267.0940, 3.736644
267.5761, 3.949331
268.0582, 3.062057
268.5403, 1.789989
269.0225, 0.8675590
269.5046, 0.3075290
269.9867, 0.3432720
270.4688, 1.715989
270.9509, 3.231692
271.4330, 3.748011
271.9152, 3.162805
272.3973, 2.322414
272.8794, 1.997000
273.3615, 2.271903
273.8436, 2.534541
274.3257, 2.815260
274.8079, 3.027783
275.2900, 2.968344
275.7721, 2.665950
276.2542, 2.591998
276.7363, 3.262736
277.2184, 4.542354
277.7006, 5.236892
278.1827, 4.799427
278.6648, 4.203438
279.1469, 4.248086
279.6290, 4.848240
280.1111, 5.222395
280.5933, 4.779538
281.0754, 3.787042
281.5575, 3.229795
282.0396, 3.276248
282.5217, 3.543105
283.0038, 4.055114
283.4860, 4.695415
283.9681, 4.752805
284.4502, 3.547631
284.9323, 1.871737
285.4144, 1.398103
285.8965, 2.522273
286.3787, 3.809081
286.8608, 4.498870
287.3429, 4.709984
287.8250, 4.853303
288.3071, 4.995874
288.7892, 5.218976
289.2714, 5.582871
289.7535, 6.187851
290.2356, 6.826788
290.7177, 7.310163
291.1998, 7.610199
291.6819, 7.650575
292.1641, 7.297825
292.6462, 6.910358
293.1283, 6.818975
293.6104, 6.997880
294.0925, 7.479012
294.5746, 8.635063
295.0568, 10.04218
295.5389, 10.85475
296.0210, 10.93023
296.5031, 10.54074
296.9852, 9.484963
297.4673, 8.070465
297.9495, 7.226882
298.4316, 7.506439
298.9137, 8.432242
299.3958, 9.377032
299.8779, 10.36730
300.3600, 11.25167
300.8422, 12.11217
301.3243, 12.76305
301.8064, 12.75137
302.2885, 11.46043
302.7706, 9.964943
303.2527, 9.533507
303.7349, 10.22556
304.2170, 11.07292
304.6991, 11.79070
305.1812, 12.31357
305.6633, 12.51795
306.1454, 12.28721
306.6276, 11.98329
307.1097, 12.02267
307.5918, 12.37221
308.0739, 12.43118
308.5560, 11.89285
309.0381, 11.05369
309.5203, 10.06730
310.0024, 8.862814
310.4845, 8.260914
310.9666, 9.413892
311.4487, 11.85646
311.9308, 13.18985
312.4130, 12.52683
312.8951, 11.20911
313.3772, 10.52281
313.8593, 10.36761
314.3414, 10.11372
314.8235, 9.336547
315.3057, 8.233343
315.7878, 7.273518
316.2699, 6.470301
316.7520, 5.886711
317.2341, 5.575484
317.7162, 5.504968
318.1984, 5.666357
318.6805, 6.370174
319.1626, 7.161003
319.6447, 7.183668
320.1268, 6.270539
320.6089, 5.434401
321.0911, 5.418427
321.5732, 5.789122
322.0553, 5.953509
322.5374, 5.720057
323.0195, 5.370717
323.5016, 5.227029
323.9838, 5.290420
324.4659, 5.247772
324.9480, 4.822994
325.4301, 4.350080
325.9122, 4.288021
326.3943, 4.739080
326.8765, 5.181314
327.3586, 5.249152
327.8407, 4.983850
328.3228, 4.546771
328.8049, 3.748115
329.2870, 3.120565
329.7692, 3.358493
330.2513, 4.375549
330.7334, 5.202174
331.2155, 5.285191
331.6976, 4.849566
332.1797, 4.348735
332.6619, 3.749412
333.1440, 3.311320
333.6261, 3.420977
334.1082, 3.870080
334.5903, 4.172303
335.0724, 4.073629
335.5546, 3.803782
336.0367, 3.720709
336.5188, 3.860234
337.0009, 3.803678
337.4830, 3.061591
337.9651, 2.041739
338.4473, 1.497739
338.9294, 1.564045
339.4115, 2.034436
339.8936, 2.968965
340.3757, 4.285414
340.8578, 5.344975
341.3400, 5.939251
341.8221, 6.109935
342.3042, 5.928041
342.7863, 5.334986
343.2684, 4.743491
343.7505, 4.295998
344.2327, 4.139646
344.7148, 4.317752
345.1969, 4.787062
345.6790, 5.168095
346.1611, 5.102830
346.6432, 4.664126
347.1254, 4.229040
347.6075, 3.848208
348.0896, 3.545734
348.5717, 3.367669
349.0538, 3.318632
349.5359, 3.342054
350.0181, 3.369816
350.5002, 3.443140
350.9823, 3.699520
351.4644, 4.630546
351.9465, 5.330463
352.4286, 5.005933
352.9108, 3.850336
353.3929, 2.646927
353.8750, 1.554601
354.3571, 0.8840620
354.8392, 1.570083
355.3214, 4.515155
355.8035, 6.667030
356.2856, 6.119335
356.7677, 4.175231
357.2498, 3.150697
357.7320, 3.766978
358.2141, 5.063724
358.6962, 5.750035
359.1783, 5.716959
359.6604, 5.783290
360.1425, 6.238175
360.6247, 6.780359
361.1068, 7.075594
361.5889, 7.082937
362.0710, 6.978905
362.5531, 6.877083
363.0352, 6.822621
363.5174, 6.885053
363.9995, 7.394397
364.4816, 7.720098
364.9637, 7.246989
365.4458, 6.294325
365.9279, 5.598337
366.4101, 5.546222
366.8922, 5.996416
367.3743, 6.516742
367.8564, 7.376517
368.3385, 7.926437
368.8206, 7.482299
369.3028, 6.948742
369.7849, 7.701124
370.2670, 10.04692
370.7491, 12.57040
371.2312, 13.18211
371.7133, 10.84760
372.1955, 9.745036
372.6776, 10.80254
373.1597, 12.20691
373.6418, 12.80722
374.1239, 12.66263
374.6060, 12.53122
375.0882, 13.04063
375.5703, 14.16443
376.0524, 15.01370
376.5345, 15.30347
377.0166, 15.65666
377.4987, 16.15235
377.9809, 16.81609
378.4630, 17.79570
378.9451, 19.16429
379.4272, 20.58152
379.9093, 21.18218
380.3914, 20.16553
380.8736, 19.66113
381.3557, 20.07735
381.8378, 20.74049
382.3199, 21.09483
382.8020, 21.10124
383.2841, 21.17263
383.7663, 21.86671
384.2484, 23.35518
384.7305, 24.27334
385.2126, 24.37449
385.6947, 24.10597
386.1768, 23.66156
386.6590, 22.93753
387.1411, 21.61627
387.6232, 19.37474
388.1053, 16.59060
388.5874, 14.68880
389.0695, 14.15405
389.5517, 13.61973
390.0338, 12.65940
390.5159, 11.60923
390.9980, 10.86877
391.4801, 10.53920
391.9622, 10.18875
392.4444, 9.176588
392.9265, 7.417157
393.4086, 5.897180
393.8907, 4.882398
394.3728, 4.013722
394.8549, 2.969847
395.3371, 1.847485
395.8192, 1.057476
396.3013, 0.9484680
396.7834, 1.384794
397.2655, 2.031759
397.7477, 3.099802
398.2298, 3.822035
398.7119, 3.733603
399.1940, 3.172712
399.6761, 2.540284
400.1582, 1.985456
400.6404, 1.275550
401.1225, 0.2557120
401.6046, 2.511360
402.0867, 3.494518
402.5688, 1.928294
403.0509, 0.4285090
403.5331, 1.414696
404.0152, 1.016291
404.4973, 0.5159940
404.9794, 0.4723620
405.4615, 0.6903490
405.9436, 0.8415780
406.4258, 0.8870530
406.9079, 0.8966690
407.3900, 0.9589620
407.8721, 1.041455
408.3542, 0.9900020
408.8363, 0.6785680
409.3185, 0.3340730
409.8006, 8.2484998E-02
410.2827, 8.2911000E-02
410.7648, 0.1690190
411.2469, 0.1587770
411.7290, 0.1121790
412.2112, 0.2018540
412.6933, 0.6121330
413.1754, 0.6890930
413.6575, 0.1488580
414.1396, 1.207313
414.6217, 1.738993
415.1039, 1.626795
415.5860, 1.248432
416.0681, 0.9758870
416.5502, 0.8343800
417.0323, 0.4903720
417.5144, 0.3733940
417.9966, 1.077685
418.4787, 1.397326
418.9608, 1.350250
419.4429, 0.8990340
419.9250, 4.7900002E-03
420.4071, 1.072195
420.8893, 1.463447
421.3714, 0.3138900
421.8535, 0.2006710
422.3356, 0.4961280
422.8177, 1.445386
423.2998, 1.866558
423.7820, 1.711271
424.2641, 1.468764
424.7462, 1.760161
425.2283, 2.679690
425.7104, 2.903217
426.1925, 1.449283
426.6747, 0.3468330
427.1568, 0.5008110
427.6389, 1.307043
428.1210, 1.741582
428.6031, 1.253819
429.0852, 0.4032560
429.5674, 0.4185670
430.0495, 1.604317
430.5316, 2.556858
431.0137, 2.867603
431.4958, 2.864838
431.9779, 2.629240
432.4601, 2.211604
432.9422, 1.866892
433.4243, 1.881576
433.9064, 2.150107
434.3885, 2.147324
434.8706, 1.662803
435.3528, 1.332269
435.8349, 1.806132
436.3170, 2.669275
436.7991, 3.231841
437.2812, 3.258488
437.7633, 3.025958
438.2455, 2.714527
438.7276, 2.339764
439.2097, 1.981076
439.6918, 1.574987
440.1739, 1.337499
440.6560, 1.793151
441.1382, 3.033696
441.6203, 3.809501
442.1024, 3.300832
442.5845, 2.406334
443.0666, 2.229129
443.5487, 2.838238
444.0309, 3.525606
444.5130, 3.776436
444.9951, 3.612850
445.4772, 3.260825
445.9593, 2.383017
446.4414, 1.737061
446.9236, 1.647804
447.4057, 1.907309
447.8878, 2.304446
448.3699, 2.755539
448.8520, 3.042534
449.3341, 2.781192
449.8163, 1.635757
450.2984, 0.9003410
450.7805, 0.7841950
451.2626, 0.8186920
451.7447, 0.7260220
452.2268, 0.5714050
452.7090, 0.6462990
453.1911, 1.200997
453.6732, 2.023412
454.1553, 2.120715
454.6374, 0.6100010
455.1195, 9.2188999E-02
455.6017, 1.111825
456.0838, 2.711359
456.5659, 3.356912
457.0480, 2.843414
457.5301, 2.049316
458.0122, 1.920033
458.4944, 2.439852
458.9765, 2.561522
459.4586, 1.842464
459.9407, 1.101134
460.4228, 0.8870690
460.9049, 1.087476
461.3871, 1.391621
461.8692, 1.840837
462.3513, 2.186214
462.8334, 1.965221
463.3155, 1.209257
463.7976, 0.7700440
464.2798, 1.048578
464.7619, 1.596300
465.2440, 1.779158
465.7261, 1.585594
466.2082, 1.599279
466.6903, 2.286137
467.1725, 3.141184
467.6546, 3.626222
468.1367, 3.680811
468.6188, 3.231160
469.1009, 2.002832
469.5830, 0.3002880
470.0652, 0.3883650
470.5473, 0.6295840
471.0294, 1.587410
471.5115, 2.192152
471.9936, 2.453676
472.4757, 2.328574
472.9579, 1.839732
473.4400, 1.291010
473.9221, 1.049877
474.4042, 1.180368
474.8863, 1.263890
475.3684, 1.151063
475.8506, 1.067846
476.3327, 1.215698
476.8148, 1.480317
477.2969, 1.635713
477.7790, 1.583253
478.2611, 1.419381
478.7433, 1.468794
479.2254, 1.938875
479.7075, 1.985143
480.1896, 1.072049
480.6717, 0.1606200
481.1538, 0.2298190
481.6360, 0.1098830
482.1181, 0.2564170
482.6002, 0.8648710
483.0823, 1.536047
483.5644, 1.647477
484.0465, 0.9904900
484.5287, 0.5396770
485.0108, 1.037505
485.4929, 1.842107
485.9750, 2.159657
486.4571, 1.863811
486.9392, 1.368291
487.4214, 0.7285540
487.9035, 0.1650560
488.3856, 3.7005998E-02
488.8677, 0.5012360
489.3498, 1.112002
489.8319, 1.566420
490.3141, 1.830118
490.7962, 1.793969
491.2783, 0.9275710
491.7604, 0.3238050
492.2425, 0.7820690
492.7246, 1.796189
493.2068, 2.380570
493.6889, 2.187922
494.1710, 1.661119
494.6531, 1.504895
495.1352, 1.959004
495.6173, 2.013466
496.0995, 1.268634
496.5816, 0.5717340
497.0637, 0.3096790
497.5458, 0.4222490
498.0279, 0.7656310
498.5100, 1.291783
498.9922, 1.831034
499.4743, 1.901317
499.9564, 1.291495
500.4385, 0.7547420
500.9206, 0.2223750
501.4027, 7.0560001E-02
501.8849, 0.1890540
502.3670, 0.9032460
502.8491, 1.549716
503.3312, 1.714566
503.8133, 1.565588
504.2954, 1.556694
504.7776, 1.713983
505.2597, 1.889900
505.7418, 2.039161
506.2239, 2.154122
506.7060, 2.265624
507.1881, 2.422074
507.6703, 2.371403
508.1524, 1.733436
508.6345, 0.8845110
509.1166, 0.4970770
509.5987, 0.6672140
510.0808, 0.9903310
510.5630, 1.170372
511.0451, 1.224290
511.5272, 1.279365
512.0093, 1.274379
512.4914, 1.326815
512.9735, 1.695859
513.4556, 2.103129
513.9377, 1.852184
514.4199, 0.8393380
514.9020, 0.1547340
515.3841, 2.9978000E-02
515.8662, 1.490667
516.3483, 2.219449
516.8304, 1.191763
517.3126, 0.4341830
517.7947, 0.7817220
518.2768, 1.672134
518.7589, 2.255606
519.2410, 2.186868
519.7231, 1.792827
520.2053, 1.485820
520.6874, 1.265178
521.1695, 1.169435
521.6516, 1.314209
522.1337, 1.442693
522.6158, 1.258395
523.0980, 0.9055290
523.5801, 0.8083820
524.0622, 1.220482
524.5443, 1.848819
525.0264, 2.651236
525.5085, 3.508641
525.9907, 3.482610
526.4728, 1.924402
526.9549, 6.7778997E-02
527.4370, 6.6312999E-02
527.9191, 1.847498
528.4012, 3.158553
528.8834, 3.396018
529.3655, 3.039027
529.8476, 2.016910
530.3297, 0.6950530
530.8118, 6.0896002E-02
531.2939, 0.6952660
531.7761, 2.007851
532.2582, 2.457111
532.7403, 1.321922
533.2224, 0.6403750
533.7045, 0.6580120
534.1866, 0.8912650
534.6688, 1.046477
535.1509, 1.155422
535.6330, 1.465154
536.1151, 2.262650
536.5972, 3.203803
537.0793, 3.253859
537.5615, 2.165226
538.0436, 1.200426
538.5257, 0.6897330
539.0078, 0.4703400
539.4899, 0.5048810
539.9720, 0.7798550
540.4542, 1.087308
540.9363, 1.488417
541.4184, 1.726790
541.9005, 1.371464
542.3826, 0.4568010
542.8647, 9.9458002E-02
543.3469, 0.3383930
543.8290, 1.274615
544.3111, 1.352041
544.7932, 0.1037210
545.2753, 0.8694200
545.7574, 9.1775000E-02
546.2396, 1.098692
546.7217, 1.859920
547.2038, 2.100220
547.6859, 1.985072
548.1680, 1.588258
548.6501, 1.017379
549.1323, 0.7599300
549.6144, 0.9835030
550.0965, 1.244021
550.5786, 1.585536
551.0607, 1.867033
551.5428, 1.979028
552.0250, 1.922623
552.5071, 1.765248
552.9892, 1.443427
553.4713, 1.093906
553.9534, 1.267859
554.4355, 2.150445
554.9177, 2.570741
555.3998, 1.633102
555.8819, 0.3089050
556.3640, 3.4350999E-02
556.8461, 0.7384470
557.3282, 1.528069
557.8104, 1.951358
558.2925, 2.144601
558.7746, 2.240221
559.2567, 2.247421
559.7388, 2.163841
560.2209, 1.941601
560.7031, 1.656605
561.1852, 1.561421
561.6673, 2.016443
562.1494, 2.144960
562.6315, 1.427803
563.1136, 0.7777830
563.5958, 1.039481
564.0779, 2.041482
564.5600, 2.938290
565.0421, 3.111840
565.5242, 2.780978
566.0063, 2.708923
566.4885, 3.047496
566.9706, 3.201429
567.4527, 2.810618
567.9348, 2.350816
568.4169, 2.218916
568.8990, 2.374671
569.3812, 2.394994
569.8633, 1.781095
570.3454, 1.039850
570.8275, 1.014719
571.3096, 1.658461
571.7917, 2.256037
572.2739, 2.600722
572.7560, 2.580703
573.2381, 1.877854
573.7202, 0.1562460
574.2023, 0.9209730
574.6844, 0.8097990
575.1666, 0.3516120
575.6487, 6.7684002E-02
576.1308, 7.3950000E-02
576.6129, 0.3314290
577.0950, 0.8504020
577.5771, 1.446690
578.0593, 1.706212
578.5414, 1.533707
579.0235, 1.282802
579.5056, 0.6518210
579.9877, 0.2457400
580.4698, 0.5361800
580.9520, 1.260126
581.4341, 1.794020
581.9162, 1.819649
582.3983, 1.619133
582.8804, 1.563093
583.3625, 1.634113
583.8447, 1.668472
584.3268, 1.667347
584.8089, 1.525041
585.2910, 0.9785150
585.7731, 0.1087770
586.2552, 0.3475230
586.7374, 4.9474999E-02
587.2195, 0.3869780
587.7016, 0.6609730
588.1837, 0.8778470
588.6658, 1.213066
589.1479, 1.714382
589.6301, 2.116215
590.1122, 2.021671
590.5943, 1.344723
591.0764, 0.9995560
591.5585, 1.230202
592.0406, 1.523972
592.5228, 1.980400
593.0049, 2.330952
593.4870, 2.140917
593.9691, 1.319602
594.4512, 0.5170410
594.9333, 0.3939710
595.4155, 0.8174060
595.8976, 1.314054
596.3797, 1.962738
596.8618, 2.174859
597.3439, 1.217586
597.8260, 0.2637960
598.3082, 0.6530180
598.7903, 0.5338220
599.2724, 1.583359
599.7545, 2.043684
600.2366, 2.035318
600.7188, 1.287043
601.2009, 5.6329999E-02
601.6830, 0.4887910
602.1651, 0.5525440
602.6472, 2.606425
603.1294, 3.511261
603.6115, 2.740784
604.0936, 1.992822
604.5757, 1.220386
605.0579, 0.6342510
605.5400, 0.3494790
606.0221, 0.3676120
606.5042, 0.7004120
606.9863, 1.540704
607.4684, 2.415195
607.9506, 2.393394
608.4327, 1.503253
608.9148, 0.8899770
609.3969, 0.8881120
609.8790, 1.189797
610.3611, 1.583871
610.8433, 2.051215
611.3254, 2.269190
611.8075, 2.062216
612.2896, 1.746134
612.7717, 1.417698
613.2538, 1.112265
613.7360, 0.8515360
614.2181, 0.6468750
614.7002, 0.5870590
615.1823, 0.8149460
615.6644, 1.358518
616.1465, 1.599576
616.6287, 1.327983
617.1108, 1.030892
617.5929, 0.7261970
618.0750, 0.5192010
618.5571, 0.5801380
619.0392, 0.9265100
619.5214, 1.255272
620.0035, 1.247325
620.4856, 1.079797
620.9677, 1.223361
621.4498, 1.710015
621.9319, 2.060548
622.4141, 2.006994
622.8962, 1.709207
623.3783, 1.509498
623.8604, 1.374123
624.3425, 1.303456
624.8246, 1.553973
625.3068, 1.688064
625.7889, 1.195579
626.2710, 0.3540610
626.7531, 0.1171090
627.2352, 0.1439610
627.7173, 0.7614940
628.1995, 1.071311
628.6816, 1.036373
629.1637, 0.8815220
629.6458, 0.3852330
630.1279, 8.0018997E-02
630.6100, 0.2735470
631.0922, 0.8031300
631.5743, 1.414732
632.0564, 2.043570
632.5385, 2.584034
633.0206, 3.098178
633.5027, 3.407280
633.9849, 2.936141
634.4670, 1.629244
634.9491, 0.5248760
635.4312, 0.4193510
635.9133, 1.099475
636.3954, 1.557497
636.8776, 1.691229
637.3597, 1.721096
637.8418, 1.664530
638.3239, 1.496581
638.8060, 0.9988580
639.2881, 0.3551810
639.7703, 0.1240470
640.2524, 0.7191370
640.7345, 1.702386
641.2166, 2.244771
641.6987, 2.334669
642.1808, 2.276685
642.6630, 2.074897
643.1451, 1.828691
643.6272, 1.695916
644.1093, 1.589162
644.5914, 1.291383
645.0735, 0.2225070
645.5557, 0.5475440
646.0378, 0.3659030
646.5199, 0.3444620
647.0020, 1.126065
647.4841, 1.819928
647.9662, 2.198738
648.4484, 2.005535
648.9305, 1.343478
649.4126, 0.9299480
649.8947, 0.7991610
650.3768, 0.8686400
650.8589, 1.421618
651.3411, 1.922763
651.8232, 1.908477
652.3053, 1.452923
652.7874, 1.058523
653.2695, 1.035673
653.7516, 1.141334
654.2338, 1.058534
654.7159, 0.8342150
655.1980, 0.6866480
655.6801, 0.6657690
656.1622, 0.6963140
656.6443, 0.7684520
657.1265, 0.8391770
657.6086, 0.9886390
658.0907, 1.536913
658.5728, 1.755756
659.0549, 0.9998150
659.5370, 8.6932003E-02
660.0192, 0.1251860
660.5013, 1.107727
660.9834, 2.008483
661.4655, 1.798311
661.9476, 0.9738830
662.4297, 1.296014
662.9119, 2.971426
663.3940, 4.149016
663.8761, 4.174489
664.3582, 3.564680
664.8403, 2.604610
665.3224, 1.347327
665.8046, 0.8743220
666.2867, 2.088278
666.7688, 3.362278
667.2509, 3.839706
667.7330, 3.790420
668.2151, 3.541119
668.6973, 3.144042
669.1794, 2.731357
669.6615, 2.369420
670.1436, 2.061602
670.6257, 1.852291
671.1078, 1.751467
671.5900, 1.727485
672.0721, 1.870100
672.5542, 2.017349
673.0363, 1.993095
673.5184, 1.814653
674.0005, 1.735726
674.4827, 2.060886
674.9648, 2.378230
675.4469, 2.184828
675.9290, 1.625945
676.4111, 1.194054
676.8932, 1.040014
677.3754, 1.026922
677.8575, 0.9783860
678.3396, 0.9956760
678.8217, 1.294261
679.3038, 2.690583
679.7859, 3.256793
680.2681, 1.559005
680.7502, 0.3669820
681.2323, 0.3402210
681.7144, 1.588917
682.1965, 3.281620
682.6786, 3.057459
683.1608, 1.944312
683.6429, 1.653303
684.1250, 2.085813
684.6071, 2.390798
685.0892, 2.302918
685.5714, 2.073788
686.0535, 1.973882
686.5356, 2.008425
687.0177, 2.111787
687.4998, 2.580630
687.9819, 2.742230
688.4641, 2.109468
688.9462, 1.327334
689.4283, 0.9727780
689.9104, 1.122442
690.3925, 1.319158
690.8746, 1.188522
691.3568, 0.8921610
691.8389, 0.7394450
692.3210, 0.7203770
692.8031, 1.168589
693.2852, 2.380102
693.7673, 3.700530
694.2495, 4.598178
694.7316, 5.046041
695.2137, 4.839174
695.6958, 3.223386
696.1779, 1.856000
696.6600, 1.405692
697.1422, 1.450854
697.6243, 1.601798
698.1064, 1.742048
698.5885, 1.731803
699.0706, 1.422830
699.5527, 0.9775020
700.0349, 0.9141670
700.5170, 1.359836
700.9991, 1.402488
701.4812, 0.4642050
701.9633, 0.3607040
702.4454, 0.1006280
702.9276, 1.470294
703.4097, 2.501685
703.8918, 3.177169
704.3739, 3.388152
704.8560, 2.710055
705.3381, 1.737679
705.8203, 1.152540
706.3024, 1.023718
706.7845, 1.090493
707.2666, 1.185880
707.7487, 1.309629
708.2308, 1.509981
708.7130, 1.867130
709.1951, 1.865718
709.6772, 0.9095550
710.1593, 0.3021340
710.6414, 1.333294
711.1235, 3.229292
711.6057, 4.320949
712.0878, 4.123827
712.5699, 3.602365
713.0520, 3.043234
713.5341, 2.521817
714.0162, 2.116898
714.4984, 1.838922
714.9805, 1.717810
715.4626, 1.788165
715.9447, 1.890151
716.4268, 1.618411
716.9089, 0.8155350
717.3911, 0.3503800
717.8732, 0.3972580
718.3553, 0.5812120
718.8374, 0.8504050
719.3195, 1.090725
719.8016, 1.031600
720.2838, 0.5261120
720.7659, 0.3705620
721.2480, 1.492673
721.7301, 2.767125
722.2122, 2.798452
722.6943, 1.842471
723.1765, 1.073214
723.6586, 1.004742
724.1407, 1.164343
724.6228, 0.7192410
725.1049, 0.4913940
725.5870, 0.7549820
726.0692, 0.4676460
726.5513, 1.773534
727.0334, 3.084922
727.5155, 4.004180
727.9976, 3.829234
728.4797, 2.547609
728.9619, 1.615601
729.4440, 1.974951
729.9261, 2.662690
730.4082, 2.983598
730.8903, 2.918203
731.3724, 2.302873
731.8546, 1.139359
732.3367, 0.1100170
732.8188, 2.4541000E-02
733.3009, 0.6565270
733.7830, 1.261934
734.2651, 2.092079
734.7473, 2.186677
735.2294, 8.5712999E-02
735.7115, 1.791221
736.1936, 1.269962
736.6757, 1.113738
737.1578, 2.903456
737.6400, 3.207734
738.1221, 2.991009
738.6042, 2.598223
739.0863, 2.211665
739.5684, 2.220290
740.0505, 2.578654
740.5327, 2.778632
741.0148, 2.426916
741.4969, 1.721934
741.9790, 1.253892
742.4611, 1.051177
742.9432, 0.9773530
743.4254, 0.9651330
743.9075, 1.159019
744.3896, 2.095232
744.8717, 3.170006
745.3538, 3.052739
745.8359, 0.9979760
746.3181, 0.4863310
746.8002, 0.2269100
747.2823, 1.700939
747.7644, 2.753373
748.2465, 3.216806
748.7286, 2.903055
749.2108, 1.723983
749.6929, 0.4105920
750.1750, 0.1479110
750.6571, 0.9990450
751.1392, 1.579520
751.6213, 1.846178
752.1035, 1.946372
752.5856, 1.950841
753.0677, 1.800598
753.5498, 1.274172
754.0319, 0.3491010
754.5140, 8.0790997E-02
754.9962, 0.8220420
755.4783, 1.627798
755.9604, 1.088498
756.4425, 4.3396000E-02
756.9246, 0.1073920
757.4067, 0.8595660
757.8889, 2.082852
758.3710, 2.895053
758.8531, 3.323967
759.3352, 3.337626
759.8173, 2.818264
760.2994, 2.765558
760.7816, 3.700845
761.2637, 4.485107
761.7458, 3.877788
762.2279, 2.241291
762.7100, 1.375646
763.1921, 1.815269
763.6743, 2.256405
764.1564, 2.549423
764.6385, 2.607785
765.1206, 2.136011
765.6027, 1.379967
766.0848, 0.9498070
766.5670, 1.130963
767.0491, 1.658489
767.5312, 2.452535
768.0133, 3.354449
768.4954, 3.206988
768.9775, 1.761498
769.4597, 0.9144180
769.9418, 1.821178
770.4239, 3.482266
770.9060, 4.150495
771.3881, 3.547169
771.8702, 3.007174
772.3524, 2.659853
772.8345, 2.217752
773.3166, 1.290736
773.7987, 0.3915120
774.2808, 0.2221180
774.7629, 0.7839060
775.2451, 1.308726
775.7272, 1.235353
776.2093, 0.8816590
776.6914, 0.6118530
777.1735, 0.4586230
777.6556, 0.5739600
778.1378, 0.9961200
778.6199, 1.685046
779.1020, 2.733041
779.5841, 3.932693
780.0662, 4.112714
780.5483, 2.425901
781.0305, 1.339875
781.5126, 1.374211
781.9947, 1.656502
782.4768, 1.740555
782.9589, 1.742503
783.4410, 2.127844
783.9232, 3.241816
784.4053, 3.919562
784.8874, 2.823681
785.3695, 1.373052
785.8516, 1.682169
786.3337, 3.273024
786.8159, 4.059943
787.2980, 3.218044
787.7801, 1.857666
788.2622, 1.452796
788.7443, 1.969039
789.2264, 2.209458
789.7086, 2.076080
790.1907, 1.937428
790.6728, 1.903378
791.1549, 1.907754
791.6370, 1.969390
792.1191, 2.039352
792.6013, 1.735511
793.0834, 0.4020280
793.5655, 0.6885420
794.0476, 0.6892560
794.5297, 0.1088710
795.0118, 0.5986600
795.4940, 1.248641
795.9761, 1.492157
796.4582, 1.084547
796.9403, 0.5354870
797.4224, 0.6415500
797.9045, 1.317219
798.3867, 2.145139
798.8688, 3.170794
799.3509, 3.520237
799.8330, 2.516372
800.3151, 0.9349520
800.7972, 0.2588150
801.2794, 0.8088870
801.7615, 0.9938950
802.2436, 0.2949250
802.7257, 9.7800002E-02
803.2078, 0.4197060
803.6899, 1.244636
804.1721, 1.743225
804.6542, 1.963967
805.1363, 2.084996
805.6184, 2.435855
806.1005, 2.763252
806.5826, 2.737543
807.0648, 2.499568
807.5469, 2.347450
808.0290, 2.335249
808.5111, 2.471351
808.9932, 2.809746
809.4753, 3.127376
809.9575, 2.644670
810.4396, 0.9501770
810.9217, 0.3932500
811.4038, 1.824399
811.8859, 3.175855
812.3680, 3.221953
812.8502, 2.662048
813.3323, 2.443381
813.8144, 2.654224
814.2965, 2.834805
814.7786, 2.961754
815.2607, 2.958431
815.7429, 2.716118
816.2250, 2.309993
816.7071, 1.756293
817.1892, 1.123804
817.6713, 0.7066450
818.1534, 0.8927810
818.6356, 1.355712
819.1177, 1.452699
819.5998, 1.226987
820.0819, 0.9511780
820.5640, 0.6662120
821.0461, 0.6736710
821.5283, 1.260087
822.0104, 2.204404
822.4925, 2.862314
822.9746, 3.280042
823.4567, 3.322996
823.9388, 2.575507
824.4210, 1.932171
824.9031, 1.631365
825.3852, 1.653238
825.8673, 2.077234
826.3494, 2.897198
826.8315, 3.569946
827.3137, 4.066106
827.7958, 4.101793
828.2779, 2.941250
828.7600, 1.310651
829.2421, 0.6430370
829.7242, 1.110618
830.2064, 1.748608
830.6885, 1.840740
831.1706, 1.553746
831.6527, 1.196855
832.1348, 0.7566350
832.6169, 0.8073630
833.0991, 1.646915
833.5812, 2.179621
834.0633, 1.480034
834.5454, 0.2619380
835.0275, 0.2259540
835.5096, 2.142317
835.9918, 2.911999
836.4739, 1.249384
836.9560, 6.2712997E-02
837.4381, 0.4464130
837.9202, 1.565630
838.4023, 1.883200
838.8845, 1.282984
839.3666, 0.6030080
839.8487, 0.1171420
840.3308, 3.3774000E-02
840.8129, 0.6196890
841.2950, 1.611414
841.7772, 1.905237
842.2593, 1.441293
842.7414, 0.9569050
843.2235, 0.9220660
843.7056, 1.113128
844.1877, 0.9503720
844.6699, 0.3456240
845.1520, 0.6867300
845.6341, 2.496358
846.1162, 3.705532
846.5983, 3.080745
847.0804, 1.832059
847.5626, 1.769425
848.0447, 2.996972
848.5268, 3.579451
849.0089, 2.949646
849.4910, 2.298128
849.9731, 1.826285
850.4553, 1.572599
850.9374, 1.722875
851.4195, 2.073944
851.9016, 2.164354
852.3837, 1.730795
852.8658, 1.264397
853.3480, 1.255359
853.8301, 1.527140
854.3122, 1.847399
854.7943, 2.158895
855.2764, 2.280339
855.7585, 2.129462
856.2407, 2.009657
856.7228, 2.407522
857.2049, 3.246353
857.6870, 3.466135
858.1691, 2.888907
858.6512, 2.391302
859.1334, 2.218040
859.6155, 2.147597
860.0976, 2.101213
860.5797, 2.006773
861.0618, 1.473371
861.5439, 0.4250730
862.0261, 1.215903
862.5082, 0.4137050
862.9903, 2.153194
863.4724, 2.623613
863.9545, 2.266938
864.4366, 1.897731
864.9188, 1.721046
865.4009, 1.593606
865.8830, 1.434578
866.3651, 1.262276
866.8472, 0.9461110
867.3293, 0.6598770
867.8115, 0.9894710
868.2936, 1.958248
868.7757, 2.727227
869.2578, 2.639677
869.7399, 1.973539
870.2220, 1.245084
870.7042, 0.4209190
871.1863, 0.4788570
871.6684, 1.823928
872.1505, 2.857213
872.6326, 2.690538
873.1147, 1.806853
873.5969, 0.8633510
874.0790, 0.3275020
874.5611, 0.5324040
875.0432, 1.320127
875.5253, 2.700220
876.0074, 2.975297
876.4896, 2.603502
876.9717, 1.663101
877.4538, 0.4188630
877.9359, 0.3969430
878.4180, 0.4704760
878.9001, 0.2543010
879.3823, 1.4222000E-02
879.8644, 0.3579580
880.3465, 1.132340
880.8286, 2.137265
881.3107, 2.944350
881.7928, 3.389941
882.2750, 3.538370
882.7571, 3.387672
883.2392, 3.022377
883.7213, 2.645904
884.2034, 2.270406
884.6855, 2.187450
885.1677, 2.515461
885.6498, 2.769031
886.1319, 2.547688
886.6140, 2.011687
887.0961, 1.559729
887.5782, 1.120084
888.0604, 1.073872
888.5425, 1.959330
889.0246, 2.496177
889.5067, 1.673067
889.9888, 0.5347820
890.4709, 0.4742540
890.9531, 1.527992
891.4352, 2.034872
891.9173, 1.007176
892.3994, 0.1779230
892.8815, 0.3452370
893.3636, 0.9682350
893.8458, 1.782190
894.3279, 2.538597
894.8100, 2.715860
895.2921, 2.077877
895.7742, 1.285405
896.2563, 1.049618
896.7385, 1.162957
897.2206, 1.286594
897.7027, 1.431358
898.1848, 1.810295
898.6669, 2.472532
899.1490, 2.919953
899.6312, 2.590415
900.1133, 1.768242
900.5954, 1.710974
901.0775, 2.552995
901.5596, 2.479720
902.0417, 0.9101920
902.5239, 0.5032910
903.0060, 0.7934880
903.4881, 0.2837480
903.9702, 0.4921730
904.4523, 1.695436
904.9344, 2.307381
905.4166, 1.804233
905.8987, 1.460834
906.3808, 1.786993
906.8629, 2.204541
907.3450, 2.226514
907.8271, 1.883811
908.3093, 1.402120
908.7914, 0.6205570
909.2735, 0.1584990
909.7556, 0.4800760
910.2377, 1.073561
910.7198, 1.599575
911.2020, 2.003860
911.6841, 2.243694
912.1662, 2.318398
912.6483, 2.354122
913.1304, 2.561088
913.6125, 2.699893
914.0947, 2.199637
914.5768, 1.303231
915.0589, 0.8000250
915.5410, 0.8095390
916.0231, 1.022509
916.5052, 1.243824
916.9874, 1.561795
917.4695, 2.258568
917.9516, 3.364545
918.4337, 4.015903
918.9158, 4.137651
919.3979, 3.957807
919.8801, 3.420838
920.3622, 2.993269
920.8443, 3.053323
921.3264, 3.516504
921.8085, 3.473208
922.2906, 2.245362
922.7728, 1.623839
923.2549, 2.298173
923.7370, 2.900917
924.2191, 2.585840
924.7012, 1.887637
925.1833, 1.657031
925.6655, 2.007639
926.1476, 2.351076
926.6297, 2.645916
927.1118, 2.734194
927.5939, 2.360931
928.0760, 1.863665
928.5582, 1.638857
929.0403, 1.644672
929.5224, 1.509305
930.0045, 1.004134
930.4866, 0.7685890
930.9688, 1.820010
931.4509, 3.252320
931.9330, 3.446792
932.4151, 2.742832
932.8972, 2.536914
933.3793, 3.104606
933.8615, 3.454827
934.3436, 2.616846
934.8257, 1.212981
935.3078, 0.8992670
935.7899, 1.557165
936.2720, 1.789638
936.7542, 1.411291
937.2363, 1.316368
937.7184, 2.037855
938.2005, 2.907310
938.6826, 2.846179
939.1647, 1.822192
939.6469, 1.419937
940.1290, 2.001528
940.6111, 2.315960
941.0932, 1.973871
941.5753, 1.512053
942.0574, 1.361128
942.5396, 1.362944
943.0217, 1.003512
943.5038, 5.7753000E-02
943.9859, 0.4342150
944.4680, 0.5591290
944.9501, 1.552804
945.4323, 1.888834
945.9144, 2.084010
946.3965, 2.927185
946.8786, 4.214989
947.3607, 4.767606
947.8428, 3.924235
948.3250, 2.878977
948.8071, 1.973594
949.2892, 1.462043
949.7713, 1.803746
950.2534, 2.545434
950.7355, 2.755376
951.2177, 2.208402
951.6998, 1.365221
952.1819, 0.2712320
952.6640, 0.5372700
953.1461, 0.1230930
953.6282, 1.525769
954.1104, 1.703520
954.5925, 0.6909710
955.0746, 0.2607900
955.5567, 1.302974
956.0388, 2.706718
956.5209, 2.968231
957.0031, 2.278632
957.4852, 1.445525
957.9673, 0.4694210
958.4494, 7.8562997E-02
958.9315, 0.4966910
959.4136, 1.054708
959.8958, 1.307331
960.3779, 1.223914
960.8600, 0.6844850
961.3421, 0.5601870
961.8242, 0.5477580
962.3063, 1.354719
962.7885, 2.896664
963.2706, 3.399514
963.7527, 3.170889
964.2348, 2.222410
964.7169, 0.7276810
965.1990, 2.7912000E-02
965.6812, 0.5397540
966.1633, 0.9063140
966.6454, 0.9704550
967.1275, 0.9580950
967.6096, 0.8541760
968.0917, 0.7916080
968.5739, 0.9139820
969.0560, 1.230329
969.5381, 1.731423
970.0202, 2.876890
970.5023, 3.595461
970.9844, 3.208812
971.4666, 2.522582
971.9487, 2.059466
972.4308, 1.847850
972.9129, 1.856671
973.3950, 2.069971
973.8771, 2.243774
974.3593, 2.423123
974.8414, 2.310199
975.3235, 1.102684
975.8056, 0.2656310
976.2877, 0.1366500
976.7698, 1.260039
977.2520, 2.490573
977.7341, 2.878230
978.2162, 3.324382
978.6983, 2.971274
979.1804, 2.976415
979.6625, 2.342968
980.1447, 1.343659
980.6268, 1.017890
981.1089, 1.515274
981.5910, 1.986193
982.0731, 1.826200
982.5552, 1.441090
983.0374, 1.626862
983.5195, 2.288154
984.0016, 2.740421
984.4837, 2.963513
984.9658, 3.143302
985.4479, 3.370516
985.9301, 3.213066
986.4122, 2.146506
986.8943, 0.5738800
987.3764, 1.9299001E-02
987.8585, 0.6369700
988.3406, 1.362090
988.8228, 2.332130
989.3049, 2.687006
989.7870, 1.794907
990.2691, 0.6351570
990.7512, 0.3715060
991.2333, 0.9392940
991.7155, 1.594020
992.1976, 2.790237
992.6797, 3.059744
993.1618, 1.407313
993.6439, 6.2602997E-02
994.1260, 0.3140380
994.6082, 1.337950
995.0903, 2.069242
995.5724, 2.511600
996.0545, 2.588603
996.5366, 1.750257
997.0187, 1.332238
997.5009, 2.023589
997.9830, 2.710011
998.4651, 2.570760
998.9472, 2.020107
999.4293, 1.885000
999.9114, 2.305830
1000.394, 2.382067
1000.876, 1.342217
1001.358, 0.5747120
1001.840, 0.8690660
1002.322, 1.524859
1002.804, 2.050898
1003.286, 2.302538
1003.768, 2.028039
1004.250, 1.121794
1004.733, 0.4040000
1005.215, 0.5872180
1005.697, 0.8301180
1006.179, 0.1210060
1006.661, 0.6599290
1007.143, 0.1176630
1007.625, 1.458619
1008.107, 2.837647
1008.590, 3.519453
1009.072, 3.631245
1009.554, 2.894827
1010.036, 1.963006
1010.518, 1.677971
1011.000, 1.800271
1011.482, 1.598438
1011.964, 1.030983
1012.446, 0.5400210
1012.929, 0.3485780
1013.411, 0.4571590
1013.893, 1.027311
1014.375, 1.815589
1014.857, 2.404229
1015.339, 2.764426
1015.821, 2.751504
1016.303, 2.398494
1016.786, 2.223727
1017.268, 2.614789
1017.750, 3.154019
1018.232, 3.141820
1018.714, 2.688503
1019.196, 2.113029
1019.678, 1.503055
1020.160, 1.321468
1020.642, 1.649165
1021.125, 1.799478
1021.607, 1.169190
1022.089, 0.1829430
1022.571, 0.2293770
1023.053, 8.5063003E-02
1023.535, 0.5527860
1024.017, 1.725015
1024.499, 2.158826
1024.981, 1.368234
1025.464, 0.3508490
1025.946, 3.0887000E-02
1026.428, 0.1353230
1026.910, 0.7349080
1027.392, 1.888306
1027.874, 2.207948
1028.356, 1.453754
1028.838, 0.7790880
1029.321, 0.5277850
1029.803, 0.6731000
1030.285, 1.289054
1030.767, 2.216733
1031.249, 2.782278
1031.731, 3.044241
1032.213, 2.643887
1032.695, 1.239507
1033.177, 6.9479998E-03
1033.660, 0.7117250
1034.142, 0.9482550
1034.624, 0.6748200
1035.106, 2.7618000E-02
1035.588, 0.7154360
1036.070, 1.596438
1036.552, 1.926877
1037.034, 1.270745
1037.516, 0.7997950
1037.999, 1.095036
1038.481, 1.620399
1038.963, 1.814009
1039.445, 1.718150
1039.927, 1.659294
1040.409, 1.631570
1040.891, 1.654068
1041.373, 1.921319
1041.856, 1.989815
1042.338, 1.313072
1042.820, 0.6904100
1043.302, 1.045241
1043.784, 2.191327
1044.266, 2.971039
1044.748, 3.286833
1045.230, 3.272711
1045.713, 2.689950
1046.195, 2.084546
1046.677, 1.343896
1047.159, 0.9194310
1047.641, 1.658602
1048.123, 3.300390
1048.605, 4.005533
1049.087, 2.746076
1049.569, 2.066078
1050.052, 2.993041
1050.534, 3.787139
1051.016, 3.419849
1051.498, 2.671370
1051.980, 2.429669
1052.462, 2.670687
1052.944, 2.854860
1053.426, 2.886844
1053.908, 2.858242
1054.391, 2.959319
1054.873, 2.808530
1055.355, 1.641041
1055.837, 0.5145050
1056.319, 1.069008
1056.801, 2.919820
1057.283, 3.601170
1057.765, 1.838310
1058.248, 0.5421560
1058.730, 0.8681760
1059.212, 1.529528
1059.694, 2.095900
1060.176, 2.407193
1060.658, 2.114971
1061.140, 1.416233
1061.622, 1.207232
1062.104, 2.005084
1062.587, 2.513175
1063.069, 2.073311
1063.551, 1.430485
1064.033, 0.5340240
1064.515, 3.0512000E-02
1064.997, 0.9563220
1065.479, 2.993036
1065.961, 4.124933
1066.443, 3.628401
1066.926, 2.786224
1067.408, 1.819709
1067.890, 1.003200
1068.372, 0.4054490
1068.854, 0.1121210
1069.336, 0.3611040
1069.818, 0.9876860
1070.300, 1.482638
1070.783, 1.702216
1071.265, 1.781397
1071.747, 1.783934
1072.229, 1.660958
1072.711, 1.197258
1073.193, 0.7333710
1073.675, 0.6144590
1074.157, 0.8315030
1074.640, 1.267146
1075.122, 1.914914
1075.604, 2.578158
1076.086, 3.597872
1076.568, 4.096939
1077.050, 2.881002
1077.532, 1.428125
1078.014, 1.421472
1078.496, 2.470449
1078.979, 3.211842
1079.461, 3.320112
1079.943, 3.507197
1080.425, 4.621680
1080.907, 5.331312
1081.389, 4.494644
1081.871, 3.211202
1082.353, 2.409374
1082.835, 2.056632
1083.318, 1.860702
1083.800, 1.731302
1084.282, 1.820577
1084.764, 2.559651
1085.246, 3.060899
1085.728, 2.627820
1086.210, 2.001454
1086.692, 1.835261
1087.175, 1.951234
1087.657, 1.944380
1088.139, 1.745624
1088.621, 1.556299
1089.103, 1.488532
1089.585, 1.400705
1090.067, 0.9053930
1090.549, 0.6912460
1091.031, 1.829914
1091.514, 3.272440
1091.996, 3.250566
1092.478, 1.793168
1092.960, 0.9621070
1093.442, 1.810674
1093.924, 2.556641
1094.406, 2.346645
1094.888, 2.028386
1095.370, 2.267255
1095.853, 2.656455
1096.335, 2.537526
1096.817, 1.993180
1097.299, 1.792525
1097.781, 2.358915
1098.263, 2.709544
1098.745, 2.656092
1099.228, 2.165075
1099.710, 0.7577180
1100.192, 0.7455990
1100.674, 1.618104
1101.156, 1.812849
1101.638, 1.357937
1102.120, 4.3476999E-02
1102.602, 1.096839
1103.084, 1.980238
1103.567, 2.433246
1104.049, 1.957050
1104.531, 1.409792
1105.013, 1.766424
1105.495, 2.568426
1105.977, 2.499735
1106.459, 1.176745
1106.941, 0.5590240
1107.423, 1.366762
1107.906, 2.365207
1108.388, 3.620925
1108.870, 4.563784
1109.352, 4.753389
1109.834, 4.405073
1110.316, 3.824047
1110.798, 3.011910
1111.280, 2.313670
1111.763, 1.687949
1112.245, 1.276633
1112.727, 0.8980310
1113.209, 0.9625190
1113.691, 2.155326
1114.173, 3.594396
1114.655, 4.090219
1115.137, 3.714410
1115.620, 3.510582
1116.102, 3.850799
1116.584, 3.684280
1117.066, 2.375836
1117.548, 1.493746
1118.030, 1.845511
1118.512, 2.559274
1118.994, 2.870352
1119.476, 2.843472
1119.958, 2.736507
1120.441, 2.553020
1120.923, 2.251513
1121.405, 1.648346
1121.887, 1.341091
1122.369, 1.529216
1122.851, 1.999411
1123.333, 2.800875
1123.815, 3.499524
1124.298, 2.968004
1124.780, 1.024472
1125.262, 0.3235050
1125.744, 1.300686
1126.226, 1.880764
1126.708, 1.580950
1127.190, 1.275512
1127.672, 1.430780
1128.155, 1.864199
1128.637, 2.341487
1129.119, 2.847219
1129.601, 3.346033
1130.083, 3.907496
1130.565, 3.518574
1131.047, 1.926895
1131.529, 0.8552020
1132.011, 1.045548
1132.494, 1.677094
1132.976, 1.981089
1133.458, 1.964391
1133.940, 1.391556
1134.422, 0.3775660
1134.904, 0.8339280
1135.386, 2.712898
1135.868, 3.024918
1136.350, 1.001064
1136.833, 0.7432870
1137.315, 0.3175490
1137.797, 1.148350
1138.279, 1.977841
1138.761, 2.220524
1139.243, 1.858970
1139.725, 1.049170
1140.207, 0.3038160
1140.690, 0.2172000
1141.172, 7.1539000E-02
1141.654, 0.9378940
1142.136, 1.906725
1142.618, 1.568259
1143.100, 0.9124650
1143.582, 2.130330
1144.064, 4.079839
1144.547, 4.187135
1145.029, 2.764460
1145.511, 1.457697
1145.993, 0.8025750
1146.475, 0.6230580
1146.957, 0.8825400
1147.439, 1.350976
1147.921, 1.958114
1148.403, 2.516421
1148.885, 2.757431
1149.368, 2.794001
1149.850, 2.965984
1150.332, 3.179981
1150.814, 2.729333
1151.296, 1.126583
1151.778, 6.3481003E-02
1152.260, 0.9631220
1152.742, 2.277461
1153.225, 3.449516
1153.707, 4.091667
1154.189, 3.413284
1154.671, 2.033453
1155.153, 1.431867
1155.635, 1.913097
1156.117, 2.223571
1156.599, 1.754956
1157.082, 1.362548
1157.564, 1.239605
1158.046, 1.315401
1158.528, 1.797771
1159.010, 2.329839
1159.492, 2.408693
1159.974, 2.100883
1160.456, 1.698145
1160.938, 0.9457710
1161.421, 0.6281460
1161.903, 0.8591520
1162.385, 1.428197
1162.867, 2.883677
1163.349, 3.927694
1163.831, 3.135321
1164.313, 1.433243
1164.795, 1.184965
1165.277, 2.639644
1165.760, 3.456467
1166.242, 3.565317
1166.724, 3.143182
1167.206, 1.922477
1167.688, 1.234474
1168.170, 1.987938
1168.652, 3.029202
1169.134, 2.812650
1169.617, 1.658119
1170.099, 1.050987
1170.581, 0.9556200
1171.063, 1.380185
1171.545, 2.380327
1172.027, 3.067895
1172.509, 3.175437
1172.991, 2.979151
1173.474, 2.664171
1173.956, 2.323611
1174.438, 2.112613
1174.920, 2.008700
1175.402, 1.956252
1175.884, 1.946796
1176.366, 1.998922
1176.848, 2.077455
1177.330, 1.915270
1177.813, 1.423372
1178.295, 1.220951
1178.777, 2.114052
1179.259, 3.203774
1179.741, 3.399743
1180.223, 3.055005
1180.705, 2.413100
1181.187, 1.742552
1181.669, 1.632875
1182.152, 2.040970
1182.634, 2.096187
1183.116, 1.217256
1183.598, 0.6456480
1184.080, 1.552058
1184.562, 2.508128
1185.044, 2.450701
1185.526, 2.018054
1186.009, 2.164381
1186.491, 2.659277
1186.973, 2.697954
1187.455, 2.126119
1187.937, 1.549193
1188.419, 0.7523590
1188.901, 0.4551080
1189.383, 1.171310
1189.865, 1.976842
1190.348, 2.267370
1190.830, 2.535034
1191.312, 3.651822
1191.794, 5.225803
1192.276, 5.190100
1192.758, 2.684560
1193.240, 1.563314
1193.722, 2.288278
1194.204, 3.088047
1194.687, 3.571855
1195.169, 3.760015
1195.651, 3.562279
1196.133, 3.051341
1196.615, 2.315171
1197.097, 1.470133
1197.579, 1.300631
1198.061, 1.768791
1198.544, 2.216465
1199.026, 2.584089
1199.508, 2.541246
1199.990, 1.999944
1200.472, 1.551912
1200.954, 1.695614
1201.436, 2.042263
1201.918, 2.070266
1202.401, 1.825142
1202.883, 1.099298
1203.365, 0.3129990
1203.847, 0.6678180
1204.329, 1.931913
1204.811, 2.735349
1205.293, 2.575746
1205.775, 2.104496
1206.257, 1.624526
1206.740, 1.189454
1207.222, 0.6567720
1207.704, 0.3616450
1208.186, 0.9279340
1208.668, 1.742890
1209.150, 1.696208
1209.632, 0.9495050
1210.114, 0.9213630
1210.596, 2.311774
1211.079, 3.134091
1211.561, 2.678097
1212.043, 2.048960
1212.525, 1.218732
1213.007, 0.7206860
1213.489, 1.294464
1213.971, 2.085171
1214.453, 1.600476
1214.936, 2.5300000E-02
1215.418, 0.2793970
1215.900, 1.374549
1216.382, 2.346976
1216.864, 2.393176
1217.346, 2.180206
1217.828, 1.860876
1218.310, 1.657440
1218.792, 1.788190
1219.275, 1.927863
1219.757, 1.241694
1220.239, 1.712818
1220.721, 0.4127750
1221.203, 1.853422
1221.685, 2.358224
1222.167, 1.853852
1222.649, 1.583622
1223.131, 1.938228
1223.614, 2.008623
1224.096, 0.9154850
1224.578, 0.1647770
1225.060, 0.2772080
1225.542, 1.274667
1226.024, 2.025013
1226.506, 2.282051
1226.988, 1.156169
1227.471, 0.6387910
1227.953, 0.7089960
1228.435, 1.688401
1228.917, 3.350303
1229.399, 2.361351
1229.881, 1.390262
1230.363, 1.246345
1230.845, 1.439005
1231.328, 1.996559
1231.810, 2.494373
1232.292, 2.235753
1232.774, 1.498443
1233.256, 1.465742
1233.738, 1.346868
1234.220, 1.127357
1234.702, 1.709378
1235.184, 1.323781
1235.667, 1.983670
1236.149, 2.732402
1236.631, 3.107029
1237.113, 3.189319
1237.595, 3.010113
1238.077, 2.733392
1238.559, 2.940725
1239.041, 3.501560
1239.523, 3.816008
1240.006, 3.839864
1240.488, 3.526296
1240.970, 2.871531
1241.452, 1.711721
1241.934, 5.3601999E-02
1242.416, 1.242369
1242.898, 0.3278350
1243.380, 1.174327
1243.863, 2.006745
1244.345, 2.368783
1244.827, 2.209658
1245.309, 1.906824
1245.791, 2.055582
1246.273, 2.662010
1246.755, 3.322837
1247.237, 4.026910
1247.719, 4.465692
1248.202, 4.743529
1248.684, 4.506500
1249.166, 3.032960
1249.648, 1.738555
1250.130, 1.657164
1250.612, 0.6838170
1251.094, 1.234213
1251.576, 9.6717000E-02
1252.058, 0.1003770
1252.541, 4.4367000E-02
1253.023, 1.5090000E-02
1253.505, 1.231542
1253.987, 1.014031
1254.469, 2.828779
1254.951, 3.994300
1255.433, 2.910238
1255.915, 1.158898
1256.398, 0.4604110
1256.880, 0.4590950
1257.362, 1.141046
1257.844, 2.047132
1258.326, 1.635721
1258.808, 0.4976810
1259.290, 0.2499030
1259.772, 1.030418
1260.255, 1.910616
1260.737, 2.562855
1261.219, 2.890329
1261.701, 2.519209
1262.183, 2.244098
1262.665, 2.453476
1263.147, 2.894824
1263.629, 3.850266
1264.111, 4.591665
1264.594, 3.583037
1265.076, 1.733384
1265.558, 0.7574500
1266.040, 0.8700710
1266.522, 1.085899
1267.004, 1.388297
1267.486, 1.879969
1267.968, 2.625128
1268.450, 3.454140
1268.933, 4.322863
1269.415, 4.502799
1269.897, 2.970048
1270.379, 0.7016720
1270.861, 0.1665970
1271.343, 0.1051260
1271.825, 1.324206
1272.307, 2.927939
1272.790, 3.026102
1273.272, 1.823133
1273.754, 1.211093
1274.236, 1.890710
1274.718, 2.499444
1275.200, 1.975325
1275.682, 1.402779
1276.164, 1.268708
1276.646, 1.446292
1277.129, 2.307099
1277.611, 3.060618
1278.093, 2.470135
1278.575, 0.9067100
1279.057, 0.4689390
1279.539, 1.294507
1280.021, 1.945421
1280.503, 2.550854
1280.985, 2.548341
1281.468, 1.713317
1281.950, 0.8543830
1282.432, 0.2292970
1282.914, 4.4992998E-02
1283.396, 0.1392380
1283.878, 0.5997110
1284.360, 1.165072
1284.842, 1.289292
1285.325, 0.9356420
1285.807, 0.0000000E+00
##END=



