##NAMES=Tetrahedrite-(Zn)
##RRUFFID=R050302
##IDEAL CHEMISTRY=Cu^1+^_6_(Cu^1+^_4_Zn^2+^_2_)Sb^3+^_4_S^2-^_13_
##LOCALITY=Casapalca, Peru
##OWNER=RRUFF
##SOURCE=Eugene Schlepp
##DESCRIPTION=Black tetrahedra associated with quartz and pyrite
##STATUS=The identification of this mineral has been confirmed by X-ray diffraction and chemical analysis
##URL=rruff.info/R050302
##MEASURED CHEMISTRY=(Cu_10.02_Zn_1.76_Fe_0.22_)_Σ=12_(Sb_2.42_As_1.58_)_Σ=4_S_13.00_
136.2261, 0.0000000E+00
136.7083, 0.3253250
137.1904, 0.7056580
137.6725, 1.042292
138.1546, 1.297588
138.6367, 1.458452
139.1188, 1.492455
139.6010, 1.363678
140.0831, 1.028070
140.5652, 0.8292260
141.0473, 0.8136290
141.5294, 0.8721660
142.0115, 0.9143120
142.4937, 0.8461670
142.9758, 0.7247980
143.4579, 0.9548020
143.9400, 1.671860
144.4221, 2.060776
144.9042, 2.029413
145.3864, 1.729370
145.8685, 1.410631
146.3506, 1.048832
146.8327, 0.7519130
147.3148, 0.3875960
147.7969, 0.1369060
148.2791, 0.3271960
148.7612, 1.2040000E-03
149.2433, 0.6338120
149.7254, 1.142368
150.2075, 1.636349
150.6896, 1.920353
151.1718, 1.865696
151.6539, 0.9380000
152.1360, 0.4810830
152.6181, 0.7798900
153.1002, 1.600576
153.5823, 2.236349
154.0645, 2.766874
154.5466, 3.037384
155.0287, 2.943094
155.5108, 2.145098
155.9929, 1.461727
156.4750, 0.7495100
156.9572, 0.1396030
157.4393, 1.8347001E-02
157.9214, 0.8963260
158.4035, 1.937899
158.8856, 2.555620
159.3677, 2.406420
159.8499, 2.055134
160.3320, 1.498840
160.8141, 0.8009050
161.2962, 0.3385410
161.7783, 0.4423470
162.2604, 0.8083820
162.7426, 1.109695
163.2247, 1.060925
163.7068, 0.9265960
164.1889, 0.7511040
164.6710, 0.5532860
165.1531, 0.4962840
165.6353, 0.6675660
166.1174, 0.9888190
166.5995, 1.292685
167.0816, 1.109676
167.5637, 0.8940470
168.0458, 0.9767040
168.5280, 1.354887
169.0101, 1.657309
169.4922, 1.635601
169.9743, 1.421553
170.4564, 1.198013
170.9385, 1.022959
171.4207, 0.9463270
171.9028, 0.8224680
172.3849, 0.6432650
172.8670, 0.5753770
173.3491, 0.9543930
173.8312, 1.546772
174.3134, 1.840958
174.7955, 1.212915
175.2776, 0.4094700
175.7597, 0.3815980
176.2418, 1.263769
176.7239, 2.189720
177.2061, 2.329020
177.6882, 1.862518
178.1703, 1.388044
178.6524, 1.114944
179.1345, 0.9598870
179.6166, 1.019106
180.0988, 1.265949
180.5809, 1.531191
181.0630, 1.564651
181.5451, 1.430696
182.0272, 1.391293
182.5093, 1.737768
182.9915, 2.255657
183.4736, 2.414671
183.9557, 2.128822
184.4378, 1.672770
184.9199, 1.365507
185.4020, 1.242395
185.8842, 1.203804
186.3663, 1.274492
186.8484, 1.419220
187.3305, 1.285664
187.8126, 0.7683090
188.2947, 0.1731400
188.7769, 1.7809000E-02
189.2590, 0.2849810
189.7411, 0.6187040
190.2232, 0.8322980
190.7053, 0.9404790
191.1874, 1.067617
191.6696, 1.265936
192.1517, 1.413658
192.6338, 1.214754
193.1159, 0.6519790
193.5980, 0.2051010
194.0801, 0.3542690
194.5623, 1.013105
195.0444, 1.209932
195.5265, 0.7220970
196.0086, 7.7425003E-02
196.4907, 0.3778460
196.9728, 0.1350380
197.4550, 0.2296560
197.9371, 0.5072610
198.4192, 0.6984200
198.9013, 0.7581440
199.3834, 0.6339070
199.8655, 0.4260230
200.3477, 0.3733520
200.8298, 0.4894350
201.3119, 0.7098520
201.7940, 1.099739
202.2761, 1.704193
202.7582, 1.934614
203.2404, 1.628786
203.7225, 1.000393
204.2046, 0.6690370
204.6867, 0.7128620
205.1688, 0.7843610
205.6509, 0.6016540
206.1331, 8.9097999E-02
206.6152, 0.1558250
207.0973, 2.5084000E-02
207.5794, 0.3470250
208.0615, 0.5425190
208.5436, 0.5248360
209.0257, 0.4100070
209.5079, 0.2402380
209.9900, 9.6110003E-03
210.4721, 0.2000180
210.9542, 0.3350050
211.4363, 0.3984150
211.9184, 0.3057860
212.4006, 1.4570000E-02
212.8827, 0.3371830
213.3648, 0.5056080
213.8469, 0.4735110
214.3290, 0.4726410
214.8111, 0.5481450
215.2933, 0.6550160
215.7754, 0.6437930
216.2575, 0.4548780
216.7396, 0.2372060
217.2217, 7.7615999E-02
217.7038, 1.0950000E-02
218.1860, 7.3298000E-02
218.6681, 8.0159999E-02
219.1502, 6.8962000E-02
219.6323, 0.1926590
220.1144, 0.5439570
220.5965, 0.8707350
221.0787, 1.016500
221.5608, 0.9177000
222.0429, 0.8178860
222.5250, 0.7704410
223.0071, 0.7283650
223.4892, 0.4917370
223.9714, 8.3517000E-02
224.4535, 0.6276470
224.9356, 0.9468800
225.4177, 0.9836770
225.8998, 0.9176690
226.3819, 0.7078380
226.8641, 0.4062210
227.3462, 0.1733700
227.8283, 8.2882002E-02
228.3104, 0.1319140
228.7925, 0.2368070
229.2746, 1.476765
229.7568, 2.071264
230.2389, 1.676332
230.7210, 0.6523650
231.2031, 0.1961210
231.6852, 0.6499060
232.1673, 1.157690
232.6495, 1.294374
233.1316, 0.8886780
233.6137, 0.4523600
234.0958, 0.1129890
234.5779, 0.6735210
235.0600, 0.7706200
235.5422, 8.7053001E-02
236.0243, 0.5999450
236.5064, 0.9298860
236.9885, 0.7161770
237.4706, 0.5483880
237.9527, 0.4051530
238.4349, 0.3198810
238.9170, 0.4137080
239.3991, 0.8881910
239.8812, 1.237869
240.3633, 1.181005
240.8454, 0.3651810
241.3276, 4.8737001E-02
241.8097, 0.5153430
242.2918, 1.379669
242.7739, 1.764097
243.2560, 1.360546
243.7381, 0.9538150
244.2203, 0.8963490
244.7024, 1.451941
245.1845, 1.569082
245.6666, 0.9186460
246.1487, 3.3583000E-02
246.6308, 0.3242380
247.1130, 0.4272460
247.5951, 1.280193
248.0772, 1.947258
248.5593, 2.480764
249.0414, 2.596916
249.5235, 2.014767
250.0057, 1.191019
250.4878, 0.9035570
250.9699, 1.429976
251.4520, 1.988831
251.9341, 2.412367
252.4162, 2.758059
252.8984, 2.663412
253.3805, 1.856411
253.8626, 0.7843970
254.3447, 0.1900480
254.8268, 0.2844940
255.3089, 0.5215230
255.7911, 0.7799510
256.2732, 1.078327
256.7553, 1.174168
257.2374, 0.9455300
257.7195, 0.6290340
258.2017, 0.5113330
258.6838, 0.6167030
259.1659, 0.8895630
259.6480, 1.407494
260.1301, 2.187229
260.6122, 2.629896
261.0944, 2.653397
261.5765, 2.441053
262.0586, 2.173809
262.5407, 1.847168
263.0228, 1.474228
263.5049, 1.021667
263.9871, 0.4820920
264.4692, 6.4594001E-02
264.9513, 0.2765430
265.4334, 0.3609120
265.9155, 8.3296001E-02
266.3976, 1.306902
266.8798, 2.155945
267.3619, 2.318642
267.8440, 1.882975
268.3261, 1.638756
268.8082, 1.684494
269.2903, 1.730394
269.7725, 1.423141
270.2546, 0.5859530
270.7367, 0.3532910
271.2188, 1.127151
271.7009, 2.568090
272.1830, 3.172098
272.6652, 2.703791
273.1473, 2.028994
273.6294, 1.725346
274.1115, 1.848995
274.5936, 2.030062
275.0757, 2.263626
275.5579, 2.502604
276.0400, 2.563105
276.5221, 2.392778
277.0042, 2.273275
277.4863, 2.377934
277.9684, 2.707270
278.4506, 3.076233
278.9327, 3.551832
279.4148, 4.002033
279.8969, 4.038670
280.3790, 3.596985
280.8611, 3.172501
281.3433, 3.049532
281.8254, 3.244284
282.3075, 3.478838
282.7896, 3.795374
283.2717, 4.043657
283.7538, 3.864138
284.2360, 3.233984
284.7181, 2.772091
285.2002, 2.806751
285.6823, 3.282261
286.1644, 3.794477
286.6465, 4.380293
287.1287, 4.885519
287.6108, 5.066341
288.0929, 4.938705
288.5750, 4.797060
289.0571, 4.752689
289.5392, 4.781199
290.0214, 4.779331
290.5035, 4.741873
290.9856, 4.716122
291.4677, 4.747488
291.9498, 4.830244
292.4319, 4.914038
292.9141, 4.956585
293.3962, 5.085724
293.8783, 5.656172
294.3604, 6.672770
294.8425, 7.470512
295.3246, 7.145103
295.8068, 6.075129
296.2889, 5.593189
296.7710, 6.260975
297.2531, 7.370869
297.7352, 7.706820
298.2173, 7.338104
298.6995, 6.858982
299.1816, 6.637974
299.6637, 6.621943
300.1458, 6.754578
300.6279, 7.114388
301.1100, 7.424114
301.5922, 7.156128
302.0743, 6.467779
302.5564, 5.997971
303.0385, 6.400919
303.5206, 7.162048
304.0027, 7.521885
304.4849, 7.321018
304.9670, 6.944324
305.4491, 6.591389
305.9312, 6.318298
306.4133, 6.259670
306.8954, 6.733845
307.3776, 7.321291
307.8597, 7.549854
308.3418, 7.365797
308.8239, 7.131859
309.3060, 7.094461
309.7881, 7.187975
310.2703, 7.309233
310.7524, 7.374186
311.2345, 7.483093
311.7166, 7.713551
312.1987, 8.064774
312.6808, 8.473465
313.1630, 8.993275
313.6451, 9.521614
314.1272, 9.953568
314.6093, 10.32498
315.0914, 10.52052
315.5735, 10.38452
316.0557, 9.975647
316.5378, 9.606361
317.0199, 9.376366
317.5020, 9.256939
317.9841, 9.215343
318.4662, 9.161739
318.9484, 9.314413
319.4305, 9.934790
319.9126, 10.83569
320.3947, 11.52532
320.8768, 11.90106
321.3589, 12.00015
321.8411, 11.76664
322.3232, 10.97015
322.8053, 10.39811
323.2874, 10.14370
323.7695, 10.22230
324.2516, 10.64441
324.7338, 12.06266
325.2159, 13.22593
325.6980, 13.65242
326.1801, 13.13011
326.6622, 12.73602
327.1443, 12.56018
327.6265, 12.53689
328.1086, 12.60208
328.5907, 12.84324
329.0728, 13.07133
329.5549, 13.24212
330.0370, 13.35545
330.5192, 13.52128
331.0013, 13.74979
331.4834, 14.02315
331.9655, 14.36123
332.4476, 15.02000
332.9297, 15.29073
333.4118, 14.97650
333.8940, 14.21349
334.3761, 13.55855
334.8582, 12.90772
335.3403, 12.54786
335.8224, 12.71992
336.3045, 13.72312
336.7867, 14.33487
337.2688, 14.38068
337.7509, 14.14148
338.2330, 14.17600
338.7151, 14.51570
339.1972, 15.07339
339.6794, 15.94568
340.1615, 17.10514
340.6436, 17.64072
341.1257, 17.43323
341.6078, 16.98135
342.0899, 16.81890
342.5721, 16.91202
343.0542, 17.22471
343.5363, 17.92589
344.0184, 18.85576
344.5005, 19.25473
344.9826, 19.06692
345.4648, 18.73853
345.9469, 18.55955
346.4290, 18.55155
346.9111, 18.92820
347.3932, 19.85247
347.8753, 20.99734
348.3575, 21.78392
348.8396, 22.22125
349.3217, 22.40727
349.8038, 22.18212
350.2859, 21.75849
350.7680, 21.73617
351.2502, 22.27686
351.7323, 22.86618
352.2144, 22.83485
352.6965, 22.34797
353.1786, 21.90661
353.6607, 21.88300
354.1429, 21.98883
354.6250, 21.84393
355.1071, 21.42718
355.5892, 20.95917
356.0713, 20.53901
356.5534, 20.19302
357.0356, 19.96253
357.5177, 20.02629
357.9998, 20.09080
358.4819, 19.89703
358.9640, 19.45979
359.4461, 19.02058
359.9283, 18.64266
360.4104, 18.33935
360.8925, 18.14267
361.3746, 18.17461
361.8567, 18.13897
362.3388, 17.83216
362.8210, 17.33590
363.3031, 16.85747
363.7852, 16.48613
364.2673, 16.12508
364.7494, 15.69460
365.2315, 15.12235
365.7137, 14.71403
366.1958, 14.84010
366.6779, 15.05766
367.1600, 14.84639
367.6421, 13.47814
368.1242, 12.37024
368.6064, 11.92248
369.0885, 12.17638
369.5706, 12.27192
370.0527, 12.07973
370.5348, 11.83037
371.0169, 11.67383
371.4991, 11.69232
371.9812, 11.69730
372.4633, 11.66780
372.9454, 11.57092
373.4275, 11.35076
373.9096, 10.98086
374.3918, 10.53750
374.8739, 10.03889
375.3560, 9.395811
375.8381, 8.987267
376.3202, 8.878773
376.8023, 8.890451
377.2845, 8.795595
377.7666, 8.608530
378.2487, 8.269667
378.7308, 7.737783
379.2129, 7.037636
379.6950, 6.345781
380.1772, 5.641260
380.6593, 4.981480
381.1414, 4.351389
381.6235, 3.777037
382.1056, 3.492102
382.5877, 3.658236
383.0699, 3.988403
383.5520, 3.943968
384.0341, 3.544971
384.5162, 3.010590
384.9983, 2.322685
385.4804, 1.624233
385.9626, 1.237331
386.4447, 1.212343
386.9268, 1.302313
387.4089, 1.228546
387.8910, 1.083134
388.3731, 1.036509
388.8553, 1.292290
389.3374, 1.559189
389.8195, 1.446648
390.3016, 0.9801900
390.7837, 0.5886590
391.2658, 0.6839730
391.7480, 0.9355810
392.2301, 0.9878060
392.7122, 0.5839200
393.1943, 0.1846960
393.6764, 1.0782000E-02
394.1585, 1.4477000E-02
394.6407, 6.2968999E-02
395.1228, 0.3325540
395.6049, 0.4654900
396.0870, 0.1694600
396.5691, 0.8510170
397.0512, 1.472855
397.5334, 1.086857
398.0155, 0.3083690
398.4976, 8.6197004E-02
398.9797, 0.6152880
399.4618, 1.022196
399.9439, 0.6706620
400.4261, 0.4340110
400.9082, 1.024305
401.3903, 0.7849180
401.8724, 0.3290580
402.3545, 4.0560000E-02
402.8366, 4.7530001E-03
403.3188, 4.2417999E-02
403.8009, 0.1404710
404.2830, 0.2516170
404.7651, 0.2700750
405.2472, 0.1696680
405.7293, 3.7802000E-02
406.2115, 0.1128920
406.6936, 0.2850300
407.1757, 0.3501910
407.6578, 0.2787840
408.1399, 0.1819100
408.6220, 0.1943240
409.1042, 0.3164250
409.5863, 0.4525830
410.0684, 0.5942650
410.5505, 0.7072960
411.0326, 0.6721900
411.5147, 0.4942230
411.9969, 0.3333970
412.4790, 0.3554380
412.9611, 0.4819700
413.4432, 0.5035280
413.9253, 0.3794240
414.4074, 0.2024130
414.8896, 3.8497001E-02
415.3717, 0.2676040
415.8538, 0.3015910
416.3359, 0.2023500
416.8180, 0.7817720
417.3001, 1.002516
417.7823, 0.8635880
418.2644, 0.5915100
418.7465, 0.1393900
419.2286, 0.3043300
419.7107, 0.5538260
420.1928, 0.5278020
420.6750, 0.3488560
421.1571, 4.1800000E-02
421.6392, 0.5593510
422.1213, 0.9748280
422.6034, 1.286523
423.0855, 1.434395
423.5677, 1.327030
424.0498, 0.8314180
424.5319, 0.5454990
425.0140, 0.6990800
425.4961, 0.9941120
425.9782, 1.126283
426.4604, 0.9408500
426.9425, 0.8266000
427.4246, 0.9153150
427.9067, 1.149111
428.3888, 1.062862
428.8709, 0.4044080
429.3531, 0.1289560
429.8352, 1.4881000E-02
430.3173, 0.9803770
430.7994, 1.366368
431.2815, 0.9509860
431.7636, 0.1626350
432.2458, 0.3479100
432.7279, 0.5744910
433.2100, 0.6280440
433.6921, 0.4921620
434.1742, 0.2199780
434.6563, 1.8710000E-03
435.1385, 0.1759870
435.6206, 0.2895380
436.1027, 0.2700800
436.5848, 0.1798760
437.0669, 0.2058690
437.5490, 0.4204440
438.0312, 0.6790100
438.5133, 0.8389500
438.9954, 0.9102710
439.4775, 0.9204920
439.9596, 0.8122260
440.4417, 0.6963790
440.9239, 0.7132680
441.4060, 0.8710900
441.8881, 0.9568200
442.3702, 0.6968570
442.8523, 0.3790450
443.3344, 0.2765650
443.8166, 0.7975170
444.2987, 1.158375
444.7808, 0.8816890
445.2629, 0.2285330
445.7450, 2.7551999E-02
446.2271, 0.7438480
446.7093, 1.532263
447.1914, 1.933018
447.6735, 1.781429
448.1556, 1.720349
448.6377, 1.878533
449.1198, 2.041574
449.6020, 1.954181
450.0841, 1.382733
450.5662, 1.078889
451.0483, 1.297996
451.5304, 1.865143
452.0125, 1.929697
452.4947, 1.326876
452.9768, 0.7273240
453.4589, 0.5007500
453.9410, 0.6541600
454.4231, 0.9065450
454.9052, 1.303509
455.3874, 1.690156
455.8695, 1.784519
456.3516, 1.593708
456.8337, 1.344557
457.3158, 1.087480
457.7979, 0.8916060
458.2801, 0.8497350
458.7622, 0.9167750
459.2443, 0.9624250
459.7264, 0.8433620
460.2085, 0.6710020
460.6906, 0.5828680
461.1728, 0.5962710
461.6549, 0.7054960
462.1370, 1.061584
462.6191, 1.485712
463.1012, 1.706661
463.5833, 1.347295
464.0655, 1.017337
464.5476, 1.102647
465.0297, 1.536157
465.5118, 1.741585
465.9939, 1.278507
466.4760, 0.7508960
466.9582, 0.4983000
467.4403, 0.7325790
467.9224, 0.9083750
468.4045, 1.045973
468.8866, 1.105389
469.3687, 0.9937640
469.8509, 0.4928550
470.3330, 0.2329020
470.8151, 0.4425140
471.2972, 1.061406
471.7793, 1.473472
472.2614, 1.673826
472.7436, 1.683122
473.2257, 1.403959
473.7078, 0.8373250
474.1899, 0.6246370
474.6720, 0.8583130
475.1541, 1.256392
475.6363, 1.360941
476.1184, 1.171679
476.6005, 1.050681
477.0826, 1.252742
477.5647, 1.571929
478.0468, 1.677264
478.5290, 1.579758
479.0111, 1.416777
479.4932, 1.160406
479.9753, 0.9225220
480.4574, 0.8598340
480.9395, 1.038754
481.4217, 1.274245
481.9038, 1.513962
482.3859, 1.700634
482.8680, 1.792883
483.3501, 1.709353
483.8322, 1.598242
484.3144, 1.471938
484.7965, 1.341742
485.2786, 1.318933
485.7607, 1.536923
486.2428, 1.774568
486.7249, 1.930369
487.2071, 1.995940
487.6892, 1.932665
488.1713, 1.613351
488.6534, 1.255958
489.1355, 1.266108
489.6176, 1.841154
490.0998, 2.122966
490.5819, 1.832878
491.0640, 1.126373
491.5461, 0.7699830
492.0282, 0.8000820
492.5103, 0.9554480
492.9925, 1.142022
493.4746, 1.318346
493.9567, 1.219197
494.4388, 0.7768020
494.9209, 0.3111640
495.4030, 0.1897720
495.8852, 0.3290370
496.3673, 0.5215850
496.8494, 0.7558490
497.3315, 0.9518700
497.8136, 0.9964660
498.2957, 0.9241170
498.7779, 0.8745780
499.2600, 0.9423500
499.7421, 1.038183
500.2242, 0.4749440
500.7063, 1.239110
501.1884, 1.661854
501.6706, 1.778519
502.1527, 0.6207920
502.6348, 1.108872
503.1169, 0.9206130
503.5990, 0.6910270
504.0811, 1.408484
504.5633, 0.4355450
505.0454, 1.140134
505.5275, 1.174875
506.0096, 1.515990
506.4917, 1.193259
506.9738, 1.075693
507.4560, 1.622235
507.9381, 1.800410
508.4202, 1.400741
508.9023, 1.760530
509.3844, 0.7630390
509.8665, 0.9563450
510.3487, 1.663468
510.8308, 1.291916
511.3129, 1.652733
511.7950, 1.736181
512.2772, 0.5466570
512.7593, 1.582369
513.2414, 1.663837
513.7235, 0.7520220
514.2056, 1.710429
514.6877, 0.9329520
515.1699, 0.7751550
515.6520, 1.083203
516.1341, 0.9047570
516.6162, 1.492867
517.0983, 1.342702
517.5804, 1.125724
518.0626, 1.194397
518.5447, 0.4456280
519.0268, 1.210248
519.5089, 0.9427820
519.9910, 1.191851
520.4731, 1.557378
520.9553, 1.031054
521.4374, 1.449461
521.9195, 0.4033540
522.4016, 0.5820260
522.8837, 0.6283780
523.3658, 0.9093060
523.8480, 1.072486
524.3301, 1.339793
524.8122, 1.458961
525.2943, 1.446502
525.7764, 1.403149
526.2585, 1.365347
526.7407, 1.299018
527.2228, 1.092599
527.7049, 0.7682450
528.1870, 0.4980580
528.6691, 0.3966710
529.1512, 0.4217660
529.6334, 0.5551500
530.1155, 0.8008340
530.5976, 0.9941760
531.0797, 1.126813
531.5618, 1.115714
532.0439, 0.8517040
532.5261, 0.1087680
533.0082, 0.7157150
533.4903, 0.4015740
533.9724, 0.4124980
534.4545, 0.8292880
534.9366, 0.3086940
535.4188, 8.3677001E-02
535.9009, 3.8733002E-02
536.3830, 0.4403290
536.8651, 0.7440080
537.3472, 0.8509740
537.8293, 0.8073280
538.3115, 0.5388670
538.7936, 1.0326000E-02
539.2757, 0.1745750
539.7578, 7.1672998E-02
540.2399, 0.4983530
540.7220, 0.8614170
541.2042, 1.137081
541.6863, 1.199078
542.1684, 0.9046680
542.6505, 0.5015030
543.1326, 0.3195870
543.6147, 0.3316970
544.0969, 0.4333460
544.5790, 0.6009370
545.0611, 0.8069190
545.5432, 1.076906
546.0253, 1.421777
546.5074, 1.624755
546.9896, 1.517715
547.4717, 1.274386
547.9538, 1.028941
548.4359, 0.6106840
548.9180, 0.4616800
549.4001, 0.8893570
549.8823, 1.520268
550.3644, 1.695582
550.8465, 1.165807
551.3286, 0.6452880
551.8107, 0.2904130
552.2928, 8.9350000E-02
552.7750, 2.9902000E-02
553.2571, 6.3952997E-02
553.7392, 2.1387000E-02
554.2213, 0.1579460
554.7034, 0.4289210
555.1855, 0.4675010
555.6677, 0.2216320
556.1498, 2.2488000E-02
556.6319, 0.3168410
557.1140, 0.9080740
557.5961, 1.401318
558.0782, 1.709262
558.5604, 1.838747
559.0425, 1.697236
559.5246, 1.374052
560.0067, 1.072733
560.4888, 0.7833580
560.9709, 0.6023410
561.4531, 0.7028890
561.9352, 1.086308
562.4173, 1.288013
562.8994, 1.125334
563.3815, 0.8686230
563.8636, 0.6305110
564.3458, 0.3573490
564.8279, 0.2753050
565.3100, 0.4793780
565.7921, 0.7537910
566.2742, 0.7929480
566.7563, 0.5680070
567.2385, 0.3981630
567.7206, 0.3660510
568.2027, 0.4118940
568.6848, 0.4289220
569.1669, 0.4157740
569.6490, 0.3590250
570.1312, 0.1272250
570.6133, 9.5934004E-02
571.0954, 3.9381001E-02
571.5775, 0.5140610
572.0596, 0.9125870
572.5417, 0.9028220
573.0239, 0.7396130
573.5060, 0.6335820
573.9881, 0.6166540
574.4702, 0.6694770
574.9523, 0.8193220
575.4344, 1.024700
575.9166, 1.235185
576.3987, 1.671589
576.8808, 1.806056
577.3629, 1.434090
577.8450, 0.7333560
578.3271, 0.2819850
578.8092, 0.1194780
579.2913, 9.6147999E-02
579.7734, 0.2166650
580.2556, 0.4460820
580.7377, 0.4409620
581.2198, 0.1766210
581.7019, 4.9545001E-02
582.1840, 8.8316001E-02
582.6661, 0.4440010
583.1483, 0.6671210
583.6304, 0.6973350
584.1125, 0.6526440
584.5946, 0.5806450
585.0767, 0.5149320
585.5588, 0.5064750
586.0410, 0.6586220
586.5231, 0.7736950
587.0052, 0.6873020
587.4873, 0.4962670
587.9694, 0.4602650
588.4515, 0.8371100
588.9337, 1.157569
589.4158, 1.260452
589.8979, 1.144246
590.3800, 1.102887
590.8621, 1.199200
591.3442, 1.250918
591.8264, 1.083443
592.3085, 0.6460880
592.7906, 0.2410570
593.2727, 0.1591910
593.7548, 0.4214830
594.2369, 0.3395700
594.7191, 9.3310000E-03
595.2012, 0.3604870
595.6833, 0.6672080
596.1654, 0.9168350
596.6475, 1.133944
597.1296, 1.272271
597.6118, 1.267914
598.0939, 0.9201730
598.5760, 0.5397610
599.0581, 0.2851910
599.5402, 0.1594110
600.0223, 9.1816999E-02
600.5045, 0.1035030
600.9866, 0.1388530
601.4687, 0.1849900
601.9508, 0.2598120
602.4329, 0.2516520
602.9150, 7.4752003E-02
603.3972, 6.7281999E-02
603.8793, 6.0304999E-02
604.3614, 0.4970860
604.8435, 0.7636050
605.3256, 0.7621310
605.8077, 0.6656850
606.2899, 0.8074320
606.7720, 1.117539
607.2541, 1.252533
607.7362, 0.9559740
608.2183, 0.5564590
608.7004, 0.4616900
609.1826, 0.6010940
609.6647, 0.7322150
610.1468, 0.7885610
610.6289, 0.7509820
611.1110, 0.5440030
611.5931, 0.1595230
612.0753, 6.2788002E-02
612.5574, 8.4872000E-02
613.0395, 0.2984310
613.5216, 0.4014800
614.0037, 0.3442880
614.4858, 0.3097180
614.9680, 0.3098170
615.4501, 0.3116660
615.9322, 0.2807370
616.4143, 0.2172990
616.8964, 7.9521999E-02
617.3785, 0.2230230
617.8607, 0.4484630
618.3428, 6.5226004E-02
618.8249, 1.102207
619.3070, 1.757154
619.7891, 1.207302
620.2712, 0.3586950
620.7534, 0.1262790
621.2355, 0.4080430
621.7176, 0.7433070
622.1997, 1.061610
622.6818, 1.244386
623.1639, 1.159129
623.6461, 0.7341680
624.1282, 0.4809310
624.6103, 0.5671800
625.0924, 0.7370920
625.5745, 0.8384640
626.0566, 0.8595320
626.5388, 0.8343850
627.0209, 0.7307960
627.5030, 0.6365310
627.9851, 0.7221560
628.4672, 0.9670690
628.9493, 1.081020
629.4315, 0.9375730
629.9136, 0.7155140
630.3957, 0.7119450
630.8778, 0.8659630
631.3599, 0.9958610
631.8420, 1.009938
632.3242, 0.9693730
632.8063, 0.8821090
633.2884, 0.7669640
633.7705, 0.7147080
634.2526, 0.8811120
634.7347, 1.011544
635.2169, 0.9278380
635.6990, 0.5532820
636.1811, 0.4339810
636.6632, 0.7595450
637.1453, 1.100635
637.6274, 1.110438
638.1096, 0.7204380
638.5917, 0.4689540
639.0738, 0.3862000
639.5559, 0.4194100
640.0380, 0.5389190
640.5201, 0.7297470
641.0023, 0.9454850
641.4844, 1.219288
641.9665, 1.426933
642.4486, 1.380723
642.9307, 1.174537
643.4128, 1.013913
643.8950, 1.050817
644.3771, 1.115235
644.8592, 1.060932
645.3413, 0.9220890
645.8234, 0.8219670
646.3055, 0.8654780
646.7877, 0.8599100
647.2698, 0.7137960
647.7519, 0.4172630
648.2340, 0.2393250
648.7161, 0.1873010
649.1982, 0.2335680
649.6804, 0.4254640
650.1625, 0.7337090
650.6446, 0.8371120
651.1267, 0.6888620
651.6088, 0.5175360
652.0909, 0.6345510
652.5731, 0.9242590
653.0552, 1.171952
653.5373, 1.380523
654.0194, 1.406240
654.5015, 0.8552140
654.9836, 0.1509130
655.4658, 8.9351997E-02
655.9479, 1.024607
656.4300, 1.771729
656.9121, 1.571888
657.3942, 0.7743240
657.8763, 0.3119900
658.3585, 0.2564740
658.8406, 0.3716120
659.3227, 0.6426690
659.8048, 1.022415
660.2869, 1.248898
660.7690, 1.318406
661.2512, 1.323548
661.7333, 1.343788
662.2154, 1.337435
662.6975, 1.201859
663.1796, 0.9372260
663.6617, 0.6654300
664.1439, 0.3944120
664.6260, 0.1999400
665.1081, 0.1808230
665.5902, 0.4223130
666.0723, 0.5977900
666.5544, 0.5902420
667.0366, 0.5033300
667.5187, 0.4317590
668.0008, 0.3676550
668.4829, 0.3335840
668.9650, 0.3226160
669.4471, 0.3525340
669.9293, 0.4583650
670.4114, 0.6429140
670.8935, 0.8674570
671.3756, 1.160344
671.8577, 1.438426
672.3398, 1.540792
672.8220, 1.492021
673.3041, 1.343797
673.7862, 1.003268
674.2683, 0.6733250
674.7504, 0.5168570
675.2325, 0.5007930
675.7147, 0.4805140
676.1968, 0.3780760
676.6789, 0.3593850
677.1610, 0.5817060
677.6431, 1.095034
678.1252, 1.177032
678.6074, 0.5754170
679.0895, 3.1091999E-02
679.5716, 8.0000997E-02
680.0537, 0.7180070
680.5358, 1.092082
681.0179, 1.172950
681.5001, 1.090239
681.9822, 0.9066590
682.4643, 0.6626320
682.9464, 0.4158970
683.4285, 0.1418660
683.9106, 3.8360001E-03
684.3928, 0.2600760
684.8749, 0.6605570
685.3570, 0.9056200
685.8391, 0.7943790
686.3212, 0.6796650
686.8033, 0.5780190
687.2855, 0.5160530
687.7676, 0.5525690
688.2497, 0.7482750
688.7318, 0.8836130
689.2139, 0.8868610
689.6960, 0.8259090
690.1782, 0.9498360
690.6603, 1.241514
691.1424, 1.360793
691.6245, 1.009561
692.1066, 0.4832890
692.5887, 0.2026360
693.0709, 0.1470640
693.5530, 0.2346610
694.0351, 0.6241220
694.5172, 0.9952400
694.9993, 1.090735
695.4814, 0.9117600
695.9636, 0.8676480
696.4457, 1.258203
696.9278, 1.558813
697.4099, 1.456326
697.8920, 0.8363290
698.3741, 0.6481650
698.8563, 1.020156
699.3384, 1.429003
699.8205, 1.383534
700.3026, 0.9640780
700.7847, 0.4691360
701.2668, 0.1069600
701.7490, 0.4804110
702.2311, 0.1551400
702.7132, 0.4623980
703.1953, 0.7708270
703.6774, 0.4021020
704.1595, 0.1681990
704.6417, 0.5717380
705.1238, 1.225691
705.6059, 1.580767
706.0880, 1.430453
706.5701, 1.281193
707.0522, 1.175512
707.5344, 1.101581
708.0165, 1.015161
708.4986, 0.9085400
708.9807, 0.8633850
709.4628, 0.9399930
709.9449, 1.045823
710.4271, 0.9778930
710.9092, 0.7797390
711.3913, 0.6101040
711.8734, 0.4981260
712.3555, 0.4915480
712.8376, 0.7329040
713.3198, 1.146472
713.8019, 1.369482
714.2840, 1.061549
714.7661, 0.7857430
715.2482, 0.7900980
715.7303, 1.059842
716.2125, 1.168132
716.6946, 1.054388
717.1767, 0.9477300
717.6588, 1.018837
718.1409, 1.232669
718.6230, 1.263475
719.1052, 1.105474
719.5873, 1.026476
720.0694, 1.458774
720.5515, 1.992595
721.0336, 2.010900
721.5157, 1.374104
721.9979, 0.8449200
722.4800, 0.8764100
722.9621, 1.096461
723.4442, 1.200638
723.9263, 1.051366
724.4084, 1.043468
724.8906, 1.327551
725.3727, 1.575127
725.8548, 1.328844
726.3369, 0.5255430
726.8190, 0.2599620
727.3011, 0.7805140
727.7833, 1.420203
728.2654, 1.122737
728.7475, 0.2767400
729.2296, 0.1540130
729.7117, 0.2939080
730.1938, 0.8176950
730.6760, 0.8336500
731.1581, 0.5807740
731.6402, 0.4283490
732.1223, 0.7048320
732.6044, 0.7744630
733.0865, 0.3552140
733.5687, 0.2489890
734.0508, 0.3199610
734.5329, 0.3274330
735.0150, 0.7121310
735.4971, 0.4968210
735.9792, 2.5609000E-02
736.4614, 0.2172990
736.9435, 0.1283040
737.4256, 4.8041001E-02
737.9077, 0.2890710
738.3898, 0.5105930
738.8719, 0.6270900
739.3541, 0.6559510
739.8362, 0.6559460
740.3183, 0.5875240
740.8004, 0.5539170
741.2825, 0.6311230
741.7646, 0.7977920
742.2468, 0.8716250
742.7289, 0.8282800
743.2110, 0.7494890
743.6931, 0.6317300
744.1752, 0.5048340
744.6573, 0.6020200
745.1395, 0.9145380
745.6216, 1.165798
746.1037, 1.121030
746.5858, 0.9257230
747.0679, 0.7177280
747.5500, 0.5099450
748.0322, 0.3807720
748.5143, 0.4076810
748.9964, 0.4915100
749.4785, 0.6195600
749.9606, 0.8452910
750.4427, 0.7788810
750.9249, 0.1954030
751.4070, 0.3359330
751.8891, 0.3018340
752.3712, 0.2853840
752.8533, 0.6162410
753.3354, 0.6576720
753.8176, 0.5793720
754.2997, 0.4554200
754.7818, 0.3482700
755.2639, 0.3873400
755.7460, 0.6217450
756.2281, 0.8064460
756.7103, 0.7568250
757.1924, 0.6412310
757.6745, 0.5790060
758.1566, 0.5935870
758.6387, 0.6644540
759.1208, 0.8209720
759.6030, 0.9719190
760.0851, 1.119185
760.5672, 1.255154
761.0493, 1.159863
761.5314, 0.7543980
762.0135, 0.3503810
762.4957, 0.4328700
762.9778, 0.7623400
763.4599, 0.8631510
763.9420, 0.5159570
764.4241, 0.1680460
764.9063, 4.1060001E-03
765.3884, 3.1210000E-03
765.8705, 0.1444530
766.3526, 0.6980590
766.8347, 0.9816940
767.3168, 0.8662580
767.7990, 0.5626970
768.2811, 0.3575050
768.7632, 0.2498250
769.2453, 0.2840250
769.7274, 0.5139520
770.2095, 0.7748190
770.6917, 0.8492410
771.1738, 0.7740900
771.6559, 0.6194840
772.1380, 0.3056160
772.6201, 6.8666004E-02
773.1022, 9.7093999E-02
773.5844, 0.2751850
774.0665, 0.3988960
774.5486, 0.3997550
775.0307, 0.4043270
775.5128, 0.4152910
775.9949, 0.4476390
776.4771, 0.5505490
776.9592, 0.7282980
777.4413, 0.8812220
777.9234, 0.9942020
778.4055, 1.047606
778.8876, 0.9526500
779.3698, 0.7711370
779.8519, 0.6635130
780.3340, 0.8300420
780.8161, 0.9554680
781.2982, 0.8435310
781.7803, 0.5788000
782.2625, 0.3935480
782.7446, 0.3513420
783.2267, 0.3049990
783.7088, 0.1892050
784.1909, 7.0611000E-02
784.6730, 0.1852010
785.1552, 0.5543150
785.6373, 0.8788160
786.1194, 0.9914510
786.6015, 1.000131
787.0836, 0.9768260
787.5657, 0.9455910
788.0479, 0.9100690
788.5300, 0.7951840
789.0121, 0.7612640
789.4942, 0.9995920
789.9763, 1.396677
790.4584, 1.503916
790.9406, 1.188199
791.4227, 0.8036240
791.9048, 0.4260420
792.3869, 0.1081770
792.8690, 9.3598001E-02
793.3511, 0.1799570
793.8333, 0.1349820
794.3154, 0.1089230
794.7975, 0.4401950
795.2796, 0.6910100
795.7617, 0.8872480
796.2438, 1.126460
796.7260, 1.702279
797.2081, 2.069186
797.6902, 1.897161
798.1723, 1.322932
798.6544, 0.8255420
799.1365, 0.3342300
799.6187, 0.1430240
800.1008, 0.4680960
800.5829, 1.084852
801.0650, 1.297837
801.5471, 1.156363
802.0292, 0.9817050
802.5114, 0.9570440
802.9935, 0.9667430
803.4756, 0.8551300
803.9577, 0.6806760
804.4398, 0.6418860
804.9219, 0.9488470
805.4041, 1.238699
805.8862, 1.490071
806.3683, 1.645372
806.8504, 1.367063
807.3325, 0.5222670
807.8146, 0.1021810
808.2968, 0.1560460
808.7789, 0.1475260
809.2610, 0.3931730
809.7431, 0.5945860
810.2252, 0.7174930
810.7073, 0.5308650
811.1895, 0.4001030
811.6716, 0.7189480
812.1537, 1.315260
812.6358, 1.541676
813.1179, 1.006765
813.6000, 0.4885760
814.0822, 0.1059120
814.5643, 0.1213820
815.0464, 3.4077000E-02
815.5285, 0.3751920
816.0106, 0.6625560
816.4927, 0.5439370
816.9749, 0.3078480
817.4570, 0.4184630
817.9391, 0.7789420
818.4212, 1.113792
818.9033, 1.384788
819.3854, 1.511047
819.8676, 1.346423
820.3497, 0.9993310
820.8318, 0.8391300
821.3139, 0.9364500
821.7960, 1.069014
822.2781, 1.222611
822.7603, 1.336063
823.2424, 1.212519
823.7245, 0.8995390
824.2066, 0.6780690
824.6887, 0.6634180
825.1708, 0.7851530
825.6530, 1.107155
826.1351, 1.508618
826.6172, 1.712976
827.0993, 1.539692
827.5814, 1.280381
828.0635, 0.9146910
828.5457, 0.5387130
829.0278, 0.3585720
829.5099, 0.3977620
829.9920, 0.4922900
830.4741, 0.6184280
830.9562, 0.7484120
831.4384, 0.8069070
831.9205, 0.8319700
832.4026, 0.9335650
832.8847, 1.309204
833.3668, 1.545010
833.8489, 1.326040
834.3311, 0.8554730
834.8132, 0.4737630
835.2953, 0.1766840
835.7774, 1.4757000E-02
836.2595, 1.1840001E-03
836.7416, 0.1173740
837.2238, 0.4194110
837.7059, 0.8729720
838.1880, 1.116757
838.6701, 1.039249
839.1522, 0.8341530
839.6343, 0.5722830
840.1165, 0.3518140
840.5986, 0.3433690
841.0807, 0.9209870
841.5628, 1.156218
842.0449, 0.4635520
842.5270, 0.3767160
843.0092, 0.5302280
843.4913, 0.1563550
843.9734, 0.6628490
844.4555, 0.8850480
844.9376, 0.9700040
845.4197, 1.061255
845.9019, 1.151098
846.3840, 1.240447
846.8661, 1.346207
847.3482, 1.368456
847.8303, 1.094661
848.3124, 0.8064040
848.7946, 0.7869910
849.2767, 1.216395
849.7588, 1.506126
850.2409, 1.676123
850.7230, 1.629324
851.2051, 1.073646
851.6873, 0.1645570
852.1694, 3.5257000E-02
852.6515, 0.5521570
853.1336, 1.210964
853.6157, 1.384547
854.0978, 1.325535
854.5800, 1.300551
855.0621, 1.364353
855.5442, 1.243106
856.0263, 0.5612930
856.5084, 2.5575999E-02
856.9905, 6.5264001E-02
857.4727, 0.6804680
857.9548, 0.9643680
858.4369, 0.8951630
858.9190, 0.7376990
859.4011, 0.6457560
859.8832, 0.5996570
860.3654, 0.5987470
860.8475, 0.6301320
861.3296, 0.6012710
861.8117, 0.2762040
862.2938, 6.3118003E-02
862.7759, 0.2593190
863.2581, 0.7916270
863.7402, 1.156342
864.2223, 1.359200
864.7044, 1.343204
865.1865, 0.9502590
865.6686, 0.4039580
866.1508, 0.4184890
866.6329, 0.8834420
867.1150, 1.237446
867.5971, 1.129373
868.0792, 0.8854150
868.5613, 0.6141990
869.0435, 0.3565080
869.5256, 0.2598780
870.0077, 0.3527700
870.4898, 0.4961670
870.9719, 0.7113190
871.4540, 0.9139620
871.9362, 0.2457790
872.4183, 0.9815960
872.9004, 1.385750
873.3825, 1.474471
873.8646, 0.2984710
874.3467, 0.7625470
874.8289, 0.5629500
875.3110, 0.3363670
875.7931, 1.028230
876.2752, 2.7851000E-02
876.7573, 0.7051590
877.2394, 0.7127730
877.7216, 1.026884
878.2037, 0.6773030
878.6858, 0.5327200
879.1679, 1.052061
879.6500, 1.203786
880.1321, 0.7778150
880.6143, 1.111447
881.0964, 0.4118810
881.5785, 0.8013110
882.0606, 1.023108
882.5427, 0.6894720
883.0248, 0.2668590
883.5070, 5.2090000E-02
883.9891, 8.1658997E-02
884.4712, 0.1611150
884.9533, 0.3032660
885.4354, 0.4264260
885.9175, 0.4125560
886.3997, 0.3563580
886.8818, 0.4684560
887.3639, 0.7450150
887.8460, 0.9586560
888.3281, 1.011647
888.8102, 0.9418610
889.2924, 0.6606470
889.7745, 0.2036640
890.2566, 0.1077100
890.7387, 0.5270450
891.2208, 0.8356900
891.7029, 0.7118200
892.1851, 0.3413810
892.6672, 0.1506510
893.1493, 0.1364210
893.6314, 0.2845760
894.1135, 0.7968110
894.5956, 1.260379
895.0778, 1.408000
895.5599, 1.331232
896.0420, 1.271332
896.5241, 1.318781
897.0062, 1.212431
897.4883, 0.8452870
897.9705, 0.3997300
898.4526, 0.2224230
898.9347, 0.2713560
899.4168, 0.3569250
899.8989, 0.4372700
900.3810, 0.5029310
900.8632, 0.6147440
901.3453, 0.7595210
901.8274, 0.8505230
902.3095, 0.9112090
902.7916, 0.8034750
903.2737, 0.4006390
903.7559, 1.9047000E-02
904.2380, 1.9180001E-03
904.7201, 0.2903610
905.2022, 0.4479660
905.6843, 0.4419390
906.1664, 0.3550420
906.6486, 8.0061004E-02
907.1307, 0.1253720
907.6128, 8.8016003E-02
908.0949, 0.7847160
908.5770, 1.156586
909.0591, 0.9084800
909.5413, 0.5796990
910.0234, 0.3311480
910.5055, 0.1839710
910.9876, 0.3621290
911.4697, 0.8415840
911.9518, 1.167076
912.4340, 0.8764560
912.9161, 0.4734390
913.3982, 0.5723530
913.8803, 0.9802500
914.3624, 1.157809
914.8445, 0.6809500
915.3267, 0.3116190
915.8088, 0.2076910
916.2909, 0.2620350
916.7730, 0.2808540
917.2551, 0.2622070
917.7372, 0.2446080
918.2194, 0.2686340
918.7015, 0.3605460
919.1836, 0.6586190
919.6657, 0.9983100
920.1478, 1.128394
920.6299, 0.8130470
921.1121, 0.6916180
921.5942, 1.044261
922.0763, 1.406143
922.5584, 1.355984
923.0405, 0.8743750
923.5226, 0.5783630
924.0048, 0.4905420
924.4869, 0.5024340
924.9690, 0.6549810
925.4511, 0.7773520
925.9332, 0.5526340
926.4153, 4.1359998E-03
926.8975, 0.2576340
927.3796, 0.3735930
927.8617, 0.8841150
928.3438, 0.8913490
928.8259, 0.5080510
929.3080, 0.3421380
929.7902, 0.3881980
930.2723, 0.3821350
930.7544, 0.1170900
931.2365, 0.1506480
931.7186, 5.6171000E-02
932.2007, 0.2526450
932.6829, 0.4825090
933.1650, 0.3940580
933.6471, 0.4019970
934.1292, 0.7027420
934.6113, 1.042210
935.0934, 0.9596310
935.5756, 0.4618030
936.0577, 0.3974680
936.5398, 0.9586100
937.0219, 1.457237
937.5040, 0.9991230
937.9861, 0.2075400
938.4683, 0.1505370
938.9504, 0.1512070
939.4325, 0.3234430
939.9146, 8.0008999E-02
940.3967, 0.1157990
940.8788, 2.1167001E-02
941.3610, 0.4552130
941.8431, 0.7600300
942.3252, 0.9359050
942.8073, 0.9233190
943.2894, 0.4214220
943.7715, 6.9764003E-02
944.2537, 5.0239000E-02
944.7358, 0.5992110
945.2179, 0.8745950
945.7000, 0.3464740
946.1821, 7.3678002E-02
946.6642, 0.3463680
947.1464, 0.8681340
947.6285, 0.9618040
948.1106, 0.6933830
948.5927, 0.5844320
949.0748, 0.8231600
949.5569, 1.064229
950.0391, 0.9170720
950.5212, 0.6430890
951.0033, 0.5597880
951.4854, 0.8778410
951.9675, 1.003511
952.4496, 0.8457580
952.9318, 0.6411630
953.4139, 0.5206290
953.8960, 0.5010920
954.3781, 0.7815680
954.8602, 1.340972
955.3423, 1.774085
955.8245, 1.841352
956.3066, 1.692846
956.7887, 1.343160
957.2708, 0.8339580
957.7529, 0.4511840
958.2350, 0.2235140
958.7172, 6.6904999E-02
959.1993, 4.5756001E-02
959.6814, 9.8402999E-02
960.1635, 3.6061998E-02
960.6456, 0.1176360
961.1277, 0.2969550
961.6099, 0.5285790
962.0920, 0.6890190
962.5741, 0.5898600
963.0562, 0.4654310
963.5383, 0.6042500
964.0204, 1.159710
964.5026, 1.556588
964.9847, 1.780963
965.4668, 1.859204
965.9489, 1.744987
966.4310, 1.503170
966.9131, 1.223048
967.3953, 0.9034010
967.8774, 0.7129510
968.3595, 0.8950090
968.8416, 1.063309
969.3237, 0.9785210
969.8058, 0.7178350
970.2880, 0.6725070
970.7701, 0.8789010
971.2522, 0.9817370
971.7343, 0.8223780
972.2164, 0.5669490
972.6985, 0.4749060
973.1807, 0.4571580
973.6628, 0.3286430
974.1449, 0.2381730
974.6270, 0.4644120
975.1091, 5.2839000E-02
975.5912, 0.7241870
976.0734, 0.9747550
976.5555, 0.7924450
977.0376, 0.8147990
977.5197, 1.081320
978.0018, 1.356297
978.4839, 1.546084
978.9661, 1.581989
979.4482, 1.255322
979.9303, 0.5973730
980.4124, 0.3063060
980.8945, 0.7968710
981.3766, 1.153694
981.8588, 1.074203
982.3409, 0.7149010
982.8230, 0.4412330
983.3051, 0.2681970
983.7872, 0.3055650
984.2693, 0.7414080
984.7515, 1.090168
985.2336, 0.8665620
985.7157, 0.4600020
986.1978, 0.4434980
986.6799, 1.230057
987.1620, 1.468649
987.6442, 1.001806
988.1263, 0.4246630
988.6084, 0.3541310
989.0905, 0.5575640
989.5726, 0.3842390
990.0547, 0.1382800
990.5369, 0.3364800
991.0190, 0.6971300
991.5011, 1.569389
991.9832, 1.362235
992.4653, 0.4623430
992.9474, 0.3001270
993.4296, 0.9777190
993.9117, 1.418789
994.3938, 1.225231
994.8759, 0.8359780
995.3580, 0.8579350
995.8401, 1.082699
996.3223, 1.151777
996.8044, 0.8921400
997.2865, 0.7281500
997.7686, 0.8007360
998.2507, 0.8814180
998.7328, 0.8094940
999.2150, 0.5864790
999.6971, 0.3676910
1000.179, 0.1625570
1000.661, 8.3947003E-02
1001.143, 0.3416200
1001.626, 0.6384190
1002.108, 0.7360350
1002.590, 0.6698010
1003.072, 0.7058010
1003.554, 0.9634840
1004.036, 1.054150
1004.518, 0.8440640
1005.000, 0.5331470
1005.482, 0.4921360
1005.965, 0.6257160
1006.447, 0.6736930
1006.929, 0.5503650
1007.411, 0.4410340
1007.893, 0.4037560
1008.375, 0.4449100
1008.857, 0.5768910
1009.339, 0.8095930
1009.822, 1.057376
1010.304, 1.342966
1010.786, 1.393147
1011.268, 0.7367120
1011.750, 4.4181000E-02
1012.232, 0.1584270
1012.714, 0.2325370
1013.196, 0.6155150
1013.678, 0.8574060
1014.161, 1.076372
1014.643, 1.316643
1015.125, 1.514852
1015.607, 1.517182
1016.089, 1.347759
1016.571, 1.245833
1017.053, 1.254367
1017.535, 1.164999
1018.018, 0.6226800
1018.500, 8.1972003E-02
1018.982, 8.3384998E-02
1019.464, 0.1574820
1019.946, 0.4697800
1020.428, 0.9200120
1020.910, 1.179858
1021.392, 0.9991530
1021.874, 0.6623840
1022.357, 0.8654280
1022.839, 1.341932
1023.321, 1.454268
1023.803, 0.4911270
1024.285, 0.1682860
1024.767, 2.7027000E-02
1025.249, 0.4875990
1025.731, 0.6441460
1026.214, 0.5005220
1026.696, 0.4358500
1027.178, 0.4693060
1027.660, 0.5014760
1028.142, 0.3789890
1028.624, 0.2810660
1029.106, 0.4140240
1029.588, 0.7479610
1030.070, 0.9827500
1030.553, 1.108566
1031.035, 1.101096
1031.517, 0.8853870
1031.999, 0.6314800
1032.481, 0.7262400
1032.963, 1.099096
1033.445, 1.458886
1033.927, 1.800130
1034.410, 1.910514
1034.892, 1.465099
1035.374, 0.9430000
1035.856, 0.6643500
1036.338, 0.6306210
1036.820, 0.7457410
1037.302, 1.009205
1037.784, 1.190360
1038.266, 1.118003
1038.749, 0.9465010
1039.231, 0.7435460
1039.713, 0.5623010
1040.195, 0.5409020
1040.677, 0.8059920
1041.159, 1.080069
1041.641, 1.426445
1042.123, 1.607486
1042.605, 1.068134
1043.088, 0.1566690
1043.570, 4.5152999E-02
1044.052, 0.8540680
1044.534, 1.453279
1045.016, 0.9319820
1045.498, 0.3482520
1045.980, 0.2526100
1046.462, 0.5543540
1046.945, 0.9036080
1047.427, 1.311938
1047.909, 1.476347
1048.391, 1.235514
1048.873, 0.8974920
1049.355, 0.6712780
1049.837, 0.5274960
1050.319, 0.4198030
1050.802, 0.3053970
1051.284, 0.3361790
1051.766, 0.5641600
1052.248, 0.8193350
1052.730, 1.026386
1053.212, 1.153214
1053.694, 1.061937
1054.176, 0.8019080
1054.658, 0.6012850
1055.141, 0.6147930
1055.623, 0.6583180
1056.105, 0.6489190
1056.587, 0.6392470
1057.069, 0.7465710
1057.551, 0.9783020
1058.033, 1.041479
1058.515, 0.8863190
1058.997, 0.6813670
1059.480, 0.4741610
1059.962, 0.3631720
1060.444, 0.5240400
1060.926, 0.9660410
1061.408, 1.158350
1061.890, 1.024606
1062.372, 0.7976290
1062.854, 0.5180700
1063.337, 0.2488130
1063.819, 0.1266640
1064.301, 0.1097160
1064.783, 9.9036001E-02
1065.265, 2.1823000E-02
1065.747, 5.9684999E-02
1066.229, 0.3539310
1066.711, 0.7029060
1067.193, 1.038686
1067.676, 1.346700
1068.158, 1.336248
1068.640, 1.022859
1069.122, 0.6490310
1069.604, 0.1781230
1070.086, 0.1325740
1070.568, 9.5435001E-02
1071.050, 0.5712900
1071.532, 0.6429800
1072.015, 0.1219020
1072.497, 0.1791680
1072.979, 0.1702640
1073.461, 8.4250001E-03
1073.943, 0.3341650
1074.425, 0.6658390
1074.907, 0.7932810
1075.389, 0.7037830
1075.871, 0.5635150
1076.354, 0.2156230
1076.836, 0.1297660
1077.318, 0.5752020
1077.800, 1.243809
1078.282, 1.442194
1078.764, 1.247657
1079.246, 0.9858670
1079.728, 0.6902700
1080.211, 0.5090980
1080.693, 0.7156340
1081.175, 0.9013320
1081.657, 0.6905360
1082.139, 7.1713001E-02
1082.621, 0.1267710
1083.103, 8.7177999E-02
1083.585, 0.4518150
1084.068, 1.023348
1084.550, 1.470098
1085.032, 1.308113
1085.514, 0.8360150
1085.996, 0.6104760
1086.478, 0.9316360
1086.960, 0.9243480
1087.442, 0.4454690
1087.924, 2.3729999E-03
1088.406, 0.2194360
1088.889, 0.7535120
1089.371, 0.9034030
1089.853, 0.6418150
1090.335, 0.4646160
1090.817, 0.6781720
1091.299, 0.8180780
1091.781, 0.7656870
1092.263, 0.5948140
1092.746, 0.4247700
1093.228, 0.2549610
1093.710, 6.0114998E-02
1094.192, 0.1769230
1094.674, 0.3085030
1095.156, 0.1401740
1095.638, 7.9961002E-02
1096.120, 0.1811080
1096.603, 0.1786740
1097.085, 0.2044130
1097.567, 0.2602420
1098.049, 0.2736250
1098.531, 0.1513140
1099.013, 0.1179990
1099.495, 0.5791440
1099.977, 1.197220
1100.459, 1.543429
1100.942, 1.527346
1101.424, 1.346161
1101.906, 0.9308050
1102.388, 0.5743030
1102.870, 0.5103780
1103.352, 0.6070800
1103.834, 0.6137240
1104.316, 0.5635490
1104.798, 0.5498190
1105.281, 0.6628090
1105.763, 0.7270850
1106.245, 0.6848640
1106.727, 0.6390200
1107.209, 0.7557830
1107.691, 0.9721560
1108.173, 1.006213
1108.655, 0.8493940
1109.138, 0.6292140
1109.620, 0.1940960
1110.102, 3.6626998E-02
1110.584, 0.3305370
1111.066, 0.9436200
1111.548, 0.9498810
1112.030, 0.3674270
1112.512, 0.2456070
1112.995, 0.8442180
1113.477, 1.428195
1113.959, 1.233385
1114.441, 0.8396400
1114.923, 0.7710300
1115.405, 1.040979
1115.887, 1.147757
1116.369, 1.054597
1116.851, 1.024781
1117.333, 1.201884
1117.816, 1.379493
1118.298, 1.245608
1118.780, 0.9494090
1119.262, 0.6977740
1119.744, 0.5256330
1120.226, 0.4319310
1120.708, 0.4196560
1121.190, 0.4735000
1121.673, 0.6176230
1122.155, 0.8024980
1122.637, 0.9147650
1123.119, 0.9709610
1123.601, 1.016691
1124.083, 1.074412
1124.565, 1.118938
1125.047, 1.180052
1125.530, 1.186155
1126.012, 1.001346
1126.494, 0.6885310
1126.976, 0.6532740
1127.458, 0.8713800
1127.940, 1.025280
1128.422, 0.8614600
1128.904, 0.7045270
1129.386, 0.7666070
1129.869, 0.8870900
1130.351, 0.7562460
1130.833, 0.3915710
1131.315, 0.2052750
1131.797, 0.2339390
1132.279, 0.4486990
1132.761, 1.178054
1133.243, 1.773240
1133.725, 1.614332
1134.208, 0.8569860
1134.690, 0.2954260
1135.172, 8.0672003E-02
1135.654, 0.1476170
1136.136, 0.1800620
1136.618, 0.6086750
1137.100, 0.9192810
1137.582, 1.088448
1138.065, 1.039510
1138.547, 0.7221020
1139.029, 0.5457690
1139.511, 0.5395780
1139.993, 0.5958020
1140.475, 0.6978120
1140.957, 0.7930160
1141.439, 0.6758210
1141.922, 0.5021100
1142.404, 0.5772770
1142.886, 1.180202
1143.368, 1.443776
1143.850, 1.180160
1144.332, 0.8599770
1144.814, 0.8453850
1145.296, 0.9479680
1145.778, 0.5091810
1146.260, 0.2374900
1146.743, 0.6225650
1147.225, 5.0778002E-02
1147.707, 0.5104370
1148.189, 0.4966820
1148.671, 0.3223770
1149.153, 0.2426300
1149.635, 0.2406710
1150.117, 0.1928210
1150.600, 0.1277470
1151.082, 0.2094720
1151.564, 0.8404530
1152.046, 1.243448
1152.528, 0.9533380
1153.010, 0.4661130
1153.492, 0.4603390
1153.974, 0.8762690
1154.457, 1.189677
1154.939, 1.349291
1155.421, 1.278945
1155.903, 0.6612110
1156.385, 6.1539002E-02
1156.867, 0.2406250
1157.349, 0.2595670
1157.831, 0.1613970
1158.313, 1.036669
1158.796, 1.330367
1159.278, 0.8057640
1159.760, 0.2428410
1160.242, 0.5349750
1160.724, 1.021232
1161.206, 1.145132
1161.688, 0.9421600
1162.170, 0.8632770
1162.652, 0.9251000
1163.135, 0.9121080
1163.617, 0.7287020
1164.099, 0.5708130
1164.581, 0.7517240
1165.063, 0.9965980
1165.545, 0.9323020
1166.027, 0.4747080
1166.509, 0.4805690
1166.992, 1.069167
1167.474, 1.430685
1167.956, 1.114799
1168.438, 0.6321540
1168.920, 0.6441060
1169.402, 0.9046410
1169.884, 1.057645
1170.366, 0.9858440
1170.849, 0.9766860
1171.331, 1.041940
1171.813, 1.133023
1172.295, 1.268017
1172.777, 1.369649
1173.259, 1.261524
1173.741, 1.036077
1174.223, 0.8790980
1174.705, 0.9010910
1175.188, 0.8695610
1175.670, 0.7344640
1176.152, 0.6687570
1176.634, 0.8706010
1177.116, 1.192161
1177.598, 1.433206
1178.080, 1.578854
1178.562, 1.596731
1179.044, 1.335387
1179.527, 1.161705
1180.009, 1.136120
1180.491, 1.133329
1180.973, 1.036447
1181.455, 0.8688630
1181.937, 0.6501900
1182.419, 0.4043440
1182.901, 0.2302260
1183.384, 0.1571230
1183.866, 0.1908170
1184.348, 0.3605000
1184.830, 0.5810730
1185.312, 0.8153340
1185.794, 1.000834
1186.276, 0.8638940
1186.758, 0.4331560
1187.240, 0.2312500
1187.723, 0.7815630
1188.205, 1.187677
1188.687, 1.186825
1189.169, 1.005282
1189.651, 1.021891
1190.133, 1.166939
1190.615, 1.191810
1191.097, 1.063869
1191.579, 1.038432
1192.062, 1.466278
1192.544, 1.699145
1193.026, 1.418429
1193.508, 0.9224610
1193.990, 0.9675940
1194.472, 1.362809
1194.954, 1.426570
1195.436, 0.9951620
1195.919, 0.6196930
1196.401, 0.5261200
1196.883, 0.5901550
1197.365, 0.8538570
1197.847, 1.184287
1198.329, 1.213149
1198.811, 1.010593
1199.293, 0.8323930
1199.776, 0.7249220
1200.258, 0.7075480
1200.740, 0.9751850
1201.222, 1.120263
1201.704, 0.8482500
1202.186, 0.3321070
1202.668, 0.3137760
1203.150, 0.6801340
1203.632, 0.9922020
1204.115, 1.105366
1204.597, 1.094106
1205.079, 0.9668190
1205.561, 0.8444800
1206.043, 0.8641600
1206.525, 0.9634180
1207.007, 0.7235220
1207.489, 0.2437520
1207.971, 2.5804000E-02
1208.454, 0.2015180
1208.936, 0.4457890
1209.418, 0.4757230
1209.900, 0.4795030
1210.382, 0.5850410
1210.864, 0.7737240
1211.346, 0.8768680
1211.828, 0.9281870
1212.311, 1.096089
1212.793, 1.657540
1213.275, 2.041999
1213.757, 1.957511
1214.239, 1.695110
1214.721, 1.459500
1215.203, 1.237615
1215.685, 0.6385750
1216.167, 0.2205820
1216.650, 0.6429420
1217.132, 0.1341200
1217.614, 0.8683180
1218.096, 1.178490
1218.578, 1.268363
1219.060, 1.228225
1219.542, 1.096805
1220.024, 1.228740
1220.506, 1.557148
1220.989, 1.682676
1221.471, 1.116622
1221.953, 0.7105730
1222.435, 0.8136910
1222.917, 1.041380
1223.399, 0.9717560
1223.881, 0.6800900
1224.363, 0.5109470
1224.846, 0.4766640
1225.328, 0.5771430
1225.810, 1.084575
1226.292, 1.342289
1226.774, 1.096471
1227.256, 0.6955490
1227.738, 0.5387010
1228.220, 0.5729760
1228.703, 0.6318410
1229.185, 0.6970530
1229.667, 0.7184660
1230.149, 0.5797110
1230.631, 0.5316620
1231.113, 0.6719140
1231.595, 0.8531020
1232.077, 0.9174340
1232.559, 0.8656740
1233.042, 0.5738200
1233.524, 9.8086998E-02
1234.006, 7.4037001E-02
1234.488, 0.6552470
1234.970, 1.143764
1235.452, 1.096142
1235.934, 0.8697650
1236.416, 0.9101400
1236.898, 1.145260
1237.381, 1.504018
1237.863, 1.943078
1238.345, 2.167831
1238.827, 2.014585
1239.309, 1.688663
1239.791, 1.130560
1240.273, 0.6038140
1240.755, 0.5581890
1241.238, 0.7512220
1241.720, 0.6682380
1242.202, 0.3034730
1242.684, 0.1342770
1243.166, 0.3966480
1243.648, 0.5319900
1244.130, 0.3839270
1244.612, 0.2173920
1245.094, 0.3785910
1245.577, 0.7527260
1246.059, 1.303477
1246.541, 1.985773
1247.023, 2.108935
1247.505, 1.348384
1247.987, 0.9118680
1248.469, 1.126168
1248.951, 1.461260
1249.433, 1.136795
1249.916, 0.6331190
1250.398, 0.5666150
1250.880, 0.9627130
1251.362, 1.196440
1251.844, 1.204460
1252.326, 1.275282
1252.808, 1.527300
1253.290, 1.617113
1253.773, 0.9343840
1254.255, 8.5399002E-02
1254.737, 0.3793250
1255.219, 0.4118930
1255.701, 0.1409560
1256.183, 0.4898420
1256.665, 0.9280340
1257.147, 1.053689
1257.630, 0.9970170
1258.112, 0.7725520
1258.594, 0.5099610
1259.076, 0.2842440
1259.558, 0.1160360
1260.040, 0.1156950
1260.522, 0.2812180
1261.004, 0.3538410
1261.486, 0.4442310
1261.969, 0.5413310
1262.451, 0.7537470
1262.933, 0.9275160
1263.415, 0.9312610
1263.897, 0.8271940
1264.379, 0.8522880
1264.861, 0.9763150
1265.343, 0.9374610
1265.825, 0.6511440
1266.308, 0.4386450
1266.790, 0.5341830
1267.272, 0.7061170
1267.754, 0.8284610
1268.236, 0.9453720
1268.718, 1.301909
1269.200, 1.760733
1269.682, 1.716337
1270.165, 1.020197
1270.647, 0.4819060
1271.129, 0.5062890
1271.611, 0.7076450
1272.093, 1.049210
1272.575, 1.381542
1273.057, 1.408037
1273.539, 1.195558
1274.021, 0.8108430
1274.504, 0.2286070
1274.986, 2.6299000E-02
1275.468, 0.2639470
1275.950, 0.6074360
1276.432, 0.9096440
1276.914, 1.090973
1277.396, 0.8641470
1277.878, 0.5197210
1278.360, 0.5801730
1278.843, 1.137831
1279.325, 1.337842
1279.807, 1.014459
1280.289, 0.6879040
1280.771, 0.8079430
1281.253, 1.015544
1281.735, 0.7809450
1282.217, 0.5218120
1282.700, 0.8741040
1283.182, 1.803238
1283.664, 1.935411
1284.146, 1.182768
1284.628, 0.6552230
1285.110, 0.6606440
1285.592, 0.7708770
1286.074, 0.4861170
1286.557, 0.2578640
1287.039, 0.6241720
1287.521, 1.332473
1288.003, 1.315302
1288.485, 0.6520980
1288.967, 0.3336340
1289.449, 0.6142540
1289.931, 0.9101880
1290.413, 0.8145590
1290.896, 0.6898510
1291.378, 0.6997830
1291.860, 0.7584080
1292.342, 0.5387290
1292.824, 0.1851410
1293.306, 0.2916630
1293.788, 0.9971340
1294.270, 1.457564
1294.752, 1.062314
1295.235, 0.7163210
1295.717, 0.6325290
1296.199, 0.7584440
1296.681, 1.266328
1297.163, 1.811474
1297.645, 1.591911
1298.127, 0.5138570
1298.609, 6.2614001E-02
1299.092, 0.1796460
1299.574, 0.4472730
1300.056, 0.5685980
1300.538, 0.6202760
1301.020, 0.7429930
1301.502, 0.8191670
1301.984, 0.5453640
1302.466, 0.1043840
1302.948, 2.8570001E-03
1303.431, 0.2852790
1303.913, 0.4603680
1304.395, 0.3349840
1304.877, 0.0000000E+00
##END=



