##NAMES=Tintinaite
##RRUFFID=R110163
##IDEAL CHEMISTRY=Pb^2+^_10_Cu^1+^_2_Sb^3+^_16_S^2-^_35_
##LOCALITY=Tintina Silver mine, Watson Lake, Yukon Territory, Canada
##OWNER=RRUFF
##SOURCE=Big piece from Royal Ontario Museum (M37320) and two smaller pieces from Mark Feinglos. 
##DESCRIPTION=Cut slab of malachite-stained weathered quartz containing massive lead-grey veinlets. Co-type material.
##STATUS=The identification of this mineral has been confirmed by single-crystal X-ray diffraction.
##URL=rruff.info/R110163
175.8268, 0.0000000E+00
176.3090, 0.8744200
176.7911, 2.421463
177.2732, 4.411499
177.7553, 6.058670
178.2374, 7.036194
178.7195, 7.716934
179.2017, 8.321198
179.6838, 8.668503
180.1659, 8.332458
180.6480, 7.758057
181.1301, 6.614624
181.6122, 5.586838
182.0944, 4.779434
182.5765, 4.101349
183.0586, 3.731400
183.5407, 3.421936
184.0228, 2.476883
184.5049, 0.7691190
184.9871, 0.8715520
185.4692, 1.308640
185.9513, 0.7274630
186.4334, 6.5917999E-02
186.9155, 0.2106320
187.3976, 0.2128140
187.8798, 0.3672330
188.3619, 0.7290340
188.8440, 1.069794
189.3261, 0.8906560
189.8082, 0.2438350
190.2903, 0.1201320
190.7725, 0.3450470
191.2546, 1.489548
191.7367, 2.424698
192.2188, 3.097534
192.7009, 3.600662
193.1830, 4.058960
193.6652, 4.471451
194.1473, 4.826340
194.6294, 4.987732
195.1115, 4.992996
195.5936, 5.407074
196.0757, 6.343338
196.5579, 7.550766
197.0400, 8.644089
197.5221, 9.641220
198.0042, 10.36032
198.4863, 10.50906
198.9684, 10.07646
199.4506, 10.16013
199.9327, 10.98412
200.4148, 12.16843
200.8969, 12.86845
201.3790, 13.03035
201.8611, 13.04288
202.3433, 13.12375
202.8254, 13.28369
203.3075, 13.39839
203.7896, 13.47115
204.2717, 13.48416
204.7538, 13.26567
205.2360, 12.65755
205.7181, 12.35985
206.2002, 12.96346
206.6823, 14.66298
207.1644, 15.92603
207.6465, 16.48749
208.1287, 16.60992
208.6108, 17.11420
209.0929, 18.10175
209.5750, 19.18451
210.0571, 20.15607
210.5392, 21.03810
211.0214, 21.71965
211.5035, 22.13034
211.9856, 22.35832
212.4677, 22.71315
212.9498, 23.23738
213.4319, 23.80879
213.9140, 24.34686
214.3962, 24.82323
214.8783, 25.41528
215.3604, 26.25089
215.8425, 27.20078
216.3246, 27.62062
216.8067, 27.18214
217.2889, 26.84329
217.7710, 27.27052
218.2531, 28.79892
218.7352, 30.07953
219.2173, 30.92896
219.6994, 31.44525
220.1816, 32.05106
220.6637, 32.69734
221.1458, 33.50758
221.6279, 34.65425
222.1100, 36.47571
222.5921, 37.72229
223.0743, 38.12093
223.5564, 37.86511
224.0385, 37.88014
224.5206, 38.34459
225.0027, 38.81918
225.4848, 39.02963
225.9670, 38.88376
226.4491, 38.67645
226.9312, 38.21785
227.4133, 37.69481
227.8954, 38.10652
228.3775, 40.08224
228.8597, 42.07532
229.3418, 43.05803
229.8239, 42.46648
230.3060, 42.19417
230.7881, 42.56758
231.2702, 43.38414
231.7524, 43.64136
232.2345, 42.98048
232.7166, 42.26300
233.1987, 42.01106
233.6808, 42.24930
234.1629, 42.52492
234.6451, 42.82967
235.1272, 43.13338
235.6093, 43.32762
236.0914, 43.42963
236.5735, 43.39731
237.0556, 43.17162
237.5378, 42.57469
238.0199, 42.18420
238.5020, 42.07822
238.9841, 42.20493
239.4662, 42.38351
239.9483, 42.74156
240.4305, 42.99168
240.9126, 42.96838
241.3947, 42.55771
241.8768, 42.11075
242.3589, 41.48409
242.8410, 40.82808
243.3232, 40.83859
243.8053, 42.22644
244.2874, 43.35188
244.7695, 43.26218
245.2516, 41.15916
245.7337, 39.61896
246.2159, 38.87576
246.6980, 38.71349
247.1801, 38.47900
247.6622, 38.13594
248.1443, 37.75671
248.6264, 37.35278
249.1086, 36.79359
249.5907, 36.53107
250.0728, 36.75705
250.5549, 37.23386
251.0370, 37.32843
251.5191, 36.95898
252.0013, 36.34419
252.4834, 35.54163
252.9655, 34.48936
253.4476, 33.40733
253.9297, 32.04964
254.4118, 30.77779
254.8940, 30.47881
255.3761, 31.72270
255.8582, 32.93015
256.3403, 33.45563
256.8224, 33.17625
257.3046, 32.56050
257.7867, 31.37297
258.2688, 30.00183
258.7509, 29.30342
259.2330, 29.68225
259.7151, 29.92047
260.1973, 29.46008
260.6794, 28.08687
261.1615, 27.03427
261.6436, 26.32684
262.1257, 25.93529
262.6078, 25.90805
263.0900, 26.47702
263.5721, 26.87799
264.0542, 26.82993
264.5363, 26.26672
265.0184, 25.64960
265.5005, 24.90300
265.9827, 24.17702
266.4648, 23.65926
266.9469, 23.37350
267.4290, 23.25684
267.9111, 23.34560
268.3932, 23.66267
268.8754, 23.81920
269.3575, 23.84137
269.8396, 23.65677
270.3217, 23.06223
270.8038, 21.87920
271.2859, 20.97949
271.7681, 20.66647
272.2502, 20.92012
272.7323, 21.20511
273.2144, 21.61472
273.6965, 21.86917
274.1786, 21.56482
274.6608, 20.56175
275.1429, 19.72382
275.6250, 19.27936
276.1071, 19.18864
276.5892, 19.22122
277.0714, 19.50456
277.5535, 19.56715
278.0356, 18.84216
278.5177, 17.24417
278.9998, 15.70607
279.4819, 14.32663
279.9641, 13.16058
280.4462, 12.64270
280.9283, 12.89078
281.4104, 13.26620
281.8925, 13.25513
282.3746, 12.85518
282.8568, 12.37134
283.3389, 11.82588
283.8210, 11.25243
284.3031, 10.70171
284.7852, 10.16165
285.2673, 9.769821
285.7495, 9.766953
286.2316, 10.10497
286.7137, 10.08261
287.1958, 9.569733
287.6779, 8.790741
288.1600, 8.178055
288.6422, 7.723297
289.1243, 7.320297
289.6064, 6.819092
290.0885, 6.287277
290.5706, 6.204102
291.0527, 6.719604
291.5349, 7.444595
292.0170, 7.743164
292.4991, 7.640808
292.9812, 7.520035
293.4633, 7.558563
293.9454, 7.738480
294.4276, 8.074432
294.9097, 8.593521
295.3918, 9.071869
295.8739, 9.152176
296.3560, 8.926651
296.8381, 8.780716
297.3203, 9.053406
297.8024, 9.503036
298.2845, 9.542267
298.7666, 9.126984
299.2487, 8.702225
299.7308, 8.803177
300.2130, 9.256149
300.6951, 9.562714
301.1772, 9.360260
301.6593, 8.933319
302.1414, 8.610184
302.6235, 8.411903
303.1057, 8.429192
303.5878, 9.040642
304.0699, 9.891457
304.5520, 10.28413
305.0341, 9.617188
305.5162, 8.757515
305.9984, 8.611710
306.4805, 9.103691
306.9626, 9.754662
307.4447, 10.54807
307.9268, 11.29929
308.4089, 11.71683
308.8911, 11.54898
309.3732, 11.29859
309.8553, 11.26283
310.3374, 11.46436
310.8195, 11.95225
311.3016, 12.94532
311.7838, 14.17133
312.2659, 15.35896
312.7480, 16.52917
313.2301, 17.50446
313.7122, 18.02560
314.1943, 18.29211
314.6765, 18.71906
315.1586, 19.60788
315.6407, 20.61520
316.1228, 21.54185
316.6049, 22.37080
317.0870, 23.13596
317.5692, 23.78791
318.0513, 24.39860
318.5334, 25.06682
319.0155, 25.91850
319.4976, 26.75853
319.9797, 27.50900
320.4619, 28.16162
320.9440, 28.74369
321.4261, 29.32859
321.9082, 29.81954
322.3903, 30.12386
322.8724, 30.04368
323.3546, 29.94261
323.8367, 29.91032
324.3188, 29.95080
324.8009, 29.99435
325.2830, 30.43279
325.7651, 30.62851
326.2473, 30.16726
326.7294, 28.15768
327.2115, 26.47668
327.6936, 25.40106
328.1757, 24.84667
328.6578, 24.29287
329.1400, 23.93032
329.6221, 23.40591
330.1042, 22.54807
330.5863, 21.09710
331.0684, 19.73996
331.5505, 18.49775
332.0327, 17.34145
332.5148, 16.25235
332.9969, 15.23328
333.4790, 14.28743
333.9611, 13.47054
334.4432, 12.93251
334.9254, 11.83322
335.4075, 9.905174
335.8896, 7.656593
336.3717, 5.742714
336.8538, 4.148170
337.3359, 2.996429
337.8180, 2.451889
338.3001, 2.497849
338.7823, 2.288971
339.2644, 1.676674
339.7465, 1.126221
340.2286, 1.214249
340.7107, 2.099174
341.1928, 2.708321
341.6750, 2.823860
342.1571, 2.523041
342.6392, 2.064651
343.1213, 1.416725
343.6034, 0.7417140
344.0855, 0.1019820
344.5677, 0.4881900
345.0498, 0.9290310
345.5319, 1.194374
346.0140, 1.322304
346.4961, 1.299988
346.9782, 1.136520
347.4604, 1.098320
347.9425, 1.498970
348.4246, 2.168846
348.9067, 2.394135
349.3888, 2.071945
349.8709, 1.636948
350.3531, 1.723022
350.8352, 2.177803
351.3173, 2.430435
351.7994, 2.116516
352.2815, 1.492226
352.7636, 0.9016490
353.2458, 0.3443760
353.7279, 2.7214000E-02
354.2100, 0.1073460
354.6921, 0.4936290
355.1742, 0.6551670
355.6563, 0.1754380
356.1385, 0.2908940
356.6206, 4.6073999E-02
357.1027, 1.031120
357.5848, 1.863113
358.0669, 2.148338
358.5490, 2.026566
359.0312, 1.544640
359.5133, 0.4908600
359.9954, 0.4261550
360.4775, 0.7007370
360.9596, 0.5376050
361.4417, 0.3803330
361.9239, 0.4568100
362.4060, 0.5553590
362.8881, 0.4540710
363.3702, 2.0248000E-02
363.8523, 1.7494000E-02
364.3344, 1.163071
364.8166, 2.657654
365.2987, 3.440262
365.7808, 2.382576
366.2629, 1.469734
366.7450, 1.482269
367.2271, 2.417152
367.7093, 2.713287
368.1914, 1.426407
368.6735, 6.7192003E-02
369.1556, 0.8871960
369.6377, 0.4578630
370.1198, 1.2951000E-02
370.6020, 0.4657210
371.0841, 0.9402500
371.5662, 1.249916
372.0483, 1.193256
372.5304, 1.215836
373.0125, 1.538635
373.4947, 2.336735
373.9768, 2.922421
374.4589, 3.223938
374.9410, 3.374203
375.4231, 3.602371
375.9052, 3.973679
376.3874, 4.239288
376.8695, 4.293770
377.3516, 4.142437
377.8337, 4.108833
378.3158, 4.237400
378.7979, 4.347897
379.2801, 4.182281
379.7622, 3.714195
380.2443, 3.516548
380.7264, 3.812572
381.2085, 4.349934
381.6906, 4.375263
382.1728, 3.879238
382.6549, 3.387897
383.1370, 3.241592
383.6191, 3.394398
384.1012, 3.723289
384.5833, 4.254208
385.0655, 4.824944
385.5476, 5.230770
386.0297, 5.495228
386.5118, 5.694744
386.9939, 5.962795
387.4760, 6.149315
387.9582, 5.807362
388.4403, 4.918583
388.9224, 4.406010
389.4045, 5.644806
389.8866, 7.571339
390.3687, 8.652596
390.8509, 7.771484
391.3330, 6.544415
391.8151, 6.095695
392.2972, 6.274586
392.7793, 6.449677
393.2614, 6.378273
393.7436, 6.143177
394.2257, 5.707359
394.7078, 4.819946
395.1899, 4.350178
395.6720, 4.909878
396.1541, 6.028275
396.6363, 6.948757
397.1184, 7.398003
397.6005, 7.698376
398.0826, 7.965691
398.5647, 8.221649
399.0468, 8.338558
399.5290, 8.171406
400.0111, 7.929497
400.4932, 7.785473
400.9753, 7.941563
401.4574, 7.914089
401.9395, 7.523350
402.4217, 6.853912
402.9038, 6.471703
403.3859, 6.458302
403.8680, 6.649120
404.3501, 7.052742
404.8322, 7.848156
405.3144, 8.218456
405.7965, 8.009373
406.2786, 7.478291
406.7607, 7.048309
407.2428, 6.747025
407.7249, 6.629646
408.2071, 6.711445
408.6892, 6.941700
409.1713, 7.215710
409.6534, 7.601044
410.1355, 7.900318
410.6176, 7.777267
411.0998, 7.330067
411.5819, 7.191837
412.0640, 7.586697
412.5461, 8.075378
413.0282, 7.899158
413.5103, 7.194843
413.9925, 6.532028
414.4746, 6.140503
414.9567, 5.925358
415.4388, 5.923889
415.9209, 6.216190
416.4030, 6.383617
416.8852, 5.883549
417.3673, 5.102318
417.8494, 4.598179
418.3315, 4.887562
418.8136, 5.181404
419.2957, 4.913826
419.7779, 4.174088
420.2600, 3.473064
420.7421, 2.898663
421.2242, 2.510250
421.7063, 2.430897
422.1884, 2.923374
422.6706, 3.387615
423.1527, 3.549316
423.6348, 3.563744
424.1169, 3.745907
424.5990, 4.715008
425.0811, 5.368111
425.5633, 5.111534
426.0454, 3.680717
426.5275, 2.947227
427.0096, 3.359024
427.4917, 4.209206
427.9738, 4.884235
428.4560, 5.378223
428.9381, 5.691471
429.4202, 5.796764
429.9023, 5.700775
430.3844, 5.418427
430.8665, 4.866375
431.3487, 4.414295
431.8308, 4.320972
432.3129, 4.612236
432.7950, 4.610241
433.2771, 4.265076
433.7592, 3.743477
434.2414, 3.138760
434.7235, 2.475079
435.2056, 2.061649
435.6877, 2.004227
436.1698, 2.255184
436.6519, 2.858215
437.1341, 3.786804
437.6162, 4.596428
438.0983, 4.907558
438.5804, 4.907749
439.0625, 4.931446
439.5446, 5.065144
440.0268, 5.097050
440.5089, 4.671989
440.9910, 4.013885
441.4731, 3.583614
441.9552, 3.692226
442.4373, 4.009983
442.9195, 4.442436
443.4016, 4.967812
443.8837, 5.261295
444.3658, 4.911282
444.8479, 4.428493
445.3300, 4.215687
445.8122, 4.469929
446.2943, 4.831562
446.7764, 5.402424
447.2585, 6.055511
447.7406, 6.436806
448.2227, 6.433746
448.7049, 6.224281
449.1870, 5.790081
449.6691, 5.070686
450.1512, 4.537258
450.6333, 4.204716
451.1154, 4.047913
451.5976, 4.053223
452.0797, 4.232475
452.5618, 4.546741
453.0439, 5.056168
453.5260, 5.672482
454.0081, 6.125912
454.4903, 6.406094
454.9724, 6.588482
455.4545, 6.653145
455.9366, 6.630516
456.4187, 6.780346
456.9008, 7.135860
457.3830, 7.511635
457.8651, 7.783619
458.3472, 7.911266
458.8293, 7.707012
459.3114, 6.800232
459.7935, 5.844597
460.2757, 5.652107
460.7578, 6.151672
461.2399, 6.961922
461.7220, 8.325630
462.2041, 9.628803
462.6862, 10.17429
463.1684, 9.738087
463.6505, 9.211735
464.1326, 8.987141
464.6147, 9.020027
465.0968, 9.273258
465.5789, 9.912670
466.0611, 10.47713
466.5432, 10.88454
467.0253, 11.12532
467.5074, 11.12745
467.9895, 10.32108
468.4716, 9.723167
468.9538, 9.908783
469.4359, 11.60099
469.9180, 12.45448
470.4001, 12.05883
470.8822, 11.10992
471.3643, 10.68482
471.8465, 10.99660
472.3286, 11.21254
472.8107, 11.15129
473.2928, 10.82438
473.7749, 10.20036
474.2570, 9.226955
474.7392, 8.237255
475.2213, 7.447948
475.7034, 6.852581
476.1855, 6.427750
476.6676, 6.193916
477.1497, 6.048943
477.6319, 5.884975
478.1140, 5.703278
478.5961, 5.508518
479.0782, 5.215141
479.5603, 4.966743
480.0424, 5.010113
480.5246, 5.304890
481.0067, 5.524368
481.4888, 5.423946
481.9709, 5.180023
482.4530, 4.948410
482.9352, 4.766266
483.4173, 4.567039
483.8994, 4.378490
484.3815, 4.139912
484.8636, 3.761803
485.3457, 2.768902
485.8279, 2.101376
486.3100, 2.292919
486.7921, 3.341690
487.2742, 3.627281
487.7563, 2.310776
488.2384, 1.085812
488.7206, 1.012547
489.2027, 2.776962
489.6848, 3.830212
490.1669, 4.013538
490.6490, 3.617477
491.1311, 2.945473
491.6133, 1.914734
492.0954, 1.236515
492.5775, 1.252224
493.0596, 1.757664
493.5417, 1.985352
494.0238, 1.932564
494.5060, 1.816299
494.9881, 1.819008
495.4702, 1.875908
495.9523, 1.798180
496.4344, 1.528091
496.9165, 1.277721
497.3987, 1.348351
497.8808, 1.581837
498.3629, 1.679825
498.8450, 1.293350
499.3271, 0.9214970
499.8092, 1.012539
500.2914, 1.464661
500.7735, 1.709518
501.2556, 1.222206
501.7377, 0.6894870
502.2198, 0.5670810
502.7019, 1.152241
503.1841, 1.501652
503.6662, 1.227829
504.1483, 0.7723880
504.6304, 0.6718520
505.1125, 1.191124
505.5946, 1.593685
506.0768, 1.721550
506.5589, 1.641315
507.0410, 1.745392
507.5231, 2.162457
508.0052, 2.401882
508.4873, 1.993732
508.9695, 0.9328610
509.4516, 0.6823160
509.9337, 1.382427
510.4158, 2.340538
510.8979, 2.785347
511.3800, 2.802929
511.8622, 2.775028
512.3443, 2.851776
512.8264, 2.857586
513.3085, 2.476376
513.7906, 1.799625
514.2728, 1.154839
514.7549, 0.6855090
515.2370, 0.3549460
515.7191, 0.1180840
516.2012, 3.2097001E-02
516.6833, 1.3924000E-02
517.1655, 0.2722970
517.6476, 0.7085230
518.1297, 1.203655
518.6118, 2.328346
519.0939, 2.776447
519.5760, 1.766216
520.0582, 3.0658999E-02
520.5403, 1.008404
521.0224, 0.4505160
521.5045, 7.2123997E-02
521.9866, 0.4965860
522.4688, 1.723278
522.9509, 2.221279
523.4330, 1.876389
523.9151, 1.084908
524.3972, 9.1049001E-02
524.8793, 1.682281
525.3615, 2.573631
525.8436, 2.496693
526.3257, 1.981541
526.8078, 1.855392
527.2899, 2.032978
527.7720, 2.092953
528.2542, 1.723186
528.7363, 1.262016
529.2184, 1.297050
529.7005, 1.783390
530.1826, 2.154606
530.6647, 1.733532
531.1469, 1.150997
531.6290, 1.003956
532.1111, 1.504406
532.5932, 1.969994
533.0753, 2.044197
533.5574, 1.978001
534.0396, 2.031464
534.5217, 2.682079
535.0038, 2.945343
535.4859, 2.413574
535.9680, 1.381947
536.4501, 0.7590180
536.9323, 0.5800400
537.4144, 0.7659800
537.8965, 1.476627
538.3786, 2.738182
538.8607, 3.174801
539.3428, 2.555954
539.8250, 1.812443
540.3071, 1.912552
540.7892, 2.755230
541.2713, 3.419018
541.7534, 3.788700
542.2355, 3.865021
542.7177, 3.498692
543.1998, 2.810078
543.6819, 2.193623
544.1640, 1.793545
544.6461, 1.582619
545.1282, 1.663925
545.6104, 1.974129
546.0925, 2.127621
546.5746, 1.765167
547.0567, 1.290966
547.5388, 0.9301640
548.0209, 0.6807330
548.5031, 0.7074700
548.9852, 1.368496
549.4673, 2.175270
549.9494, 2.597073
550.4315, 2.325138
550.9136, 2.142937
551.3958, 2.180584
551.8779, 2.346046
552.3600, 2.338966
552.8421, 2.091431
553.3242, 1.907955
553.8063, 1.938793
554.2885, 2.155426
554.7706, 2.280224
555.2527, 2.290718
555.7348, 2.435822
556.2169, 3.217579
556.6990, 4.292465
557.1812, 4.704018
557.6633, 4.184227
558.1454, 3.444511
558.6275, 3.118416
559.1096, 3.061813
559.5917, 3.012939
560.0739, 3.086380
560.5560, 2.936897
561.0381, 2.087994
561.5202, 0.7768970
562.0023, 6.0270000E-03
562.4844, 0.4715770
562.9666, 1.149700
563.4487, 1.651226
563.9308, 1.992962
564.4129, 2.009914
564.8950, 1.412773
565.3771, 0.8066220
565.8593, 0.7674290
566.3414, 1.496784
566.8235, 1.904392
567.3056, 1.806789
567.7877, 1.461605
568.2698, 1.414932
568.7520, 1.657333
569.2341, 1.881966
569.7162, 1.987011
570.1983, 1.993847
570.6804, 1.814495
571.1625, 1.505249
571.6447, 1.443142
572.1268, 2.277157
572.6089, 3.246922
573.0910, 3.529583
573.5731, 2.957088
574.0552, 2.333138
574.5374, 1.967606
575.0195, 1.747303
575.5016, 1.563454
575.9837, 1.220436
576.4658, 1.132942
576.9479, 1.493107
577.4301, 2.092781
577.9122, 2.536449
578.3943, 2.782673
578.8764, 2.924137
579.3585, 2.946823
579.8406, 2.843628
580.3228, 2.671879
580.8049, 2.497410
581.2870, 2.143261
581.7691, 1.186913
582.2512, 0.1102180
582.7333, 0.6510390
583.2155, 0.3294720
583.6975, 0.3517800
584.1796, 1.307945
584.6617, 2.217007
585.1439, 2.530560
585.6260, 1.926991
586.1081, 1.012558
586.5902, 0.2015570
587.0723, 1.429430
587.5544, 2.103403
588.0366, 1.795496
588.5187, 1.203121
589.0008, 0.3565670
589.4829, 0.7005330
589.9650, 1.326536
590.4471, 1.211149
590.9293, 1.065512
591.4114, 1.249441
591.8935, 1.825142
592.3756, 2.305397
592.8577, 2.711245
593.3398, 2.963390
593.8220, 2.900547
594.3041, 2.572050
594.7862, 2.390991
595.2683, 2.483076
595.7504, 2.611052
596.2325, 2.402691
596.7147, 1.976871
597.1968, 1.647255
597.6789, 1.510336
598.1610, 1.550352
598.6431, 1.896919
599.1252, 2.459204
599.6074, 2.826422
600.0895, 2.837633
600.5716, 2.638443
601.0537, 2.231350
601.5358, 1.557690
602.0179, 1.088484
602.5001, 0.8626610
602.9822, 0.7416690
603.4643, 0.6872290
603.9464, 0.7587050
604.4285, 0.6764660
604.9106, 0.3316270
605.3928, 1.1354000E-02
605.8749, 0.1207830
606.3570, 0.6922340
606.8391, 1.236597
607.3212, 1.656441
607.8033, 1.917353
608.2855, 1.819151
608.7676, 1.480005
609.2497, 1.330090
609.7318, 1.966217
610.2139, 2.624586
610.6960, 2.592127
611.1782, 1.863329
611.6603, 1.257925
612.1424, 1.062813
612.6245, 1.077736
613.1066, 1.186251
613.5887, 1.398218
614.0709, 1.672390
614.5530, 2.166122
615.0351, 2.584929
615.5172, 2.578444
615.9993, 2.039703
616.4814, 1.543396
616.9636, 1.145365
617.4457, 0.8678050
617.9278, 0.8166240
618.4099, 0.9664210
618.8920, 1.049480
619.3741, 0.8328300
619.8563, 0.5651380
620.3384, 0.7274000
620.8205, 1.227913
621.3026, 1.655252
621.7847, 1.800591
622.2668, 1.761391
622.7490, 1.566387
623.2311, 1.203346
623.7132, 0.8591100
624.1953, 0.2929040
624.6774, 3.4262002E-02
625.1595, 0.2472930
625.6417, 1.762062
626.1238, 2.643194
626.6059, 2.673628
627.0880, 2.299334
627.5701, 2.110176
628.0522, 2.137163
628.5344, 2.032997
629.0165, 1.668167
629.4986, 1.214428
629.9807, 1.043922
630.4628, 1.107449
630.9449, 1.145447
631.4271, 0.9494420
631.9092, 0.7160470
632.3913, 0.6577380
632.8734, 0.7543680
633.3555, 0.8863640
633.8376, 1.029974
634.3198, 1.160282
634.8019, 1.302462
635.2840, 1.501776
635.7661, 1.470331
636.2482, 0.8878120
636.7303, 0.3085650
637.2125, 0.1422620
637.6946, 0.5874500
638.1767, 0.8451020
638.6588, 0.8073330
639.1409, 0.7122330
639.6230, 1.013378
640.1052, 1.652527
640.5873, 1.890011
641.0694, 1.414480
641.5515, 0.8147640
642.0336, 1.175257
642.5157, 2.146763
642.9979, 2.718966
643.4800, 1.923185
643.9621, 0.9368590
644.4442, 0.5238230
644.9263, 0.5804040
645.4084, 0.7592430
645.8906, 1.378952
646.3727, 1.896441
646.8548, 1.925541
647.3369, 1.305061
647.8190, 1.131399
648.3011, 1.697550
648.7833, 2.263680
649.2654, 2.093975
649.7475, 1.081478
650.2296, 0.7418770
650.7117, 1.276255
651.1938, 2.025085
651.6760, 2.127323
652.1581, 1.767427
652.6402, 1.493773
653.1223, 1.436110
653.6044, 1.527853
654.0865, 1.849598
654.5687, 2.261543
655.0508, 2.497101
655.5329, 2.379797
656.0150, 2.149940
656.4971, 1.881918
656.9792, 1.572762
657.4614, 1.190439
657.9435, 0.6335620
658.4256, 0.1407490
658.9077, 0.2481770
659.3898, 0.5271240
659.8719, 0.4770110
660.3541, 3.2047000E-02
660.8362, 0.4295440
661.3183, 0.5612350
661.8004, 0.4792270
662.2825, 0.7530040
662.7646, 1.439100
663.2468, 1.974529
663.7289, 1.705418
664.2110, 1.094082
664.6931, 0.7382320
665.1752, 0.8372250
665.6573, 1.014717
666.1395, 1.155252
666.6216, 1.263300
667.1037, 1.344261
667.5858, 1.386059
668.0679, 1.422258
668.5500, 1.508743
669.0322, 1.566919
669.5143, 1.355650
669.9964, 0.7747480
670.4785, 0.4124390
670.9606, 0.4903370
671.4427, 0.8802760
671.9249, 1.325293
672.4070, 1.800928
672.8891, 2.085894
673.3712, 1.784559
673.8533, 1.376553
674.3354, 1.568117
674.8176, 2.298090
675.2997, 2.779881
675.7818, 2.428062
676.2639, 1.848652
676.7460, 1.342468
677.2281, 0.8873420
677.7103, 0.8073370
678.1924, 1.478851
678.6745, 2.153231
679.1566, 2.199512
679.6387, 1.409786
680.1208, 1.018280
680.6030, 1.164629
681.0851, 1.502148
681.5672, 1.659885
682.0493, 1.639093
682.5314, 1.425783
683.0135, 0.9801500
683.4957, 0.5371270
683.9778, 0.3444790
684.4599, 0.3279860
684.9420, 0.3551730
685.4241, 0.2946590
685.9063, 0.3506470
686.3884, 0.7180730
686.8705, 1.278938
687.3526, 1.632700
687.8347, 1.768187
688.3168, 1.672033
688.7990, 1.140850
689.2811, 0.3315930
689.7632, 0.5811880
690.2453, 2.085318
690.7274, 3.301752
691.2095, 3.001310
691.6917, 1.740702
692.1738, 1.214079
692.6559, 1.419683
693.1380, 1.733150
693.6201, 1.735744
694.1022, 1.599077
694.5844, 1.451250
695.0665, 1.292675
695.5486, 1.270781
696.0307, 1.507248
696.5128, 1.831665
696.9949, 2.118700
697.4771, 2.427631
697.9592, 2.545908
698.4413, 2.352423
698.9234, 2.125761
699.4055, 2.299498
699.8876, 2.890476
700.3698, 3.192968
700.8519, 3.078970
701.3340, 2.648624
701.8161, 1.873743
702.2982, 0.8894500
702.7803, 2.8666001E-02
703.2625, 0.6531280
703.7446, 1.088854
704.2267, 1.274902
704.7088, 1.180265
705.1909, 0.7271840
705.6730, 0.7042330
706.1552, 1.813013
706.6373, 2.183416
707.1194, 1.970999
707.6015, 1.929945
708.0836, 2.185432
708.5657, 2.211157
709.0479, 1.607615
709.5300, 0.6168290
710.0121, 0.3519060
710.4942, 0.7893980
710.9763, 1.347624
711.4584, 1.727268
711.9406, 1.955730
712.4227, 2.021753
712.9048, 1.933285
713.3869, 1.868322
713.8690, 1.879290
714.3511, 1.969135
714.8333, 2.177496
715.3154, 2.600855
715.7975, 2.810995
716.2796, 2.714361
716.7617, 2.500183
717.2438, 2.341930
717.7260, 2.274580
718.2081, 2.127918
718.6902, 1.840889
719.1723, 1.588644
719.6544, 1.678959
720.1365, 1.973284
720.6187, 2.109709
721.1008, 1.973673
721.5829, 1.763193
722.0650, 1.513296
722.5471, 1.315382
723.0292, 1.290241
723.5114, 1.634182
723.9935, 1.958477
724.4756, 2.241114
724.9577, 2.456114
725.4398, 2.542202
725.9219, 2.443790
726.4041, 2.406744
726.8862, 2.554882
727.3683, 2.719044
727.8504, 2.309072
728.3325, 1.441185
728.8146, 0.9223230
729.2968, 1.438980
729.7789, 2.219597
730.2610, 2.317705
730.7431, 1.923399
731.2252, 1.667265
731.7073, 2.133389
732.1895, 2.492641
732.6716, 2.238548
733.1537, 1.424723
733.6358, 1.020039
734.1179, 1.204510
734.6000, 1.493599
735.0822, 1.697836
735.5643, 1.822638
736.0464, 1.918015
736.5285, 1.977747
737.0106, 2.095699
737.4927, 2.407585
737.9749, 2.795528
738.4570, 3.096762
738.9391, 3.296698
739.4212, 3.338367
739.9033, 3.171549
740.3854, 2.913813
740.8676, 2.530743
741.3497, 1.856838
741.8318, 1.423038
742.3139, 1.365417
742.7960, 1.378202
743.2781, 1.268698
743.7603, 0.9783000
744.2424, 1.099289
744.7245, 1.732912
745.2066, 2.424381
745.6887, 2.671482
746.1708, 2.611811
746.6530, 2.608017
747.1351, 2.734261
747.6172, 2.839138
748.0993, 2.823669
748.5814, 2.715897
749.0635, 2.538555
749.5457, 2.107361
750.0278, 1.917837
750.5099, 2.315298
750.9920, 2.799028
751.4741, 2.742565
751.9562, 1.996592
752.4384, 1.315502
752.9205, 0.7662770
753.4026, 0.4004100
753.8847, 0.2648370
754.3668, 0.3816720
754.8489, 0.8948750
755.3311, 2.098862
755.8132, 3.237072
756.2953, 3.618645
756.7774, 3.466211
757.2595, 3.166018
757.7416, 2.565088
758.2238, 2.140278
758.7059, 2.082157
759.1880, 2.248247
759.6701, 2.336212
760.1522, 2.301464
760.6343, 2.340282
761.1165, 2.517397
761.5986, 2.726337
762.0807, 2.561287
762.5628, 2.132368
763.0449, 2.010752
763.5270, 2.843184
764.0092, 3.739977
764.4913, 3.868956
764.9734, 3.401173
765.4555, 2.874327
765.9376, 2.177450
766.4197, 1.780720
766.9019, 2.120638
767.3840, 2.957775
767.8661, 3.103762
768.3482, 2.242439
768.8303, 1.648020
769.3124, 2.009169
769.7946, 2.961035
770.2767, 3.204899
770.7588, 2.793276
771.2409, 2.210762
771.7230, 1.506216
772.2051, 0.9448760
772.6873, 0.9372250
773.1694, 1.398487
773.6515, 1.672968
774.1336, 1.278994
774.6157, 0.8921130
775.0978, 0.7564160
775.5800, 0.8706360
776.0621, 1.317266
776.5442, 2.262117
777.0263, 3.070391
777.5084, 3.366428
777.9905, 3.231625
778.4727, 2.959616
778.9548, 2.560881
779.4369, 2.224268
779.9190, 2.135363
780.4011, 2.140806
780.8832, 2.039110
781.3654, 1.823015
781.8475, 1.791508
782.3296, 2.292839
782.8117, 2.774265
783.2938, 2.968969
783.7759, 2.858238
784.2581, 2.607296
784.7402, 2.109161
785.2223, 1.813753
785.7044, 2.263586
786.1865, 3.192993
786.6686, 3.501003
787.1508, 3.163120
787.6329, 2.691761
788.1150, 2.317244
788.5971, 2.085966
789.0792, 2.142572
789.5613, 2.553940
790.0435, 2.718977
790.5256, 2.355404
791.0077, 1.818275
791.4898, 1.163574
791.9719, 0.2760750
792.4540, 0.2893730
792.9362, 1.416349
793.4183, 2.563484
793.9004, 2.652826
794.3825, 2.048668
794.8646, 1.825066
795.3467, 2.062010
795.8289, 2.219728
796.3110, 1.990730
796.7931, 1.456882
797.2752, 0.5466140
797.7573, 0.9632990
798.2394, 1.873922
798.7216, 1.909248
799.2037, 1.498613
799.6858, 0.8339060
800.1679, 0.1291220
800.6500, 1.103285
801.1321, 2.149881
801.6143, 2.908056
802.0964, 2.837521
802.5785, 2.316313
803.0606, 2.009668
803.5427, 1.992363
804.0248, 2.222214
804.5070, 3.076870
804.9891, 3.887661
805.4712, 4.066536
805.9533, 3.236109
806.4354, 2.812183
806.9175, 3.063723
807.3997, 3.339478
807.8818, 3.092375
808.3639, 2.339851
808.8460, 1.725117
809.3281, 1.256134
809.8102, 1.110283
810.2924, 1.820528
810.7745, 2.779926
811.2566, 3.063253
811.7387, 2.471306
812.2208, 1.994492
812.7029, 2.391100
813.1851, 2.779213
813.6672, 2.440950
814.1493, 1.077370
814.6314, 0.2751310
815.1135, 9.3046002E-02
815.5956, 0.3429580
816.0778, 1.075563
816.5599, 2.148930
817.0420, 2.912174
817.5241, 3.331831
818.0062, 3.518013
818.4883, 3.465420
818.9705, 3.284212
819.4526, 3.050800
819.9347, 2.760395
820.4168, 2.544903
820.8989, 2.598614
821.3810, 2.573536
821.8632, 2.178015
822.3453, 1.310371
822.8274, 1.200838
823.3095, 1.962200
823.7916, 2.802547
824.2737, 3.158766
824.7559, 3.120501
825.2380, 2.745333
825.7201, 2.056549
826.2022, 1.449261
826.6843, 1.074621
827.1664, 0.9383680
827.6486, 1.130583
828.1307, 1.734283
828.6128, 2.083878
829.0949, 2.048933
829.5770, 1.998066
830.0591, 2.154247
830.5413, 2.489708
831.0234, 2.623062
831.5055, 2.555111
831.9876, 2.438316
832.4697, 2.358099
832.9518, 2.299593
833.4340, 2.260149
833.9161, 2.236530
834.3982, 2.178514
834.8803, 1.925314
835.3624, 1.784927
835.8445, 1.963205
836.3267, 2.437746
836.8088, 2.619329
837.2909, 2.445192
837.7730, 2.145573
838.2551, 1.667500
838.7372, 1.210627
839.2194, 1.442102
839.7015, 2.241343
840.1836, 2.910017
840.6657, 3.024288
841.1478, 2.901920
841.6299, 2.651613
842.1121, 2.304764
842.5942, 2.084303
843.0763, 1.978449
843.5584, 2.045668
844.0405, 2.306619
844.5226, 2.625605
845.0048, 2.928969
845.4869, 3.235641
845.9690, 3.322205
846.4511, 2.812624
846.9332, 2.248764
847.4153, 2.380342
847.8975, 2.953421
848.3796, 3.249524
848.8617, 2.783175
849.3438, 2.268290
849.8259, 1.829060
850.3080, 1.503344
850.7902, 1.383142
851.2723, 1.462755
851.7544, 1.809181
852.2365, 2.589136
852.7186, 3.414709
853.2007, 3.464159
853.6829, 2.985662
854.1650, 2.666454
854.6471, 2.990902
855.1292, 3.254055
855.6113, 2.932123
856.0934, 2.298457
856.5756, 1.894049
857.0577, 1.856849
857.5398, 1.944535
858.0219, 2.254786
858.5040, 2.469273
858.9861, 1.932278
859.4683, 0.8293030
859.9504, 0.2101070
860.4325, 0.3998410
860.9146, 0.8845460
861.3967, 1.426524
861.8788, 1.889420
862.3610, 2.096672
862.8431, 1.820371
863.3252, 1.618279
863.8073, 1.633906
864.2894, 1.645561
864.7715, 1.349680
865.2537, 0.7133990
865.7358, 0.5065880
866.2179, 0.8325030
866.7000, 1.262526
867.1821, 1.446014
867.6642, 1.422291
868.1464, 1.164390
868.6285, 0.6063120
869.1106, 0.2504520
869.5927, 0.3846420
870.0748, 0.7134170
870.5569, 1.085579
871.0391, 1.543613
871.5212, 1.717045
872.0033, 1.564760
872.4854, 1.276195
872.9675, 0.8548920
873.4496, 0.4434170
873.9318, 0.4843070
874.4139, 0.9472200
874.8960, 1.361257
875.3781, 1.407059
875.8602, 1.352864
876.3423, 1.320835
876.8245, 1.326253
877.3066, 1.471209
877.7887, 1.888444
878.2708, 2.133526
878.7529, 1.940310
879.2350, 1.480119
879.7172, 1.368991
880.1993, 1.556143
880.6814, 1.698423
881.1635, 1.508257
881.6456, 1.295669
882.1277, 1.307432
882.6099, 1.484746
883.0920, 1.648403
883.5741, 1.769789
884.0562, 1.884075
884.5383, 2.081083
885.0204, 2.205148
885.5026, 1.772516
885.9847, 0.8339790
886.4668, 0.1518260
886.9489, 6.4315997E-02
887.4310, 7.9124004E-02
887.9131, 0.7560090
888.3953, 1.622580
888.8774, 2.160112
889.3595, 1.978156
889.8416, 1.833595
890.3237, 1.987543
890.8058, 2.095461
891.2880, 1.675477
891.7701, 0.6545290
892.2522, 0.1528620
892.7343, 0.3220180
893.2164, 0.6259170
893.6985, 0.3345160
894.1807, 0.1079910
894.6628, 7.2356999E-02
895.1449, 1.114937
895.6270, 1.859131
896.1091, 1.652154
896.5912, 1.218962
897.0734, 0.9859960
897.5555, 0.9714290
898.0376, 1.014979
898.5197, 1.161035
899.0018, 1.097118
899.4839, 0.4124280
899.9661, 0.5531320
900.4482, 1.339614
900.9303, 1.882442
901.4124, 1.839412
901.8945, 0.4456270
902.3766, 0.9835430
902.8588, 1.911795
903.3409, 2.352736
903.8230, 2.355438
904.3051, 1.784901
904.7872, 1.302564
905.2693, 1.125306
905.7515, 1.159613
906.2336, 1.318103
906.7157, 1.532022
907.1978, 1.598847
907.6799, 1.304671
908.1620, 1.010826
908.6442, 0.6719540
909.1263, 0.5155280
909.6084, 0.9882760
910.0905, 2.622531
910.5726, 3.357941
911.0547, 2.785553
911.5369, 1.837482
912.0190, 1.892180
912.5011, 2.563843
912.9832, 2.697428
913.4653, 2.025328
913.9474, 1.284915
914.4296, 0.6930210
914.9117, 0.4026260
915.3938, 0.6976150
915.8759, 1.874825
916.3580, 2.264391
916.8401, 1.598175
917.3223, 0.8061890
917.8044, 0.4702030
918.2865, 0.5346750
918.7686, 0.8606200
919.2507, 1.414955
919.7328, 1.943653
920.2150, 2.303823
920.6971, 2.587797
921.1792, 2.857609
921.6613, 3.095962
922.1434, 3.117016
922.6255, 2.826124
923.1077, 2.551115
923.5898, 2.432689
924.0719, 2.339108
924.5540, 1.773552
925.0361, 0.9071970
925.5182, 0.4735280
926.0004, 0.9837020
926.4825, 1.598107
926.9646, 1.823909
927.4467, 1.812222
927.9288, 1.774803
928.4109, 1.692834
928.8931, 1.671313
929.3752, 1.728841
929.8573, 1.819339
930.3394, 1.870598
930.8215, 1.909914
931.3036, 2.050714
931.7858, 2.314387
932.2679, 2.595085
932.7500, 3.020857
933.2321, 3.283325
933.7142, 3.000104
934.1964, 2.027487
934.6785, 1.700758
935.1606, 2.265248
935.6427, 2.939470
936.1248, 3.402761
936.6069, 3.616780
937.0891, 3.432423
937.5712, 2.928644
938.0533, 2.400681
938.5354, 1.985847
939.0175, 1.616037
939.4996, 1.212766
939.9818, 0.8306300
940.4639, 0.6473330
940.9460, 0.7842140
941.4281, 0.7844520
941.9102, 0.5014310
942.3923, 0.1772440
942.8745, 0.2636540
943.3566, 0.6326380
943.8387, 0.9143310
944.3208, 1.005879
944.8029, 1.027860
945.2850, 0.9970950
945.7672, 0.9846670
946.2493, 1.075598
946.7314, 1.315639
947.2135, 1.501221
947.6956, 1.672174
948.1777, 1.654329
948.6599, 1.066135
949.1420, 0.2500710
949.6241, 0.1423440
950.1062, 0.6811530
950.5883, 1.203385
951.0704, 1.464514
951.5526, 1.507562
952.0347, 1.112033
952.5168, 0.5051050
952.9989, 0.5527770
953.4810, 1.451592
953.9631, 2.032591
954.4453, 1.869776
954.9274, 1.387464
955.4095, 1.300028
955.8916, 1.431046
956.3737, 1.365808
956.8558, 0.7121150
957.3380, 0.3428430
957.8201, 0.9107450
958.3022, 1.583538
958.7843, 1.523783
959.2664, 0.5503340
959.7485, 0.2852450
960.2307, 0.7921460
960.7128, 1.375177
961.1949, 1.375344
961.6770, 1.122422
962.1591, 1.076979
962.6412, 1.262472
963.1234, 1.482744
963.6055, 1.889638
964.0876, 2.058147
964.5697, 1.749990
965.0518, 1.102577
965.5339, 0.7307370
966.0161, 0.6333050
966.4982, 0.5269320
966.9803, 0.2144560
967.4624, 1.0758000E-02
967.9445, 0.2698230
968.4266, 0.8456850
968.9088, 1.363226
969.3909, 1.897686
969.8730, 2.108847
970.3551, 1.894347
970.8372, 1.475426
971.3193, 1.006667
971.8015, 0.5130820
972.2836, 0.2052510
972.7657, 0.1031230
973.2478, 0.1149240
973.7299, 0.2931030
974.2120, 0.4561870
974.6942, 0.3983320
975.1763, 0.1097780
975.6584, 0.2250870
976.1405, 1.130134
976.6226, 1.626992
977.1047, 1.090932
977.5869, 3.9100000E-03
978.0690, 0.3663720
978.5511, 0.1135620
979.0332, 0.4281370
979.5153, 1.500063
979.9974, 2.294313
980.4796, 2.077510
980.9617, 1.429741
981.4438, 1.190379
981.9259, 1.549659
982.4080, 1.756418
982.8901, 1.735418
983.3723, 1.716300
983.8544, 2.082943
984.3365, 2.561540
984.8186, 2.557922
985.3007, 2.069759
985.7828, 1.651473
986.2650, 1.501590
986.7471, 1.450173
987.2292, 1.510999
987.7113, 1.633997
988.1934, 1.491440
988.6755, 1.066096
989.1577, 0.8055240
989.6398, 1.012590
990.1219, 1.277286
990.6040, 0.9064820
991.0861, 0.2058870
991.5682, 0.2403200
992.0504, 4.4721000E-02
992.5325, 0.1364210
993.0146, 0.2023620
993.4967, 0.5332370
993.9788, 0.4072550
994.4609, 0.1244270
994.9431, 0.6919680
995.4252, 1.275476
995.9073, 1.632465
996.3894, 1.400692
996.8715, 1.036050
997.3536, 0.7956340
997.8358, 0.7230270
998.3179, 0.9753100
998.8000, 1.778641
999.2821, 2.289145
999.7642, 2.171269
1000.246, 1.758927
1000.728, 1.741418
1001.211, 1.982453
1001.693, 2.157010
1002.175, 2.243690
1002.657, 2.076834
1003.139, 1.216672
1003.621, 0.3296640
1004.103, 6.0899999E-02
1004.585, 0.5495970
1005.068, 0.8538400
1005.550, 0.9652340
1006.032, 0.9949210
1006.514, 0.9711830
1006.996, 0.9518670
1007.478, 1.073115
1007.960, 1.291478
1008.442, 1.348799
1008.924, 0.9974280
1009.407, 0.7380160
1009.889, 0.5617130
1010.371, 0.5212310
1010.853, 0.7853700
1011.335, 1.275937
1011.817, 1.404696
1012.299, 0.9529140
1012.781, 0.4930930
1013.263, 0.4971910
1013.746, 0.6732690
1014.228, 0.7403780
1014.710, 0.6543570
1015.192, 0.5516880
1015.674, 0.3792870
1016.156, 0.3754460
1016.638, 0.8846610
1017.120, 1.568399
1017.603, 1.571482
1018.085, 1.076263
1018.567, 0.7270760
1019.049, 0.9850470
1019.531, 1.221389
1020.013, 1.276077
1020.495, 1.187636
1020.977, 0.8990640
1021.459, 0.3963890
1021.942, 0.4092450
1022.424, 1.095997
1022.906, 1.778529
1023.388, 1.774878
1023.870, 1.490476
1024.352, 1.312271
1024.834, 1.290995
1025.316, 1.293981
1025.799, 1.411720
1026.281, 1.323277
1026.763, 0.7469100
1027.245, 8.6110001E-03
1027.727, 5.1899999E-03
1028.209, 0.5457850
1028.691, 1.158776
1029.173, 1.927843
1029.656, 2.254988
1030.138, 1.361088
1030.620, 0.1934960
1031.102, 0.2023320
1031.584, 0.3565160
1032.066, 0.6178600
1032.548, 0.5244100
1033.030, 0.4447660
1033.512, 0.7038480
1033.995, 1.134415
1034.477, 1.676357
1034.959, 2.252786
1035.441, 2.455848
1035.923, 1.995886
1036.405, 1.397878
1036.887, 0.5933100
1037.369, 0.1252220
1037.851, 2.9899999E-02
1038.334, 0.6652490
1038.816, 1.110114
1039.298, 1.050165
1039.780, 1.024453
1040.262, 1.694328
1040.744, 2.275200
1041.226, 2.053226
1041.708, 0.9702880
1042.191, 0.1091510
1042.673, 0.4347350
1043.155, 0.6753360
1043.637, 0.3353280
1044.119, 0.3203370
1044.601, 1.017212
1045.083, 1.651521
1045.565, 1.961260
1046.047, 1.780764
1046.530, 1.341669
1047.012, 0.4682780
1047.494, 0.3522910
1047.976, 0.5216840
1048.458, 0.1507500
1048.940, 0.3180730
1049.422, 0.8313960
1049.904, 1.183603
1050.386, 1.009675
1050.869, 0.8081590
1051.351, 0.9171740
1051.833, 1.285927
1052.315, 1.579298
1052.797, 1.747909
1053.279, 2.088025
1053.761, 2.797089
1054.243, 3.407420
1054.726, 3.115301
1055.208, 2.441310
1055.690, 2.134325
1056.172, 2.479650
1056.654, 2.771647
1057.136, 2.926336
1057.618, 3.058859
1058.100, 3.279792
1058.583, 3.526849
1059.065, 3.536680
1059.547, 3.340250
1060.029, 3.078599
1060.511, 2.619215
1060.993, 2.352421
1061.475, 2.616181
1061.957, 3.084612
1062.439, 3.302070
1062.922, 3.232862
1063.404, 3.292206
1063.886, 3.542816
1064.368, 3.618775
1064.850, 3.151340
1065.332, 2.378260
1065.814, 1.291835
1066.296, 1.3383000E-02
1066.778, 0.5418660
1067.261, 4.9975999E-02
1067.743, 0.7823560
1068.225, 1.477295
1068.707, 2.059542
1069.189, 2.329025
1069.671, 2.373939
1070.153, 2.381893
1070.635, 2.379486
1071.118, 2.414231
1071.600, 2.505715
1072.082, 2.648699
1072.564, 2.934393
1073.046, 3.314095
1073.528, 3.008899
1074.010, 2.083897
1074.492, 1.444704
1074.974, 1.950794
1075.457, 2.496135
1075.939, 1.954179
1076.421, 2.356989
1076.903, 2.507459
1077.385, 2.144223
1077.867, 2.639649
1078.349, 2.139120
1078.831, 1.462132
1079.313, 1.268248
1079.796, 1.434088
1080.278, 1.954751
1080.760, 2.737767
1081.242, 3.197327
1081.724, 2.847291
1082.206, 2.541185
1082.688, 2.446426
1083.170, 2.483051
1083.652, 2.618000
1084.135, 2.769464
1084.617, 2.492011
1085.099, 1.603852
1085.581, 1.047297
1086.063, 1.758864
1086.545, 2.631009
1087.027, 2.905016
1087.509, 2.661566
1087.992, 2.919303
1088.474, 3.688283
1088.956, 4.036221
1089.438, 3.342221
1089.920, 2.568037
1090.402, 2.793938
1090.884, 3.478785
1091.366, 3.859138
1091.849, 3.620316
1092.331, 3.742998
1092.813, 4.402468
1093.295, 4.829254
1093.777, 4.187240
1094.259, 3.060835
1094.741, 2.540997
1095.223, 2.497013
1095.705, 2.476786
1096.188, 2.159808
1096.670, 2.011450
1097.152, 2.112886
1097.634, 2.390431
1098.116, 3.162802
1098.598, 4.094139
1099.080, 3.055023
1099.562, 0.1042050
1100.044, 2.343230
1100.527, 1.025949
1101.009, 0.9109480
1101.491, 1.953671
1101.973, 2.369172
1102.455, 3.047493
1102.937, 3.999876
1103.419, 4.411065
1103.901, 3.999686
1104.384, 3.310135
1104.866, 2.662067
1105.348, 2.110030
1105.830, 1.791458
1106.312, 1.785690
1106.794, 1.726582
1107.276, 1.543999
1107.758, 1.507446
1108.240, 1.777056
1108.723, 2.216892
1109.205, 2.796892
1109.687, 3.349562
1110.169, 3.539003
1110.651, 2.929730
1111.133, 2.594257
1111.615, 2.665819
1112.097, 2.913288
1112.579, 3.219153
1113.062, 3.549882
1113.544, 3.844412
1114.026, 4.162039
1114.508, 4.277735
1114.990, 3.782742
1115.472, 3.331248
1115.954, 3.174054
1116.436, 3.183148
1116.919, 3.269766
1117.401, 3.415739
1117.883, 3.301624
1118.365, 2.899522
1118.847, 2.514421
1119.329, 2.442822
1119.811, 2.388607
1120.293, 1.955473
1120.776, 1.382980
1121.258, 1.642781
1121.740, 2.864756
1122.222, 3.628031
1122.704, 3.603789
1123.186, 3.189322
1123.668, 2.324141
1124.150, 1.580899
1124.632, 1.719039
1125.115, 3.014603
1125.597, 3.709915
1126.079, 3.628640
1126.561, 3.436666
1127.043, 3.309536
1127.525, 3.328208
1128.007, 3.816336
1128.489, 4.482782
1128.971, 4.827627
1129.454, 4.690808
1129.936, 4.261826
1130.418, 3.285655
1130.900, 2.579595
1131.382, 2.791571
1131.864, 3.582643
1132.346, 4.110261
1132.828, 4.330437
1133.311, 4.097935
1133.793, 2.788319
1134.275, 1.759441
1134.757, 1.254251
1135.239, 1.182638
1135.721, 1.697422
1136.203, 2.671795
1136.685, 3.004483
1137.167, 2.704600
1137.650, 2.224106
1138.132, 1.535101
1138.614, 1.062353
1139.096, 1.155514
1139.578, 1.535813
1140.060, 1.810302
1140.542, 1.981219
1141.024, 2.043495
1141.506, 1.997170
1141.989, 1.840594
1142.471, 1.329417
1142.953, 0.9201370
1143.435, 1.045539
1143.917, 1.605419
1144.399, 2.083850
1144.881, 2.508049
1145.363, 2.599447
1145.846, 2.239503
1146.328, 1.772840
1146.810, 1.416090
1147.292, 1.262778
1147.774, 1.578578
1148.256, 2.444375
1148.738, 2.557256
1149.220, 1.616024
1149.703, 0.9748340
1150.185, 1.208805
1150.667, 1.768777
1151.149, 2.029580
1151.631, 1.987342
1152.113, 1.514475
1152.595, 0.2506980
1153.077, 0.1286750
1153.559, 0.8042320
1154.042, 1.843157
1154.524, 2.491381
1155.006, 2.771226
1155.488, 2.628491
1155.970, 2.160978
1156.452, 1.588453
1156.934, 0.6529960
1157.416, 0.2538840
1157.898, 0.5750500
1158.381, 1.144306
1158.863, 1.380080
1159.345, 1.348988
1159.827, 1.662169
1160.309, 2.221236
1160.791, 2.621937
1161.273, 2.550797
1161.755, 2.459273
1162.238, 2.423699
1162.720, 2.456214
1163.202, 2.706653
1163.684, 3.075790
1164.166, 2.745698
1164.648, 1.775407
1165.130, 1.063433
1165.612, 1.504889
1166.094, 1.870665
1166.577, 1.546952
1167.059, 0.8991240
1167.541, 0.3490630
1168.023, 7.2552003E-02
1168.505, 0.2894740
1168.987, 1.508924
1169.469, 2.443702
1169.951, 2.320469
1170.433, 1.643621
1170.916, 0.1874020
1171.398, 1.460144
1171.880, 1.712832
1172.362, 0.5929750
1172.844, 0.4984410
1173.326, 1.315309
1173.808, 1.940363
1174.290, 2.558402
1174.773, 2.905666
1175.255, 2.609245
1175.737, 1.817110
1176.219, 1.136983
1176.701, 0.5452640
1177.183, 0.5455050
1177.665, 1.416395
1178.147, 2.403610
1178.630, 2.947625
1179.112, 3.140893
1179.594, 2.911303
1180.076, 2.275921
1180.558, 2.230558
1181.040, 2.866246
1181.522, 3.206468
1182.004, 2.689475
1182.486, 1.999380
1182.969, 2.002865
1183.451, 2.272356
1183.933, 2.274515
1184.415, 1.898588
1184.897, 1.583039
1185.379, 1.278609
1185.861, 1.254600
1186.343, 1.873090
1186.825, 2.540071
1187.308, 2.391796
1187.790, 1.871864
1188.272, 1.692746
1188.754, 2.089490
1189.236, 2.447556
1189.718, 2.796682
1190.200, 2.939228
1190.682, 2.587361
1191.165, 2.094000
1191.647, 1.920300
1192.129, 1.938919
1192.611, 1.895320
1193.093, 1.777081
1193.575, 1.472243
1194.057, 0.8961450
1194.539, 0.4720370
1195.021, 0.5514720
1195.504, 0.9615470
1195.986, 1.681382
1196.468, 2.530100
1196.950, 2.969617
1197.432, 2.734275
1197.914, 2.476854
1198.396, 2.196966
1198.878, 2.039847
1199.360, 2.261000
1199.843, 2.618057
1200.325, 2.788727
1200.807, 2.780437
1201.289, 2.654698
1201.771, 2.250518
1202.253, 2.176768
1202.735, 2.604661
1203.217, 3.037431
1203.700, 2.786892
1204.182, 2.273406
1204.664, 2.126067
1205.146, 2.327119
1205.628, 2.460582
1206.110, 2.451724
1206.592, 2.377051
1207.074, 2.212877
1207.557, 2.087929
1208.039, 2.308636
1208.521, 2.590661
1209.003, 2.521697
1209.485, 2.074573
1209.967, 1.424386
1210.449, 0.2943170
1210.931, 0.2805820
1211.413, 4.1071001E-02
1211.896, 0.7237580
1212.378, 1.168082
1212.860, 1.462905
1213.342, 1.749828
1213.824, 2.046094
1214.306, 2.141947
1214.788, 1.960603
1215.270, 1.740793
1215.752, 1.491363
1216.235, 1.374843
1216.717, 1.783056
1217.199, 2.397184
1217.681, 2.791127
1218.163, 2.903454
1218.645, 2.696930
1219.127, 1.983037
1219.609, 1.592843
1220.092, 1.894360
1220.574, 2.397121
1221.056, 2.253048
1221.538, 1.892220
1222.020, 1.993740
1222.502, 2.750325
1222.984, 3.284657
1223.466, 3.637583
1223.948, 3.535034
1224.431, 2.619777
1224.913, 1.618802
1225.395, 1.694029
1225.877, 2.266587
1226.359, 2.540379
1226.841, 2.300591
1227.323, 2.179313
1227.805, 2.266674
1228.287, 2.089454
1228.770, 1.313533
1229.252, 0.3810350
1229.734, 0.1124800
1230.216, 0.2169870
1230.698, 8.2149999E-03
1231.180, 0.1260400
1231.662, 0.5097700
1232.144, 0.2984850
1232.627, 1.258923
1233.109, 1.415353
1233.591, 1.384233
1234.073, 2.121569
1234.555, 3.026326
1235.037, 3.203125
1235.519, 2.432413
1236.001, 1.899446
1236.484, 1.630345
1236.966, 1.408001
1237.448, 1.168970
1237.930, 0.8649400
1238.412, 0.2319390
1238.894, 0.3833390
1239.376, 0.4090120
1239.858, 0.2971760
1240.340, 0.5061850
1240.823, 0.1932820
1241.305, 0.1433710
1241.787, 0.3192860
1242.269, 0.2986330
1242.751, 3.1086000E-02
1243.233, 0.4533250
1243.715, 1.185725
1244.197, 2.229586
1244.679, 2.725895
1245.162, 2.686705
1245.644, 2.497395
1246.126, 2.410975
1246.608, 2.198936
1247.090, 1.545952
1247.572, 0.7923860
1248.054, 0.2803170
1248.536, 1.9160000E-03
1249.019, 0.1639480
1249.501, 0.7484870
1249.983, 1.456492
1250.465, 2.367392
1250.947, 3.049215
1251.429, 3.215853
1251.911, 3.079385
1252.393, 2.784973
1252.875, 2.344068
1253.358, 1.861276
1253.840, 1.385038
1254.322, 1.220305
1254.804, 1.896914
1255.286, 2.432487
1255.768, 2.498822
1256.250, 2.281979
1256.732, 1.773538
1257.214, 1.048516
1257.697, 0.8066230
1258.179, 0.9775990
1258.661, 1.318007
1259.143, 2.064600
1259.625, 2.449492
1260.107, 2.199213
1260.589, 1.803083
1261.071, 1.638281
1261.554, 1.665128
1262.036, 1.785761
1262.518, 1.987140
1263.000, 2.233088
1263.482, 2.799820
1263.964, 2.893642
1264.446, 2.273001
1264.928, 1.608915
1265.411, 1.434152
1265.893, 1.619998
1266.375, 2.079535
1266.857, 2.678872
1267.339, 3.060428
1267.821, 2.829659
1268.303, 3.068171
1268.785, 4.000788
1269.267, 4.634258
1269.750, 3.828646
1270.232, 2.539965
1270.714, 1.893291
1271.196, 1.702888
1271.678, 1.741825
1272.160, 2.157061
1272.642, 2.277287
1273.124, 2.158675
1273.606, 1.960944
1274.089, 1.531954
1274.571, 1.182172
1275.053, 1.224509
1275.535, 1.538726
1276.017, 1.962784
1276.499, 2.628373
1276.981, 2.456558
1277.463, 1.437838
1277.946, 0.6319340
1278.428, 0.9797590
1278.910, 1.487424
1279.392, 1.734180
1279.874, 1.660136
1280.356, 1.012082
1280.838, 0.1707640
1281.320, 0.4024500
1281.802, 0.2502370
1282.285, 0.9994570
1282.767, 1.582397
1283.249, 1.975152
1283.731, 2.148049
1284.213, 2.153128
1284.695, 2.042511
1285.177, 1.795506
1285.659, 1.069046
1286.141, 6.4915001E-02
1286.624, 0.3739190
1287.106, 0.6659770
1287.588, 1.493195
1288.070, 1.850647
1288.552, 2.018795
1289.034, 2.145750
1289.516, 2.274672
1289.998, 2.576706
1290.481, 2.956532
1290.963, 3.166113
1291.445, 2.942833
1291.927, 2.950321
1292.409, 2.988710
1292.891, 3.126810
1293.373, 2.505300
1293.855, 1.706886
1294.338, 1.639625
1294.820, 1.006202
1295.302, 1.372935
1295.784, 0.3414760
1296.266, 1.4359000E-02
1296.748, 0.4189150
1297.230, 1.013398
1297.712, 1.703011
1298.194, 2.203247
1298.677, 2.108311
1299.159, 1.723628
1299.641, 1.466272
1300.123, 1.259491
1300.605, 1.096480
1301.087, 0.9200170
1301.569, 0.6873450
1302.051, 0.2472980
1302.533, 5.4660002E-03
1303.016, 0.0000000E+00
##END=



