##NAMES=Tsepinite-Na
##RRUFFID=R070241
##IDEAL CHEMISTRY=(Na,H_3_O,K,Sr,Ba,[box])_12_Ti^4+^_8_(Si_4_O_12_)_4_(OH,O)_8_&#183;12-16H_2_O
##LOCALITY=Lepkhe-Nel'm Mt. (Lepkhe-Nelm Mt.), Seidozero Lake, Lovozero Massif, Kola Peninsula, Murmanskaja Oblast', Northern Region, Russia
##OWNER=RRUFF
##SOURCE=Michael Scott
##DESCRIPTION=Subparallel pale tan prismatic crystals with vitreous luster
##STATUS=The identification of this mineral has been confirmed only by single crystal X-ray diffraction.
##URL=rruff.info/R070241
157.1782, 0.0000000E+00
157.6603, 16.56860
158.1424, 28.50684
158.6245, 30.70557
159.1066, 12.68604
159.5887, 26.31396
160.0709, 20.57812
160.5530, 16.07129
161.0351, 5.186523
161.5172, 17.04541
161.9993, 30.63135
162.4814, 14.18018
162.9636, 20.42529
163.4457, 54.15088
163.9278, 81.84961
164.4099, 103.6089
164.8920, 117.9761
165.3741, 122.9536
165.8563, 125.1421
166.3384, 124.5977
166.8205, 124.3525
167.3026, 130.4355
167.7847, 149.5034
168.2668, 175.1587
168.7490, 192.9258
169.2311, 199.6836
169.7132, 205.7217
170.1953, 217.8032
170.6774, 232.7578
171.1595, 246.1733
171.6417, 259.4683
172.1238, 268.4497
172.6059, 258.6294
173.0880, 216.2451
173.5701, 182.8726
174.0522, 183.4971
174.5344, 202.5298
175.0165, 217.5630
175.4986, 216.5522
175.9807, 205.3818
176.4628, 199.0503
176.9449, 194.0151
177.4271, 201.7407
177.9092, 237.8472
178.3913, 284.6489
178.8734, 317.0190
179.3555, 320.1660
179.8376, 303.9565
180.3197, 298.3218
180.8019, 309.6299
181.2840, 320.5938
181.7661, 322.8696
182.2482, 322.5396
182.7303, 327.6357
183.2124, 343.0889
183.6946, 364.7920
184.1767, 379.8271
184.6588, 379.5845
185.1409, 387.8628
185.6230, 420.7324
186.1051, 460.5698
186.5873, 485.9463
187.0694, 485.5229
187.5515, 469.1875
188.0336, 462.3008
188.5157, 463.3638
188.9978, 478.4541
189.4800, 522.3940
189.9621, 572.7524
190.4442, 604.7021
190.9263, 605.8242
191.4084, 589.4961
191.8905, 588.1113
192.3727, 609.1343
192.8548, 633.0957
193.3369, 659.1943
193.8190, 685.0264
194.3011, 707.8369
194.7832, 726.4868
195.2654, 743.2583
195.7475, 763.5830
196.2296, 793.2798
196.7117, 815.5615
197.1938, 820.7554
197.6759, 823.0449
198.1581, 834.7197
198.6402, 859.9482
199.1223, 893.7139
199.6044, 927.4912
200.0865, 963.1064
200.5686, 994.8438
201.0508, 1029.535
201.5329, 1056.921
202.0150, 1059.362
202.4971, 1034.948
202.9792, 1009.932
203.4613, 1032.425
203.9435, 1137.431
204.4256, 1210.672
204.9077, 1236.160
205.3898, 1241.410
205.8719, 1239.483
206.3540, 1235.306
206.8362, 1232.793
207.3183, 1237.804
207.8004, 1252.961
208.2825, 1269.085
208.7646, 1289.424
209.2467, 1308.157
209.7289, 1319.444
210.2110, 1323.911
210.6931, 1328.724
211.1752, 1342.267
211.6573, 1366.010
212.1395, 1393.062
212.6216, 1424.300
213.1037, 1457.622
213.5858, 1495.465
214.0679, 1535.469
214.5500, 1570.355
215.0322, 1583.409
215.5143, 1577.776
215.9964, 1583.725
216.4785, 1612.444
216.9606, 1642.346
217.4427, 1666.890
217.9249, 1686.017
218.4070, 1702.366
218.8891, 1718.719
219.3712, 1734.881
219.8533, 1740.735
220.3354, 1711.376
220.8176, 1697.217
221.2997, 1726.160
221.7818, 1780.854
222.2639, 1825.700
222.7460, 1834.232
223.2281, 1810.286
223.7103, 1793.942
224.1924, 1792.583
224.6745, 1791.344
225.1566, 1789.635
225.6387, 1785.632
226.1208, 1776.650
226.6030, 1760.776
227.0851, 1739.588
227.5672, 1719.496
228.0493, 1698.654
228.5314, 1681.750
229.0135, 1670.970
229.4957, 1663.769
229.9778, 1659.827
230.4599, 1659.424
230.9420, 1656.677
231.4241, 1635.097
231.9062, 1578.572
232.3884, 1530.612
232.8705, 1498.102
233.3526, 1474.512
233.8347, 1454.775
234.3168, 1437.163
234.7989, 1421.346
235.2811, 1407.473
235.7632, 1397.694
236.2453, 1384.502
236.7274, 1369.845
237.2095, 1350.313
237.6916, 1320.624
238.1738, 1281.028
238.6559, 1239.732
239.1380, 1205.200
239.6201, 1176.247
240.1022, 1158.871
240.5843, 1164.384
241.0665, 1172.435
241.5486, 1180.158
242.0307, 1183.421
242.5128, 1171.935
242.9949, 1130.024
243.4770, 1053.965
243.9592, 991.2432
244.4413, 940.9341
244.9234, 906.3755
245.4055, 901.1675
245.8876, 914.2329
246.3697, 918.7373
246.8519, 892.1143
247.3340, 838.4106
247.8161, 795.2168
248.2982, 762.7920
248.7803, 742.0420
249.2624, 739.4263
249.7446, 746.2476
250.2267, 748.0630
250.7088, 735.2529
251.1909, 714.4790
251.6730, 707.1416
252.1551, 724.1733
252.6373, 732.0444
253.1194, 710.3047
253.6015, 678.9048
254.0836, 660.8003
254.5657, 666.0898
255.0478, 680.4893
255.5300, 680.2603
256.0121, 661.2329
256.4942, 643.3589
256.9763, 632.9287
257.4584, 625.5034
257.9406, 618.4097
258.4227, 611.1465
258.9048, 603.3994
259.3869, 594.5098
259.8690, 584.3916
260.3511, 574.6924
260.8333, 565.7134
261.3154, 557.1289
261.7975, 545.7495
262.2796, 532.3452
262.7617, 526.0728
263.2438, 540.1030
263.7260, 569.6147
264.2081, 585.4307
264.6902, 579.2061
265.1723, 566.6704
265.6544, 556.3076
266.1365, 548.7939
266.6187, 547.2246
267.1008, 561.9683
267.5829, 582.0327
268.0650, 579.7910
268.5471, 547.1807
269.0292, 516.6069
269.5114, 516.6509
269.9935, 533.6611
270.4756, 545.1318
270.9577, 541.5840
271.4398, 533.1597
271.9219, 533.3862
272.4041, 542.6548
272.8862, 545.7466
273.3683, 529.2847
273.8504, 504.5298
274.3325, 492.4058
274.8146, 494.7534
275.2968, 508.2207
275.7789, 539.9629
276.2610, 583.7212
276.7431, 612.7876
277.2252, 614.7139
277.7073, 601.4424
278.1895, 590.9751
278.6716, 581.9351
279.1537, 580.0376
279.6358, 592.6196
280.1179, 612.5698
280.6000, 627.3848
281.0822, 633.9727
281.5643, 637.4136
282.0464, 642.3647
282.5285, 648.5376
283.0106, 660.0601
283.4927, 690.0659
283.9749, 717.6011
284.4570, 718.4048
284.9391, 692.5640
285.4212, 665.5698
285.9033, 658.4497
286.3854, 671.2451
286.8676, 680.0439
287.3497, 678.1348
287.8318, 679.0786
288.3139, 697.7607
288.7960, 725.5000
289.2781, 736.2778
289.7603, 712.7754
290.2424, 666.2842
290.7245, 645.3330
291.2066, 672.1030
291.6887, 695.0054
292.1708, 706.7764
292.6530, 710.3911
293.1351, 708.5146
293.6172, 702.2085
294.0993, 693.4087
294.5814, 685.6182
295.0635, 679.5049
295.5457, 673.0811
296.0278, 662.3062
296.5099, 654.1978
296.9920, 660.1196
297.4741, 677.8120
297.9562, 688.4341
298.4384, 667.5596
298.9205, 606.4741
299.4026, 574.3979
299.8847, 598.1055
300.3668, 623.8389
300.8489, 633.1294
301.3310, 629.4829
301.8131, 624.5474
302.2953, 626.3857
302.7774, 633.9160
303.2595, 641.9341
303.7416, 648.8232
304.2237, 657.4380
304.7058, 673.8989
305.1880, 692.6724
305.6701, 706.5039
306.1522, 711.1396
306.6343, 707.2090
307.1164, 694.5459
307.5985, 671.2798
308.0807, 647.9609
308.5628, 615.6968
309.0449, 591.2158
309.5270, 591.4312
310.0091, 616.6353
310.4912, 644.6411
310.9734, 654.8091
311.4555, 648.2769
311.9376, 641.6743
312.4197, 640.9761
312.9018, 634.1919
313.3839, 607.2695
313.8661, 568.2471
314.3482, 539.3369
314.8303, 538.2319
315.3124, 550.1953
315.7945, 548.0259
316.2766, 529.3643
316.7588, 508.9570
317.2409, 491.7197
317.7230, 479.7798
318.2051, 476.8389
318.6872, 487.0068
319.1693, 499.3906
319.6515, 509.6494
320.1336, 516.9800
320.6157, 514.8335
321.0978, 497.5962
321.5799, 475.0811
322.0620, 462.8091
322.5442, 461.8262
323.0263, 462.0146
323.5084, 469.3867
323.9905, 472.7134
324.4726, 450.2061
324.9547, 397.9819
325.4369, 346.3579
325.9190, 325.5205
326.4011, 339.2246
326.8832, 350.5215
327.3653, 362.7183
327.8474, 368.0244
328.3296, 357.8491
328.8117, 336.8853
329.2938, 317.3179
329.7759, 306.3506
330.2580, 302.8726
330.7401, 303.3296
331.2223, 321.7002
331.7044, 327.3853
332.1865, 305.1138
332.6686, 274.6992
333.1507, 258.7441
333.6328, 263.7461
334.1150, 277.6455
334.5971, 283.8115
335.0792, 284.4668
335.5613, 270.6514
336.0434, 223.6084
336.5255, 180.4102
337.0077, 163.0259
337.4898, 167.7417
337.9719, 176.7397
338.4540, 176.4233
338.9361, 167.9023
339.4182, 160.9790
339.9004, 155.5283
340.3825, 152.2764
340.8646, 152.0269
341.3467, 153.5117
341.8288, 156.0171
342.3109, 159.8057
342.7931, 161.8379
343.2752, 156.3716
343.7573, 142.1543
344.2394, 128.9805
344.7215, 117.1577
345.2036, 109.0098
345.6858, 108.6719
346.1679, 115.9214
346.6500, 120.2515
347.1321, 114.1230
347.6142, 100.0664
348.0963, 82.50049
348.5785, 58.69434
349.0606, 41.28711
349.5427, 48.66309
350.0248, 71.55762
350.5069, 82.06641
350.9890, 61.16162
351.4712, 37.63037
351.9533, 39.82812
352.4354, 62.02051
352.9175, 74.80322
353.3996, 62.99512
353.8817, 35.53418
354.3639, 14.24902
354.8460, 3.159668
355.3281, 11.87256
355.8102, 2.577148
356.2923, 12.36035
356.7744, 17.92920
357.2566, 11.09766
357.7387, 0.7333980
358.2208, 9.046875
358.7029, 12.29883
359.1850, 21.33643
359.6671, 46.66309
360.1493, 66.54541
360.6314, 64.43408
361.1135, 49.48340
361.5956, 43.59229
362.0777, 60.83838
362.5598, 92.73926
363.0420, 107.5112
363.5241, 89.88721
364.0062, 79.27686
364.4883, 84.69580
364.9704, 95.51221
365.4525, 101.8450
365.9347, 101.9878
366.4168, 103.1008
366.8989, 117.9534
367.3810, 148.6189
367.8631, 159.9148
368.3452, 136.6553
368.8274, 109.7048
369.3095, 94.04370
369.7916, 87.06445
370.2737, 81.85205
370.7558, 74.49951
371.2379, 67.59790
371.7201, 67.30273
372.2022, 74.62720
372.6843, 78.42261
373.1664, 70.66333
373.6485, 58.65454
374.1306, 54.68506
374.6128, 62.07129
375.0949, 66.81836
375.5770, 57.68921
376.0591, 41.42822
376.5412, 31.84888
377.0233, 32.10742
377.5055, 36.48975
377.9876, 40.53931
378.4697, 44.27490
378.9518, 42.97339
379.4339, 30.15869
379.9160, 18.03955
380.3982, 16.39990
380.8803, 21.77075
381.3624, 23.07349
381.8445, 13.77344
382.3266, 1.766602
382.8087, 10.37524
383.2909, 6.391846
383.7730, 2.273438
384.2551, 8.096924
384.7372, 14.37988
385.2193, 2.276367
385.7014, 26.92920
386.1836, 53.25708
386.6657, 51.94824
387.1478, 20.58423
387.6299, 8.647705
388.1120, 30.79272
388.5941, 56.63818
389.0763, 82.98389
389.5584, 104.8247
390.0405, 112.8401
390.5226, 100.2407
391.0047, 80.85522
391.4868, 77.15942
391.9690, 90.65625
392.4511, 106.0684
392.9332, 122.7229
393.4153, 136.6565
393.8974, 142.0142
394.3795, 138.9792
394.8617, 139.6116
395.3438, 156.8394
395.8259, 179.1018
396.3080, 186.2861
396.7901, 176.1816
397.2722, 158.7441
397.7544, 136.4937
398.2365, 112.7334
398.7186, 102.0229
399.2007, 120.6328
399.6828, 133.9111
400.1649, 123.7478
400.6471, 100.5444
401.1292, 80.61279
401.6113, 69.22461
402.0934, 64.05469
402.5755, 61.86987
403.0576, 63.50293
403.5398, 65.86816
404.0219, 73.14380
404.5040, 77.23755
404.9861, 71.84668
405.4682, 59.71069
405.9503, 48.57422
406.4325, 43.89917
406.9146, 42.57446
407.3967, 32.34741
407.8788, 5.461914
408.3609, 14.20215
408.8430, 21.20557
409.3252, 20.53882
409.8073, 13.05640
410.2894, 0.2265630
410.7715, 11.85693
411.2536, 11.76489
411.7357, 3.371826
412.2179, 6.703613
412.7000, 28.68994
413.1821, 47.28271
413.6642, 38.30640
414.1463, 16.60791
414.6284, 12.44434
415.1106, 44.21655
415.5927, 78.73364
416.0748, 90.44531
416.5569, 85.50610
417.0390, 82.55103
417.5211, 87.96094
418.0033, 93.49805
418.4854, 86.67383
418.9675, 62.88477
419.4496, 45.00391
419.9317, 21.42285
420.4138, 10.77588
420.8960, 37.33105
421.3781, 93.38477
421.8602, 148.2002
422.3423, 182.2104
422.8244, 196.8853
423.3065, 198.9521
423.7887, 169.9712
424.2708, 158.8169
424.7529, 184.8022
425.2350, 216.8857
425.7171, 229.0815
426.1992, 221.3784
426.6814, 214.5391
427.1635, 230.9844
427.6456, 267.7485
428.1277, 291.5698
428.6098, 295.3062
429.0919, 300.0923
429.5741, 317.2534
430.0562, 341.4062
430.5383, 365.4048
431.0204, 386.5767
431.5025, 411.9180
431.9846, 454.4575
432.4668, 505.9590
432.9489, 536.5205
433.4310, 535.5708
433.9131, 526.0015
434.3952, 534.4873
434.8773, 562.6011
435.3595, 584.4253
435.8416, 589.1929
436.3237, 595.7954
436.8058, 623.8364
437.2879, 664.4976
437.7701, 691.0591
438.2522, 688.1909
438.7343, 668.4229
439.2164, 665.3091
439.6985, 692.2480
440.1806, 714.5933
440.6628, 729.3896
441.1449, 740.5776
441.6270, 749.0010
442.1091, 755.8262
442.5912, 765.3169
443.0733, 783.3193
443.5555, 807.5400
444.0376, 824.8818
444.5197, 832.4561
445.0018, 836.7446
445.4839, 839.6660
445.9660, 843.6074
446.4482, 848.8701
446.9303, 855.0986
447.4124, 862.8896
447.8945, 873.0635
448.3766, 884.9414
448.8587, 894.6504
449.3409, 901.1738
449.8230, 916.3735
450.3051, 954.2793
450.7872, 1011.032
451.2693, 1048.063
451.7514, 1042.871
452.2336, 1045.658
452.7157, 1079.664
453.1978, 1129.040
453.6799, 1171.950
454.1620, 1201.951
454.6441, 1225.321
455.1263, 1248.386
455.6084, 1268.741
456.0905, 1302.209
456.5726, 1366.408
457.0547, 1425.699
457.5368, 1471.242
458.0190, 1504.207
458.5011, 1526.033
458.9832, 1536.117
459.4653, 1541.292
459.9474, 1551.093
460.4295, 1565.540
460.9117, 1581.780
461.3938, 1603.979
461.8759, 1621.139
462.3580, 1626.478
462.8401, 1619.986
463.3222, 1598.236
463.8044, 1544.420
464.2865, 1487.288
464.7686, 1459.636
465.2507, 1453.035
465.7328, 1431.173
466.2149, 1376.492
466.6971, 1303.824
467.1792, 1242.183
467.6613, 1194.952
468.1434, 1153.758
468.6255, 1122.647
469.1076, 1093.226
469.5898, 1056.586
470.0719, 1017.004
470.5540, 988.1372
471.0361, 979.7007
471.5182, 984.2993
472.0003, 979.6094
472.4825, 961.6606
472.9646, 945.2729
473.4467, 931.9028
473.9288, 922.5005
474.4109, 918.8096
474.8930, 920.5068
475.3752, 924.2900
475.8573, 929.7075
476.3394, 935.4458
476.8215, 936.0757
477.3036, 931.4004
477.7857, 937.4268
478.2679, 967.1777
478.7500, 1008.565
479.2321, 1028.990
479.7142, 1012.100
480.1963, 1017.229
480.6784, 1080.358
481.1606, 1153.749
481.6427, 1193.649
482.1248, 1198.603
482.6069, 1189.965
483.0890, 1181.898
483.5711, 1175.764
484.0533, 1179.149
484.5354, 1195.472
485.0175, 1216.339
485.4996, 1254.801
485.9817, 1286.895
486.4638, 1285.424
486.9460, 1251.908
487.4281, 1221.434
487.9102, 1227.356
488.3923, 1257.116
488.8744, 1269.483
489.3565, 1260.126
489.8387, 1257.686
490.3208, 1285.626
490.8029, 1324.653
491.2850, 1333.211
491.7671, 1299.422
492.2492, 1270.170
492.7314, 1259.870
493.2135, 1263.242
493.6956, 1278.417
494.1777, 1303.040
494.6598, 1329.173
495.1419, 1352.059
495.6241, 1370.331
496.1062, 1374.614
496.5883, 1337.756
497.0704, 1325.859
497.5525, 1360.998
498.0346, 1411.566
498.5168, 1450.573
498.9989, 1475.866
499.4810, 1504.235
499.9631, 1552.453
500.4452, 1614.780
500.9273, 1667.596
501.4095, 1708.262
501.8916, 1751.074
502.3737, 1805.463
502.8558, 1863.923
503.3379, 1914.797
503.8200, 1957.103
504.3022, 1994.298
504.7843, 2015.514
505.2664, 2039.133
505.7485, 2093.167
506.2306, 2175.196
506.7127, 2251.956
507.1949, 2299.603
507.6770, 2327.272
508.1591, 2374.976
508.6412, 2469.042
509.1233, 2544.897
509.6054, 2596.259
510.0876, 2631.486
510.5697, 2649.051
511.0518, 2654.258
511.5339, 2662.903
512.0161, 2685.777
512.4982, 2720.525
512.9803, 2765.488
513.4624, 2824.060
513.9445, 2870.275
514.4266, 2891.146
514.9088, 2898.088
515.3909, 2906.759
515.8730, 2917.603
516.3551, 2924.800
516.8372, 2920.865
517.3193, 2916.739
517.8015, 2929.871
518.2836, 2953.978
518.7657, 2961.167
519.2478, 2935.240
519.7299, 2889.866
520.2120, 2858.258
520.6942, 2853.254
521.1763, 2837.187
521.6584, 2797.235
522.1405, 2759.564
522.6226, 2749.198
523.1047, 2752.602
523.5869, 2732.871
524.0690, 2664.456
524.5511, 2576.829
525.0332, 2520.490
525.5153, 2495.206
525.9974, 2464.073
526.4796, 2418.235
526.9617, 2364.056
527.4438, 2306.218
527.9259, 2245.090
528.4080, 2185.583
528.8901, 2133.971
529.3723, 2079.528
529.8544, 2004.708
530.3365, 1923.084
530.8186, 1868.586
531.3007, 1851.823
531.7828, 1842.210
532.2650, 1794.289
532.7471, 1698.231
533.2292, 1623.632
533.7113, 1587.414
534.1934, 1551.905
534.6755, 1504.713
535.1577, 1451.322
535.6398, 1399.963
536.1219, 1353.325
536.6040, 1309.055
537.0861, 1265.784
537.5682, 1223.177
538.0504, 1179.683
538.5325, 1134.044
539.0146, 1089.771
539.4967, 1050.444
539.9788, 1015.936
540.4609, 983.6738
540.9431, 954.7070
541.4252, 925.1392
541.9073, 894.6733
542.3894, 862.4282
542.8715, 825.5640
543.3536, 785.3438
543.8358, 748.1025
544.3179, 719.2153
544.8000, 697.3872
545.2821, 676.4858
545.7642, 656.3613
546.2463, 632.0530
546.7285, 597.5442
547.2106, 563.9587
547.6926, 540.4365
548.1747, 526.6345
548.6569, 514.8003
549.1390, 502.8586
549.6211, 489.5215
550.1032, 475.2827
550.5853, 460.0671
551.0674, 439.3677
551.5496, 409.2185
552.0317, 378.2114
552.5138, 361.0947
552.9959, 362.0942
553.4780, 366.4197
553.9601, 383.3708
554.4423, 391.4551
554.9244, 377.2812
555.4065, 350.7192
555.8886, 327.1011
556.3707, 311.7646
556.8528, 298.9451
557.3350, 278.5500
557.8171, 252.9739
558.2992, 245.2034
558.7813, 265.4329
559.2634, 279.6404
559.7455, 258.7983
560.2277, 212.7209
560.7098, 181.2427
561.1919, 171.3225
561.6740, 170.6143
562.1561, 184.6082
562.6382, 200.4814
563.1204, 205.4585
563.6025, 197.9553
564.0846, 178.5706
564.5667, 144.3123
565.0488, 104.0195
565.5309, 95.96021
566.0131, 139.1135
566.4952, 166.5137
566.9773, 156.2070
567.4594, 134.6267
567.9415, 112.2698
568.4236, 91.80322
568.9058, 80.33789
569.3879, 86.92969
569.8700, 98.29468
570.3521, 101.0820
570.8342, 97.24731
571.3163, 92.48999
571.7985, 88.26123
572.2806, 86.83545
572.7627, 92.56030
573.2448, 107.4324
573.7269, 110.2361
574.2090, 93.05371
574.6912, 73.84131
575.1733, 49.01147
575.6554, 28.69019
576.1375, 27.68311
576.6196, 47.55664
577.1017, 68.83569
577.5839, 74.43750
578.0660, 67.31738
578.5481, 53.96313
579.0302, 32.82031
579.5123, 21.42798
579.9944, 32.95239
580.4766, 54.42163
580.9587, 59.51245
581.4408, 44.49902
581.9229, 32.49146
582.4050, 28.54541
582.8871, 26.90283
583.3693, 24.88232
583.8514, 22.01782
584.3335, 18.34937
584.8156, 13.96289
585.2977, 7.748291
585.7798, 5.168213
586.2620, 26.42188
586.7441, 33.12231
587.2262, 15.17822
587.7083, 2.431641
588.1904, 5.465820
588.6725, 1.156250
589.1547, 10.72046
589.6368, 23.82178
590.1189, 36.04102
590.6010, 49.66577
591.0831, 58.87329
591.5652, 50.58008
592.0474, 27.73999
592.5295, 11.28442
593.0116, 15.68115
593.4937, 34.64575
593.9758, 48.66016
594.4579, 53.94678
594.9401, 63.10303
595.4222, 91.56543
595.9043, 110.6338
596.3864, 95.03516
596.8685, 58.60327
597.3506, 38.20215
597.8328, 54.74243
598.3149, 77.21606
598.7970, 74.25684
599.2791, 55.67773
599.7612, 48.28711
600.2433, 57.26562
600.7255, 67.83252
601.2076, 66.55713
601.6897, 55.75537
602.1718, 54.55957
602.6539, 80.44922
603.1360, 91.78418
603.6182, 69.36230
604.1003, 44.20581
604.5824, 42.69458
605.0645, 61.50562
605.5466, 77.80957
606.0287, 78.83716
606.5109, 69.93286
606.9930, 53.31372
607.4751, 31.34204
607.9572, 26.23096
608.4393, 47.36426
608.9214, 71.21216
609.4036, 72.84619
609.8857, 52.13330
610.3678, 39.71777
610.8499, 46.01123
611.3320, 46.65991
611.8141, 29.67090
612.2963, 8.327881
612.7784, 2.962158
613.2605, 3.498535
613.7426, 3.165283
614.2247, 9.756836
614.7068, 20.49268
615.1890, 31.24243
615.6711, 42.51318
616.1532, 39.10718
616.6353, 7.090332
617.1174, 23.76855
617.5995, 12.37524
618.0817, 42.36548
618.5638, 71.26440
619.0459, 49.52393
619.5280, 27.15796
620.0101, 20.68213
620.4922, 25.79150
620.9744, 41.26318
621.4565, 63.80371
621.9386, 79.98413
622.4207, 74.27148
622.9028, 54.02197
623.3849, 48.16602
623.8671, 58.11426
624.3492, 75.29272
624.8313, 102.5862
625.3134, 129.8740
625.7955, 144.6660
626.2776, 147.7739
626.7598, 145.9189
627.2419, 132.4846
627.7240, 122.3901
628.2061, 127.6934
628.6882, 139.3137
629.1703, 143.5405
629.6525, 137.4824
630.1346, 127.2617
630.6167, 115.5110
631.0988, 105.3040
631.5809, 117.7273
632.0630, 160.8816
632.5452, 195.3188
633.0273, 208.6372
633.5094, 208.5894
633.9915, 198.3242
634.4736, 178.8076
634.9557, 172.7646
635.4379, 198.9988
635.9200, 224.8066
636.4021, 229.5544
636.8842, 222.6819
637.3663, 217.9043
637.8484, 219.2515
638.3306, 225.8425
638.8127, 237.6855
639.2948, 253.8469
639.7769, 267.6731
640.2590, 277.7036
640.7411, 291.4263
641.2233, 318.0266
641.7054, 342.1504
642.1875, 341.6836
642.6696, 319.5542
643.1517, 313.6223
643.6339, 349.0010
644.1160, 382.1274
644.5981, 386.1604
645.0802, 377.0530
645.5623, 376.8225
646.0444, 389.2251
646.5266, 404.5520
647.0087, 413.6768
647.4908, 418.3877
647.9729, 428.8667
648.4550, 446.3496
648.9371, 464.3396
649.4193, 484.1309
649.9014, 503.7148
650.3835, 520.0718
650.8656, 532.1887
651.3477, 541.3987
651.8298, 547.8596
652.3120, 553.0388
652.7941, 560.3584
653.2762, 563.7183
653.7583, 550.9314
654.2404, 526.4519
654.7225, 515.0884
655.2047, 537.7886
655.6868, 580.7053
656.1689, 605.6843
656.6510, 612.9998
657.1331, 611.9199
657.6152, 597.7810
658.0974, 582.0457
658.5795, 576.9612
659.0616, 580.8997
659.5437, 584.1582
660.0258, 580.4719
660.5079, 579.6157
660.9901, 594.5996
661.4722, 612.1472
661.9543, 612.7971
662.4364, 597.0168
662.9185, 582.0269
663.4006, 580.6265
663.8828, 587.6372
664.3649, 589.4275
664.8470, 586.1211
665.3291, 592.6846
665.8112, 616.3252
666.2933, 633.0186
666.7755, 622.3450
667.2576, 591.8965
667.7397, 571.5237
668.2218, 565.6758
668.7039, 560.0659
669.1860, 548.9233
669.6682, 541.5308
670.1503, 549.4373
670.6324, 566.3774
671.1145, 574.7861
671.5966, 565.6079
672.0787, 550.1626
672.5609, 544.5085
673.0430, 546.9336
673.5251, 546.9153
674.0072, 543.7983
674.4893, 531.7168
674.9714, 501.7810
675.4536, 467.0688
675.9357, 458.0242
676.4178, 489.3252
676.8999, 506.6045
677.3820, 500.9021
677.8641, 488.3594
678.3463, 473.9626
678.8284, 460.0835
679.3105, 448.6389
679.7926, 440.2815
680.2747, 436.9175
680.7568, 445.9600
681.2390, 459.9819
681.7211, 460.1885
682.2032, 446.3286
682.6853, 427.5818
683.1674, 406.4041
683.6495, 387.0806
684.1317, 376.7725
684.6138, 377.5693
685.0959, 376.4541
685.5780, 377.2886
686.0601, 371.4575
686.5422, 350.9407
687.0244, 326.3247
687.5065, 307.9189
687.9886, 297.0977
688.4707, 290.3594
688.9528, 287.2559
689.4349, 286.0300
689.9171, 285.3862
690.3992, 284.9451
690.8813, 284.1313
691.3634, 282.7273
691.8455, 278.9626
692.3276, 270.3774
692.8098, 257.9094
693.2919, 249.8394
693.7740, 246.2419
694.2561, 247.0273
694.7382, 258.8540
695.2203, 269.0417
695.7025, 263.7456
696.1846, 248.6694
696.6667, 246.2136
697.1488, 274.5571
697.6309, 297.6099
698.1130, 288.2324
698.5952, 267.1646
699.0773, 259.5122
699.5594, 267.0171
700.0415, 281.1108
700.5236, 297.6846
701.0057, 311.6782
701.4879, 310.3052
701.9700, 292.6377
702.4521, 278.5845
702.9342, 268.3052
703.4163, 266.3491
703.8984, 282.1260
704.3806, 305.4321
704.8627, 309.8530
705.3448, 285.1016
705.8269, 272.3594
706.3090, 289.4580
706.7911, 307.8496
707.2733, 307.1025
707.7554, 296.9331
708.2375, 296.5308
708.7196, 311.3042
709.2017, 327.3950
709.6838, 329.5825
710.1660, 323.6250
710.6481, 325.1162
711.1302, 333.7417
711.6123, 339.0005
712.0944, 335.7905
712.5765, 334.5210
713.0587, 351.8481
713.5408, 389.9458
714.0229, 399.5903
714.5050, 340.7598
714.9871, 308.3750
715.4692, 341.0933
715.9514, 386.5664
716.4335, 399.4453
716.9156, 383.9858
717.3977, 376.7080
717.8798, 399.2437
718.3619, 424.7935
718.8441, 431.4341
719.3262, 426.8384
719.8083, 421.9634
720.2904, 419.2988
720.7725, 420.3481
721.2546, 426.2993
721.7368, 435.8965
722.2189, 447.1606
722.7010, 460.9790
723.1831, 470.1245
723.6652, 472.9004
724.1473, 473.1973
724.6295, 472.0522
725.1116, 470.2798
725.5937, 470.1372
726.0758, 473.1973
726.5579, 472.3545
727.0400, 455.7939
727.5222, 445.6450
728.0043, 460.4268
728.4864, 488.5366
728.9685, 511.7456
729.4506, 524.7974
729.9327, 532.4976
730.4149, 536.7129
730.8970, 539.5854
731.3791, 547.8252
731.8612, 560.4429
732.3433, 567.9736
732.8254, 567.5950
733.3076, 561.0898
733.7897, 547.4072
734.2718, 528.4070
734.7539, 529.0144
735.2360, 566.6782
735.7181, 594.8076
736.2003, 603.0562
736.6824, 605.4641
737.1645, 609.9995
737.6466, 615.7744
738.1287, 619.2720
738.6108, 619.8408
739.0930, 617.2947
739.5751, 607.3088
740.0572, 596.9600
740.5393, 595.7983
741.0214, 602.2095
741.5035, 608.8655
741.9857, 612.3352
742.4678, 613.5825
742.9499, 614.5574
743.4320, 614.9761
743.9141, 609.0845
744.3962, 594.7297
744.8784, 585.7566
745.3605, 588.6421
745.8426, 597.6948
746.3247, 606.5474
746.8068, 615.7380
747.2889, 619.0464
747.7711, 612.4949
748.2532, 605.5610
748.7353, 599.9688
749.2174, 595.2554
749.6995, 590.4541
750.1816, 585.9463
750.6638, 582.8682
751.1459, 579.2322
751.6280, 582.0940
752.1101, 610.3008
752.5922, 645.2981
753.0743, 646.6348
753.5565, 614.1724
754.0386, 580.1187
754.5207, 563.1719
755.0028, 557.3738
755.4849, 550.8574
755.9670, 542.8142
756.4492, 544.0000
756.9313, 561.6304
757.4134, 569.9712
757.8955, 549.7532
758.3776, 520.1328
758.8597, 513.0452
759.3419, 531.1543
759.8240, 540.1113
760.3061, 527.2646
760.7882, 516.7012
761.2703, 524.4722
761.7524, 534.5000
762.2346, 524.5078
762.7167, 497.1570
763.1988, 478.7219
763.6809, 489.8401
764.1630, 506.2166
764.6451, 498.5786
765.1273, 475.0513
765.6094, 450.5706
766.0915, 428.3237
766.5736, 419.6799
767.0557, 433.4673
767.5378, 459.2764
768.0200, 475.4941
768.5021, 481.7290
768.9842, 474.2947
769.4663, 443.0110
769.9484, 424.5938
770.4305, 440.5593
770.9127, 470.9932
771.3948, 490.4844
771.8769, 498.6619
772.3590, 497.7317
772.8411, 482.8491
773.3232, 468.8574
773.8054, 457.9941
774.2875, 450.5994
774.7696, 447.1890
775.2517, 447.1443
775.7338, 451.7808
776.2159, 466.7563
776.6981, 481.3953
777.1802, 476.8645
777.6623, 462.0640
778.1444, 460.7195
778.6265, 473.5588
779.1086, 486.6401
779.5908, 494.0764
780.0729, 494.9763
780.5550, 480.0222
781.0371, 444.0479
781.5192, 438.9314
782.0013, 480.6304
782.4835, 509.5667
782.9656, 501.9985
783.4477, 473.8435
783.9298, 436.3208
784.4119, 388.7388
784.8940, 368.1655
785.3762, 402.5459
785.8583, 427.9583
786.3404, 424.6785
786.8225, 408.8005
787.3046, 389.2893
787.7867, 370.0422
788.2689, 356.6860
788.7510, 352.0083
789.2331, 352.1514
789.7152, 357.1926
790.1973, 363.0803
790.6794, 362.1406
791.1616, 355.4346
791.6437, 350.0857
792.1258, 349.0693
792.6079, 348.9795
793.0900, 346.1443
793.5721, 340.2480
794.0543, 325.1733
794.5364, 297.6899
795.0185, 282.3806
795.5006, 290.9014
795.9827, 304.1794
796.4648, 304.9736
796.9470, 293.7896
797.4291, 276.4294
797.9112, 236.1006
798.3933, 214.1201
798.8754, 229.0652
799.3575, 246.1812
799.8397, 244.7751
800.3218, 231.4070
800.8039, 219.9675
801.2860, 213.7419
801.7681, 208.9973
802.2502, 202.3853
802.7324, 197.7571
803.2145, 201.8506
803.6966, 209.5496
804.1787, 212.3799
804.6608, 207.6135
805.1429, 194.1956
805.6251, 168.1936
806.1072, 137.0986
806.5893, 116.2549
807.0714, 105.0718
807.5535, 102.0195
808.0356, 107.4302
808.5178, 109.7100
808.9999, 99.16187
809.4820, 84.43506
809.9641, 90.34644
810.4462, 128.3296
810.9283, 144.1968
811.4105, 125.6887
811.8926, 105.0371
812.3747, 95.20190
812.8568, 89.04688
813.3389, 77.26709
813.8210, 59.88379
814.3032, 48.00928
814.7853, 48.71265
815.2674, 48.31641
815.7495, 41.48779
816.2316, 32.10010
816.7137, 21.34204
817.1959, 11.36499
817.6780, 7.515137
818.1601, 13.45557
818.6422, 19.09595
819.1243, 13.20288
819.6064, 2.912354
820.0886, 0.1804200
820.5707, 2.704102
821.0528, 6.238037
821.5349, 8.144287
822.0170, 4.228271
822.4991, 12.85669
822.9813, 38.27173
823.4634, 50.44189
823.9455, 48.91064
824.4276, 46.62427
824.9097, 46.62476
825.3918, 43.99951
825.8740, 32.40552
826.3561, 17.34424
826.8382, 18.60669
827.3203, 49.10229
827.8024, 66.07983
828.2845, 61.97900
828.7667, 53.41577
829.2488, 38.08081
829.7309, 26.42114
830.2130, 35.39697
830.6951, 65.62256
831.1772, 86.37622
831.6594, 88.26074
832.1415, 81.80493
832.6236, 61.07275
833.1057, 41.93457
833.5878, 44.78125
834.0699, 64.24463
834.5521, 78.84668
835.0342, 79.23828
835.5163, 71.41455
835.9984, 53.43799
836.4805, 34.88745
836.9626, 36.03345
837.4448, 51.67993
837.9269, 60.35645
838.4090, 54.77417
838.8911, 40.91919
839.3732, 22.78809
839.8553, 3.337158
840.3375, 5.671387
840.8196, 4.060791
841.3017, 2.9297000E-02
841.7838, 6.859375
842.2659, 7.108643
842.7480, 7.378418
843.2302, 30.41309
843.7123, 46.41675
844.1944, 53.57397
844.6765, 59.56714
845.1586, 61.51025
845.6407, 66.59326
846.1229, 80.83447
846.6050, 96.85156
847.0871, 105.8564
847.5692, 108.6594
848.0513, 116.5996
848.5334, 136.1262
849.0156, 154.3408
849.4977, 167.7075
849.9798, 178.5127
850.4619, 185.6023
850.9440, 192.3176
851.4261, 205.3657
851.9083, 227.0847
852.3904, 251.1436
852.8725, 277.6191
853.3546, 300.9871
853.8367, 312.8408
854.3188, 317.9771
854.8010, 325.7400
855.2831, 338.2402
855.7652, 352.9553
856.2473, 367.5962
856.7294, 384.6309
857.2115, 410.1304
857.6937, 442.0286
858.1758, 471.3745
858.6579, 497.3372
859.1400, 522.3552
859.6221, 547.5518
860.1042, 572.6741
860.5864, 596.3896
861.0685, 618.9912
861.5506, 652.6836
862.0327, 701.0447
862.5148, 746.2666
862.9969, 782.9131
863.4791, 819.2998
863.9612, 861.9075
864.4433, 909.6001
864.9254, 958.1877
865.4075, 1013.711
865.8896, 1057.681
866.3718, 1069.427
866.8539, 1095.043
867.3360, 1164.205
867.8181, 1246.941
868.3002, 1304.427
868.7823, 1336.949
869.2645, 1385.435
869.7466, 1483.756
870.2287, 1569.013
870.7108, 1597.539
871.1929, 1618.865
871.6750, 1680.887
872.1572, 1771.823
872.6393, 1853.538
873.1214, 1912.909
873.6035, 1977.013
874.0856, 2076.893
874.5677, 2182.647
875.0499, 2270.196
875.5320, 2335.151
876.0141, 2360.086
876.4962, 2349.683
876.9783, 2344.283
877.4604, 2371.766
877.9426, 2415.695
878.4247, 2454.823
878.9068, 2487.718
879.3889, 2508.442
879.8710, 2516.951
880.3531, 2514.159
880.8353, 2498.993
881.3174, 2486.888
881.7995, 2499.847
882.2816, 2530.901
882.7637, 2531.285
883.2458, 2495.694
883.7280, 2472.722
884.2101, 2474.859
884.6922, 2475.312
885.1743, 2456.844
885.6564, 2423.783
886.1385, 2383.905
886.6207, 2335.417
887.1028, 2290.335
887.5849, 2244.809
888.0670, 2207.570
888.5491, 2189.341
889.0313, 2171.443
889.5134, 2135.545
889.9955, 2086.780
890.4776, 2047.275
890.9597, 2026.771
891.4418, 1999.139
891.9240, 1948.146
892.4061, 1901.225
892.8882, 1880.000
893.3703, 1869.263
893.8524, 1845.953
894.3345, 1808.137
894.8167, 1775.280
895.2988, 1758.670
895.7809, 1744.008
896.2630, 1723.796
896.7451, 1703.301
897.2272, 1685.928
897.7094, 1673.384
898.1915, 1670.264
898.6736, 1677.989
899.1557, 1679.151
899.6378, 1653.956
900.1199, 1619.512
900.6021, 1592.839
901.0842, 1575.375
901.5663, 1571.506
902.0484, 1579.214
902.5305, 1586.003
903.0126, 1583.681
903.4948, 1579.107
903.9769, 1585.824
904.4590, 1597.912
904.9411, 1592.579
905.4232, 1572.150
905.9053, 1562.566
906.3875, 1572.180
906.8696, 1584.291
907.3517, 1581.920
907.8338, 1571.281
908.3159, 1574.402
908.7980, 1591.418
909.2802, 1602.141
909.7623, 1604.188
910.2444, 1601.727
910.7265, 1595.926
911.2086, 1589.179
911.6907, 1584.575
912.1729, 1582.278
912.6550, 1584.005
913.1371, 1590.181
913.6192, 1599.763
914.1013, 1617.798
914.5834, 1629.024
915.0656, 1620.081
915.5477, 1599.565
916.0298, 1586.406
916.5119, 1580.697
916.9940, 1582.154
917.4761, 1599.769
917.9583, 1611.885
918.4404, 1607.690
918.9225, 1601.227
919.4046, 1605.123
919.8867, 1616.257
920.3688, 1623.199
920.8510, 1624.299
921.3331, 1620.769
921.8152, 1607.553
922.2973, 1596.039
922.7794, 1592.315
923.2615, 1593.230
923.7437, 1593.050
924.2258, 1592.261
924.7079, 1600.575
925.1900, 1637.121
925.6721, 1658.712
926.1542, 1631.465
926.6364, 1598.315
927.1185, 1591.672
927.6006, 1604.070
928.0827, 1622.360
928.5648, 1642.104
929.0469, 1652.575
929.5291, 1647.831
930.0112, 1634.320
930.4933, 1606.814
930.9754, 1579.300
931.4575, 1571.920
931.9396, 1580.379
932.4218, 1590.945
932.9039, 1598.683
933.3860, 1596.462
933.8681, 1566.798
934.3502, 1533.286
934.8323, 1534.438
935.3145, 1552.114
935.7966, 1546.053
936.2787, 1515.311
936.7608, 1486.845
937.2429, 1474.589
937.7250, 1469.946
938.2072, 1470.723
938.6893, 1470.604
939.1714, 1448.958
939.6535, 1412.988
940.1356, 1389.585
940.6177, 1383.399
941.0999, 1381.301
941.5820, 1375.112
942.0641, 1366.019
942.5462, 1358.484
943.0283, 1350.641
943.5104, 1327.312
943.9926, 1288.710
944.4747, 1251.486
944.9568, 1220.643
945.4389, 1197.061
945.9210, 1182.694
946.4031, 1173.625
946.8853, 1157.178
947.3674, 1133.310
947.8495, 1119.046
948.3316, 1116.812
948.8137, 1108.015
949.2958, 1084.665
949.7780, 1058.642
950.2601, 1042.733
950.7422, 1030.936
951.2243, 1000.752
951.7064, 947.3969
952.1885, 909.6106
952.6707, 893.8390
953.1528, 885.5251
953.6349, 881.6372
954.1170, 873.4846
954.5991, 848.0206
955.0812, 806.5051
955.5634, 771.4536
956.0455, 745.6382
956.5276, 716.9960
957.0097, 680.4878
957.4918, 648.2687
957.9739, 629.8357
958.4561, 616.4905
958.9382, 593.6890
959.4203, 561.0420
959.9024, 529.8958
960.3845, 498.4229
960.8666, 468.1522
961.3488, 438.3593
961.8309, 412.1786
962.3130, 395.5869
962.7951, 381.6289
963.2772, 353.5253
963.7593, 305.2195
964.2415, 275.1815
964.7236, 284.9081
965.2057, 281.9198
965.6878, 241.1171
966.1699, 200.5532
966.6520, 186.8763
967.1342, 190.6992
967.6163, 192.7939
968.0984, 195.9012
968.5805, 184.0092
969.0626, 140.3593
969.5447, 103.3260
970.0269, 81.62488
970.5090, 70.46790
970.9911, 74.44226
971.4732, 84.97168
971.9553, 78.02820
972.4374, 43.12109
972.9196, 20.44519
973.4017, 23.68445
973.8838, 29.34595
974.3659, 31.35938
974.8480, 30.42261
975.3301, 26.52759
975.8123, 20.63440
976.2944, 15.51270
976.7765, 12.74060
977.2586, 6.516724
977.7407, 11.94165
978.2228, 24.91309
978.7050, 18.45972
979.1871, 7.456299
979.6692, 6.774170
980.1513, 15.35364
980.6334, 25.83704
981.1155, 40.30530
981.5977, 45.05432
982.0798, 24.87793
982.5619, 7.010376
983.0440, 6.452026
983.5261, 14.65906
984.0082, 25.93457
984.4904, 36.80164
984.9725, 38.78296
985.4546, 27.29736
985.9367, 14.27136
986.4188, 2.994507
986.9009, 12.74573
987.3831, 0.2434080
987.8652, 18.81653
988.3473, 22.67834
988.8294, 12.36426
989.3115, 0.4097900
989.7936, 15.28516
990.2758, 22.95178
990.7579, 14.24524
991.2400, 2.875610
991.7221, 3.573975
992.2042, 6.776245
992.6863, 9.044312
993.1685, 10.73987
993.6506, 12.12610
994.1327, 14.75818
994.6148, 12.75122
995.0969, 4.432739
995.5790, 18.65808
996.0612, 16.32214
996.5433, 4.481445
997.0254, 11.99780
997.5075, 29.03613
997.9896, 35.38269
998.4717, 24.06677
998.9539, 11.26123
999.4360, 2.239258
999.9181, 3.414795
1000.400, 1.402954
1000.882, 0.9273680
1001.364, 9.277222
1001.847, 28.80249
1002.329, 38.87695
1002.811, 30.48779
1003.293, 20.13367
1003.775, 11.86707
1004.257, 8.250366
1004.739, 16.66968
1005.221, 27.18201
1005.703, 27.13818
1006.186, 16.93848
1006.668, 2.940430
1007.150, 17.39014
1007.632, 25.11536
1008.114, 1.878418
1008.596, 29.65222
1009.078, 36.58154
1009.560, 30.89270
1010.043, 18.22729
1010.525, 3.773071
1011.007, 1.394897
1011.489, 20.30884
1011.971, 32.96289
1012.453, 17.86829
1012.935, 4.281494
1013.417, 11.45374
1013.899, 28.56104
1014.382, 49.50024
1014.864, 68.05566
1015.346, 69.24658
1015.828, 45.50854
1016.310, 19.90271
1016.792, 6.586060
1017.274, 23.34570
1017.756, 22.26257
1018.239, 10.46082
1018.721, 9.877075
1019.203, 33.83813
1019.685, 49.93250
1020.167, 54.07166
1020.649, 57.22021
1021.131, 69.83777
1021.613, 73.94861
1022.095, 50.65894
1022.578, 24.14136
1023.060, 18.00073
1023.542, 26.99121
1024.024, 33.38538
1024.506, 33.08826
1024.988, 35.84106
1025.470, 55.36121
1025.952, 63.64648
1026.435, 36.34399
1026.917, 6.422974
1027.399, 2.092041
1027.881, 15.10095
1028.363, 24.78418
1028.845, 27.98840
1029.327, 32.84241
1029.809, 43.13464
1030.292, 51.72156
1030.774, 53.33350
1031.256, 56.28357
1031.738, 71.50659
1032.220, 89.71399
1032.702, 90.81519
1033.184, 71.32922
1033.666, 64.87109
1034.148, 81.83032
1034.630, 101.7042
1035.113, 136.4446
1035.595, 155.6013
1036.077, 128.1598
1036.559, 84.36084
1037.041, 68.11267
1037.523, 80.09229
1038.005, 92.38281
1038.487, 110.3567
1038.970, 118.7170
1039.452, 108.1877
1039.934, 102.1643
1040.416, 117.7450
1040.898, 134.6680
1041.380, 124.5447
1041.862, 90.90125
1042.344, 76.06714
1042.826, 92.87683
1043.309, 102.5999
1043.791, 98.34448
1044.273, 98.21948
1044.755, 110.7273
1045.237, 124.7819
1045.719, 129.8234
1046.201, 127.8937
1046.683, 124.6655
1047.166, 118.6571
1047.648, 117.0233
1048.130, 120.0614
1048.612, 125.0347
1049.094, 131.8252
1049.576, 137.3033
1050.058, 138.0874
1050.540, 137.1356
1051.022, 144.9026
1051.505, 164.1985
1051.987, 161.4991
1052.469, 132.8639
1052.951, 109.5834
1053.433, 97.91077
1053.915, 91.76501
1054.397, 87.01880
1054.879, 84.53113
1055.361, 88.80151
1055.844, 99.34277
1056.326, 104.5387
1056.808, 104.5435
1057.290, 94.41138
1057.772, 72.93860
1058.254, 58.32959
1058.736, 60.82642
1059.218, 69.75806
1059.701, 70.59399
1060.183, 64.95154
1060.665, 54.49426
1061.147, 42.00952
1061.629, 49.16699
1062.111, 74.24573
1062.593, 80.96472
1063.075, 56.08154
1063.557, 30.69690
1064.040, 38.11292
1064.522, 56.69617
1065.004, 41.61780
1065.486, 8.033203
1065.968, 8.478516
1066.450, 9.083496
1066.932, 2.572998
1067.414, 7.906494
1067.896, 22.26489
1068.379, 43.60132
1068.861, 56.34741
1069.343, 31.80371
1069.825, 3.450439
1070.307, 9.521240
1070.789, 1.827881
1071.271, 3.241455
1071.753, 7.033691
1072.236, 12.22729
1072.718, 4.165527
1073.200, 5.382813
1073.682, 9.617188
1074.164, 9.812256
1074.646, 3.334961
1075.128, 4.991455
1075.610, 7.080566
1076.093, 3.775391
1076.575, 1.985596
1077.057, 4.309082
1077.539, 1.000000
1078.021, 17.42212
1078.503, 35.31519
1078.985, 42.79834
1079.467, 49.80469
1079.949, 67.14258
1080.432, 87.81274
1080.914, 99.05835
1081.396, 99.92651
1081.878, 101.9292
1082.360, 111.5703
1082.842, 115.6689
1083.324, 100.2061
1083.806, 93.29492
1084.288, 118.6934
1084.771, 150.4106
1085.253, 155.1033
1085.735, 140.3792
1086.217, 144.5513
1086.699, 180.1262
1087.181, 200.6208
1087.663, 198.3054
1088.145, 196.3767
1088.628, 200.7278
1089.110, 206.2375
1089.592, 205.7512
1090.074, 208.5063
1090.556, 238.2952
1091.038, 296.7761
1091.520, 329.1306
1092.002, 331.3579
1092.484, 331.1506
1092.967, 332.0325
1093.449, 338.1135
1093.931, 352.9126
1094.413, 366.2583
1094.895, 363.6462
1095.377, 351.6833
1095.859, 354.0103
1096.341, 369.4802
1096.823, 393.0808
1097.306, 422.3401
1097.788, 439.3862
1098.270, 439.1252
1098.752, 436.0012
1099.234, 441.3589
1099.716, 450.3535
1100.198, 456.7407
1100.680, 460.8394
1101.163, 461.0176
1101.645, 459.7156
1102.127, 460.5444
1102.609, 465.9397
1103.091, 485.9556
1103.573, 526.5508
1104.055, 556.5051
1104.537, 531.4880
1105.020, 503.7585
1105.502, 530.1506
1105.984, 575.1545
1106.466, 597.3857
1106.948, 600.4075
1107.430, 600.8999
1107.912, 602.9563
1108.394, 605.3147
1108.876, 605.4194
1109.359, 608.8579
1109.841, 617.2844
1110.323, 630.0791
1110.805, 649.9465
1111.287, 671.7939
1111.769, 693.9556
1112.251, 713.2458
1112.733, 714.1101
1113.215, 679.5364
1113.698, 665.6130
1114.180, 689.6562
1114.662, 708.8953
1115.144, 706.7622
1115.626, 708.1064
1116.108, 733.9990
1116.590, 769.8135
1117.072, 788.0850
1117.555, 788.7473
1118.037, 787.9419
1118.519, 784.3970
1119.001, 786.5266
1119.483, 795.4055
1119.965, 809.9897
1120.447, 830.2722
1120.929, 853.8569
1121.411, 880.3728
1121.894, 903.2144
1122.376, 896.3582
1122.858, 868.7520
1123.340, 874.5227
1123.822, 907.3813
1124.304, 916.5959
1124.786, 894.6389
1125.268, 880.6201
1125.750, 896.9646
1126.233, 925.5081
1126.715, 953.8096
1127.197, 975.2065
1127.679, 975.5645
1128.161, 965.3225
1128.643, 958.6221
1129.125, 957.4121
1129.607, 961.9138
1130.090, 971.8774
1130.572, 983.4202
1131.054, 992.2463
1131.536, 1002.189
1132.018, 1020.854
1132.500, 1035.078
1132.982, 1034.696
1133.464, 1027.180
1133.947, 1021.885
1134.429, 1019.246
1134.911, 1013.354
1135.393, 1001.240
1135.875, 987.6287
1136.357, 958.7744
1136.839, 950.5593
1137.321, 982.0132
1137.803, 1017.108
1138.286, 1036.361
1138.768, 1046.990
1139.250, 1059.748
1139.732, 1074.350
1140.214, 1085.161
1140.696, 1092.948
1141.178, 1077.377
1141.660, 1033.667
1142.142, 1013.809
1142.625, 1036.177
1143.107, 1065.098
1143.589, 1072.148
1144.071, 1069.494
1144.553, 1082.624
1145.035, 1102.597
1145.517, 1098.873
1145.999, 1079.798
1146.482, 1067.118
1146.964, 1062.792
1147.446, 1066.940
1147.928, 1078.637
1148.410, 1081.493
1148.892, 1051.740
1149.374, 1023.074
1149.856, 1035.401
1150.339, 1055.771
1150.821, 1051.167
1151.303, 1032.786
1151.785, 1018.295
1152.267, 1009.318
1152.749, 1000.520
1153.231, 990.3191
1153.713, 981.1790
1154.195, 981.2407
1154.677, 971.6853
1155.160, 931.2605
1155.642, 897.5303
1156.124, 902.0574
1156.606, 919.7983
1157.088, 913.8489
1157.570, 886.3313
1158.052, 861.9417
1158.534, 840.1599
1159.017, 824.1174
1159.499, 814.7610
1159.981, 809.7458
1160.463, 808.9360
1160.945, 804.4961
1161.427, 790.2268
1161.909, 771.9712
1162.391, 761.9973
1162.874, 755.0105
1163.356, 727.7632
1163.838, 689.0637
1164.320, 670.1255
1164.802, 669.4597
1165.284, 666.8525
1165.766, 655.3721
1166.248, 638.0413
1166.730, 614.7617
1167.213, 591.9482
1167.695, 578.3210
1168.177, 563.9119
1168.659, 530.5896
1169.141, 497.9526
1169.623, 497.0688
1170.105, 517.7922
1170.587, 525.3325
1171.069, 512.8396
1171.552, 493.0354
1172.034, 457.6023
1172.516, 431.1060
1172.998, 421.5046
1173.480, 415.5056
1173.962, 410.7649
1174.444, 402.7524
1174.926, 387.2166
1175.409, 364.3047
1175.891, 331.8176
1176.373, 288.0627
1176.855, 258.9089
1177.337, 244.4490
1177.819, 239.0413
1178.301, 241.1895
1178.783, 234.4827
1179.266, 210.9341
1179.748, 188.3645
1180.230, 188.9326
1180.712, 195.6824
1181.194, 178.1941
1181.676, 149.5618
1182.158, 130.1479
1182.640, 118.7571
1183.122, 111.6055
1183.604, 106.2551
1184.087, 97.30640
1184.569, 82.06567
1185.051, 68.32471
1185.533, 67.20068
1186.015, 67.07764
1186.497, 45.71826
1186.979, 19.60571
1187.461, 5.750000
1187.944, 24.93555
1188.426, 30.27271
1188.908, 23.38232
1189.390, 13.06860
1189.872, 3.698730
1190.354, 13.92554
1190.836, 18.38965
1191.318, 10.25024
1191.801, 14.82104
1192.283, 33.05493
1192.765, 30.70508
1193.247, 16.53760
1193.729, 0.6110840
1194.211, 18.26562
1194.693, 33.08691
1195.175, 42.73511
1195.657, 38.38843
1196.140, 23.87085
1196.622, 7.971191
1197.104, 5.276123
1197.586, 8.207764
1198.068, 3.714111
1198.550, 13.79370
1199.032, 11.88965
1199.514, 4.787109
1199.996, 9.331055
1200.479, 21.22827
1200.961, 22.69434
1201.443, 17.97095
1201.925, 12.08179
1202.407, 6.031982
1202.889, 4.664795
1203.371, 13.68164
1203.853, 6.665527
1204.336, 27.07666
1204.818, 39.33228
1205.300, 14.97681
1205.782, 6.729492
1206.264, 5.127930
1206.746, 11.51807
1207.228, 37.54028
1207.710, 63.36426
1208.193, 60.35864
1208.675, 39.05103
1209.157, 28.36304
1209.639, 27.10571
1210.121, 23.98120
1210.603, 20.15503
1211.085, 32.91626
1211.567, 69.02124
1212.049, 100.7664
1212.531, 108.7502
1213.014, 109.8906
1213.496, 109.7266
1213.978, 110.5310
1214.460, 112.2573
1214.942, 116.8643
1215.424, 130.9270
1215.906, 142.4678
1216.388, 132.4250
1216.871, 96.62549
1217.353, 84.29346
1217.835, 93.78174
1218.317, 96.08862
1218.799, 92.99268
1219.281, 93.83521
1219.763, 102.6787
1220.245, 112.4075
1220.728, 122.4917
1221.210, 136.0393
1221.692, 141.6487
1222.174, 138.7942
1222.656, 146.6631
1223.138, 157.4888
1223.620, 143.9673
1224.102, 123.9358
1224.584, 100.4912
1225.067, 85.18042
1225.549, 86.94702
1226.031, 98.92603
1226.513, 112.3972
1226.995, 144.1304
1227.477, 161.2122
1227.959, 128.8052
1228.441, 91.57227
1228.923, 89.52393
1229.406, 102.9775
1229.888, 95.82520
1230.370, 66.38037
1230.852, 60.76318
1231.334, 78.79053
1231.816, 90.99463
1232.298, 96.61475
1232.780, 89.23730
1233.263, 69.59375
1233.745, 56.39014
1234.227, 59.86426
1234.709, 70.21191
1235.191, 80.47266
1235.673, 90.42236
1236.155, 98.42920
1236.637, 103.2793
1237.120, 92.53711
1237.602, 77.83643
1238.084, 69.35840
1238.566, 62.76855
1239.048, 53.54883
1239.530, 40.97314
1240.012, 35.22168
1240.494, 40.83936
1240.976, 36.14355
1241.458, 8.774902
1241.941, 0.6171880
1242.423, 24.81934
1242.905, 0.0000000E+00
##END=



