##NAMES=Veszelyite
##RRUFFID=R160003
##IDEAL CHEMISTRY=Cu^2+^_3_PO_4_(OH)_3_&#183;2H_2_O
##LOCALITY=Laochang ore field, Gejiu Co., Honghe Autonomous Prefecture, Yunnan Province, China
##OWNER=RRUFF
##SOURCE=Renato and Adriana Pagano
##DESCRIPTION=Blue prismatic crystals
##STATUS=The identification of this mineral has been confirmed only by single crystal X-ray diffraction.
##URL=rruff.info/R160003
100.5992, 0.0000000E+00
101.0813, 0.2406620
101.5634, 0.1413570
102.0455, 1.156128
102.5277, 3.024841
103.0098, 2.331787
103.4919, 0.7528690
103.9740, 0.2847900
104.4561, 3.747620
104.9382, 14.82843
105.4204, 21.74481
105.9025, 22.56329
106.3846, 19.32001
106.8667, 14.35522
107.3488, 8.422974
107.8309, 2.092468
108.3131, 0.5036010
108.7952, 2.358398
109.2773, 7.066223
109.7594, 11.67267
110.2415, 15.99701
110.7236, 20.29657
111.2058, 25.05322
111.6879, 30.40283
112.1700, 35.93689
112.6521, 43.04498
113.1342, 49.80487
113.6163, 52.69446
114.0985, 50.44678
114.5806, 46.48419
115.0627, 42.77289
115.5448, 39.15985
116.0269, 36.21790
116.5090, 34.04364
116.9912, 32.14105
117.4733, 30.85840
117.9554, 30.48566
118.4375, 30.34631
118.9196, 30.13739
119.4017, 29.75903
119.8839, 29.77136
120.3660, 30.85425
120.8481, 34.18207
121.3302, 35.54913
121.8123, 34.48578
122.2944, 32.29517
122.7766, 29.34497
123.2587, 25.86084
123.7408, 22.35187
124.2229, 19.82623
124.7050, 18.60516
125.1871, 18.60547
125.6693, 19.53998
126.1514, 20.58997
126.6335, 22.44519
127.1156, 24.49841
127.5977, 25.98511
128.0798, 25.65741
128.5620, 23.02087
129.0441, 21.08389
129.5262, 20.78116
130.0083, 20.94965
130.4904, 20.55283
130.9725, 17.86829
131.4547, 14.17539
131.9368, 12.27124
132.4189, 13.13037
132.9010, 14.87027
133.3831, 15.52838
133.8652, 14.81418
134.3474, 14.14526
134.8295, 14.11069
135.3116, 14.58392
135.7937, 15.53720
136.2758, 16.98096
136.7579, 18.89322
137.2401, 21.49695
137.7222, 26.19733
138.2043, 29.50412
138.6864, 29.97180
139.1685, 28.43729
139.6507, 26.18753
140.1328, 23.87585
140.6149, 21.51828
141.0970, 20.12695
141.5791, 20.78806
142.0612, 21.40012
142.5434, 21.44095
143.0255, 21.00281
143.5076, 20.38013
143.9897, 19.83832
144.4718, 19.43460
144.9539, 19.01028
145.4361, 18.99258
145.9182, 18.51050
146.4003, 16.92148
146.8824, 14.18350
147.3645, 10.90952
147.8466, 7.687805
148.3288, 4.392242
148.8109, 1.822906
149.2930, 6.6220001E-03
149.7751, 1.177124
150.2572, 1.503387
150.7393, 0.8442990
151.2215, 5.7526000E-02
151.7036, 0.1459350
152.1857, 1.426086
152.6678, 2.245117
153.1499, 1.783081
153.6320, 0.5436710
154.1142, 0.3016050
154.5963, 0.5254520
155.0784, 0.1180730
155.5605, 0.9905400
156.0426, 2.768890
156.5247, 4.467316
157.0069, 5.598419
157.4890, 6.154236
157.9711, 6.327423
158.4532, 3.958466
158.9353, 1.745453
159.4174, 0.5779110
159.8996, 0.5326230
160.3817, 0.6221920
160.8638, 0.4591060
161.3459, 3.192596
161.8280, 5.449585
162.3102, 6.722931
162.7923, 7.666931
163.2744, 8.745911
163.7565, 10.08164
164.2386, 11.36322
164.7207, 11.91013
165.2029, 10.98065
165.6850, 10.43814
166.1671, 10.26929
166.6492, 10.63373
167.1313, 11.59576
167.6134, 13.19232
168.0956, 15.29535
168.5777, 17.54474
169.0598, 20.42361
169.5419, 22.87640
170.0240, 24.89136
170.5061, 26.42444
170.9883, 27.21494
171.4704, 27.02127
171.9525, 26.26926
172.4346, 26.86960
172.9167, 30.31375
173.3988, 33.14398
173.8810, 34.20227
174.3631, 33.82513
174.8452, 32.68167
175.3273, 30.70505
175.8094, 28.57599
176.2915, 28.49969
176.7737, 31.92133
177.2558, 35.60605
177.7379, 37.55106
178.2200, 37.87723
178.7021, 37.92102
179.1842, 38.38538
179.6664, 39.01511
180.1485, 39.30737
180.6306, 39.00885
181.1127, 38.56250
181.5948, 38.36328
182.0769, 38.37994
182.5591, 38.83505
183.0412, 40.50705
183.5233, 42.49872
184.0054, 43.79208
184.4875, 43.83603
184.9696, 43.25845
185.4518, 43.21027
185.9339, 43.85376
186.4160, 44.65350
186.8981, 45.89954
187.3802, 47.02777
187.8623, 47.15134
188.3445, 45.52200
188.8266, 42.94873
189.3087, 42.40445
189.7908, 46.00616
190.2729, 48.80045
190.7550, 48.96188
191.2372, 47.79666
191.7193, 47.10110
192.2014, 48.00636
192.6835, 50.23134
193.1656, 51.84381
193.6477, 52.42105
194.1299, 52.75842
194.6120, 52.96509
195.0941, 53.02321
195.5762, 52.81726
196.0583, 52.18973
196.5404, 51.18626
197.0226, 50.91161
197.5047, 51.79131
197.9868, 52.85217
198.4689, 54.01349
198.9510, 55.18114
199.4331, 56.25644
199.9153, 57.20410
200.3974, 57.99651
200.8795, 58.04861
201.3616, 56.48865
201.8437, 55.18536
202.3258, 55.49010
202.8080, 56.94116
203.2901, 57.66293
203.7722, 56.04576
204.2543, 52.30342
204.7364, 49.92961
205.2185, 49.85992
205.7007, 50.21625
206.1828, 49.90771
206.6649, 48.93401
207.1470, 47.72595
207.6291, 46.43802
208.1112, 45.25566
208.5934, 44.64200
209.0755, 45.26645
209.5576, 45.99809
210.0397, 45.75336
210.5218, 44.52278
211.0039, 43.20033
211.4861, 42.25278
211.9682, 41.63467
212.4503, 41.27713
212.9324, 41.49022
213.4145, 41.64804
213.8967, 40.77960
214.3788, 38.63004
214.8609, 36.71037
215.3430, 36.47635
215.8251, 36.92168
216.3072, 36.89682
216.7894, 35.71326
217.2715, 34.02505
217.7536, 33.04790
218.2357, 33.02682
218.7178, 33.08276
219.1999, 32.94028
219.6821, 32.58624
220.1642, 31.94537
220.6463, 30.89438
221.1284, 29.67143
221.6105, 28.76468
222.0926, 28.14386
222.5748, 27.94252
223.0569, 28.39485
223.5390, 29.13406
224.0211, 29.76152
224.5032, 30.09308
224.9853, 30.23099
225.4675, 30.45493
225.9496, 30.83127
226.4317, 31.20857
226.9138, 31.61029
227.3959, 31.97586
227.8780, 32.17896
228.3602, 32.13776
228.8423, 32.01404
229.3244, 32.38849
229.8065, 34.08005
230.2886, 35.11583
230.7707, 34.74945
231.2529, 33.83463
231.7350, 33.37201
232.2171, 33.84058
232.6992, 34.88837
233.1813, 35.41229
233.6634, 34.80330
234.1456, 34.37488
234.6277, 34.19057
235.1098, 34.26909
235.5919, 34.78337
236.0740, 35.81535
236.5561, 36.99225
237.0383, 37.21426
237.5204, 35.22346
238.0025, 33.70695
238.4846, 33.08766
238.9667, 32.94019
239.4488, 32.78745
239.9310, 32.42433
240.4131, 31.88924
240.8952, 31.27817
241.3773, 30.20644
241.8594, 29.60161
242.3415, 29.89584
242.8237, 30.59642
243.3058, 31.04918
243.7879, 31.01001
244.2700, 30.76646
244.7521, 30.96010
245.2342, 32.12856
245.7164, 32.55836
246.1985, 31.46233
246.6806, 29.63541
247.1627, 28.13527
247.6448, 27.32193
248.1269, 26.97552
248.6091, 26.55759
249.0912, 25.84668
249.5733, 25.52716
250.0554, 26.26852
250.5375, 27.35634
251.0196, 27.50781
251.5018, 26.26093
251.9839, 24.77759
252.4660, 25.10693
252.9481, 27.37762
253.4302, 28.72026
253.9123, 27.33562
254.3945, 24.91339
254.8766, 24.15938
255.3587, 25.83261
255.8408, 28.41930
256.3229, 30.40910
256.8051, 31.90327
257.2872, 32.87659
257.7693, 32.83942
258.2514, 32.38570
258.7335, 32.66252
259.2156, 34.04662
259.6978, 35.34030
260.1799, 34.98021
260.6620, 33.45161
261.1441, 32.30841
261.6262, 32.20757
262.1083, 32.68742
262.5905, 33.18468
263.0726, 33.77852
263.5547, 33.96988
264.0368, 32.79240
264.5189, 30.89369
265.0010, 29.61801
265.4832, 29.87982
265.9653, 30.82172
266.4474, 31.02551
266.9295, 30.30043
267.4116, 29.57024
267.8937, 29.69093
268.3759, 30.10959
268.8580, 30.01630
269.3401, 28.98297
269.8222, 27.49638
270.3043, 26.16200
270.7864, 24.93172
271.2686, 24.07776
271.7507, 24.06308
272.2328, 24.37482
272.7149, 24.53404
273.1970, 24.44611
273.6791, 24.11304
274.1613, 23.37338
274.6434, 22.05885
275.1255, 21.10640
275.6076, 21.27783
276.0897, 21.78534
276.5718, 21.96295
277.0540, 21.61296
277.5361, 21.24805
278.0182, 21.65741
278.5003, 23.01915
278.9824, 23.86423
279.4645, 23.27106
279.9467, 22.36101
280.4288, 21.99086
280.9109, 22.28148
281.3930, 22.48732
281.8751, 21.57315
282.3572, 19.39287
282.8394, 17.94765
283.3215, 18.13223
283.8036, 18.72134
284.2857, 19.13007
284.7678, 19.30067
285.2499, 19.34134
285.7321, 19.43959
286.2142, 19.60616
286.6963, 19.28337
287.1784, 18.16180
287.6605, 16.78947
288.1426, 15.04427
288.6248, 13.18324
289.1069, 11.94470
289.5890, 12.22548
290.0711, 13.85645
290.5532, 14.61748
291.0353, 14.15755
291.5175, 13.14034
291.9996, 11.48724
292.4817, 9.540039
292.9638, 7.918579
293.4459, 7.038437
293.9280, 6.758652
294.4102, 6.559052
294.8923, 6.832794
295.3744, 6.518936
295.8565, 4.592590
296.3386, 2.188843
296.8207, 0.8835450
297.3029, 1.566605
297.7850, 3.410980
298.2671, 4.388474
298.7492, 4.242340
299.2313, 3.681137
299.7134, 2.642395
300.1956, 1.458664
300.6777, 0.3694150
301.1598, 0.5547490
301.6419, 1.221512
302.1240, 1.427673
302.6061, 1.047852
303.0883, 0.5498960
303.5704, 0.4675600
304.0525, 1.258255
304.5346, 1.036819
305.0167, 0.2464290
305.4988, 1.623856
305.9810, 1.756241
306.4631, 0.2641600
306.9452, 0.7095340
307.4273, 0.8482510
307.9094, 0.5735780
308.3915, 0.2046200
308.8737, 1.325562
309.3558, 2.305145
309.8379, 2.609131
310.3200, 2.192307
310.8021, 1.918396
311.2842, 2.102737
311.7664, 2.124924
312.2485, 1.573837
312.7306, 0.6888730
313.2127, 6.3930000E-03
313.6948, 3.4637000E-02
314.1769, 0.4428100
314.6591, 0.6548460
315.1412, 0.3170170
315.6233, 0.1036830
316.1054, 0.2695310
316.5875, 0.6427760
317.0696, 1.014893
317.5518, 1.298752
318.0339, 1.480728
318.5160, 1.475159
318.9981, 1.074753
319.4802, 0.9181980
319.9623, 1.629349
320.4445, 2.350067
320.9266, 2.146484
321.4087, 0.7445530
321.8908, 1.039719
322.3729, 1.970551
322.8550, 1.856049
323.3372, 1.566010
323.8193, 0.8633420
324.3014, 0.2750850
324.7835, 0.1889800
325.2656, 0.6036990
325.7477, 1.143997
326.2299, 1.456146
326.7120, 1.524826
327.1941, 1.488266
327.6762, 1.146576
328.1583, 0.8901370
328.6404, 0.8203890
329.1226, 0.9653630
329.6047, 1.384354
330.0868, 2.290527
330.5689, 3.544174
331.0510, 4.113586
331.5331, 3.272110
332.0153, 2.841232
332.4974, 4.070755
332.9795, 5.941162
333.4616, 6.913879
333.9437, 6.129944
334.4258, 4.295898
334.9080, 2.877838
335.3901, 1.755554
335.8722, 1.395050
336.3543, 2.307419
336.8365, 3.790604
337.3186, 5.516296
337.8007, 7.434631
338.2828, 8.895660
338.7649, 8.725266
339.2470, 6.606552
339.7292, 5.252869
340.2113, 5.764908
340.6934, 6.795273
341.1755, 7.551453
341.6576, 7.987854
342.1397, 8.434662
342.6219, 9.385666
343.1040, 10.73256
343.5861, 11.20512
344.0682, 9.852264
344.5503, 8.821503
345.0324, 9.620193
345.5146, 11.67824
345.9967, 13.56258
346.4788, 14.35406
346.9609, 14.50975
347.4430, 15.22234
347.9251, 16.76900
348.4073, 18.12120
348.8894, 18.38564
349.3715, 18.28276
349.8536, 18.74947
350.3357, 20.24193
350.8178, 21.97551
351.3000, 22.89049
351.7821, 22.93671
352.2642, 23.29878
352.7463, 24.77391
353.2284, 26.44530
353.7105, 27.19711
354.1927, 26.86049
354.6748, 26.69897
355.1569, 28.06683
355.6390, 30.49286
356.1211, 31.70609
356.6032, 30.79422
357.0854, 29.43533
357.5675, 29.12192
358.0496, 29.69545
358.5317, 30.56274
359.0138, 32.12804
359.4959, 33.60281
359.9781, 33.39285
360.4602, 31.16620
360.9423, 29.10300
361.4244, 28.92378
361.9065, 30.04228
362.3886, 31.02957
362.8708, 31.87689
363.3529, 32.29480
363.8350, 31.69695
364.3171, 30.36551
364.7992, 29.86798
365.2813, 31.34412
365.7635, 33.61507
366.2456, 34.25475
366.7277, 32.74440
367.2098, 31.21735
367.6919, 30.77191
368.1740, 30.92715
368.6562, 30.59662
369.1383, 29.40868
369.6204, 28.12851
370.1025, 27.88576
370.5846, 28.78819
371.0667, 29.16002
371.5489, 28.23965
372.0310, 27.01843
372.5131, 26.36418
372.9952, 26.35370
373.4773, 26.77127
373.9594, 27.69545
374.4416, 28.93416
374.9237, 28.77400
375.4058, 26.17390
375.8879, 23.48383
376.3700, 21.47527
376.8521, 20.06708
377.3343, 19.00737
377.8164, 18.15121
378.2985, 17.57729
378.7806, 17.53804
379.2627, 18.83574
379.7448, 19.43427
380.2270, 18.94411
380.7091, 17.79556
381.1912, 16.09467
381.6733, 13.95200
382.1554, 11.92812
382.6375, 10.64659
383.1197, 10.25060
383.6018, 9.927353
384.0839, 9.969940
384.5660, 9.849258
385.0481, 9.155426
385.5302, 8.084991
386.0124, 7.136200
386.4945, 6.651993
386.9766, 6.583344
387.4587, 6.650284
387.9408, 7.498169
388.4229, 7.659607
388.9051, 6.085846
389.3872, 4.159088
389.8693, 3.534897
390.3514, 4.718536
390.8335, 6.517319
391.3156, 6.848267
391.7978, 4.894379
392.2799, 3.681976
392.7620, 3.557388
393.2441, 3.856171
393.7262, 4.560287
394.2083, 5.457703
394.6905, 6.014191
395.1726, 5.654343
395.6547, 4.511505
396.1368, 4.041168
396.6189, 4.732559
397.1010, 5.425980
397.5832, 5.734299
398.0653, 5.840820
398.5474, 5.976822
399.0295, 6.237305
399.5116, 6.543854
399.9937, 6.835220
400.4759, 7.168930
400.9580, 7.179184
401.4401, 6.289551
401.9222, 5.402054
402.4043, 5.325821
402.8864, 6.046112
403.3686, 6.607956
403.8507, 6.025818
404.3328, 4.632004
404.8149, 3.911392
405.2970, 4.109406
405.7791, 4.699188
406.2613, 5.722122
406.7434, 6.848969
407.2255, 7.351761
407.7076, 6.742096
408.1897, 5.665970
408.6718, 4.684235
409.1540, 3.803391
409.6361, 3.298965
410.1182, 3.349747
410.6003, 3.822830
411.0824, 4.557922
411.5645, 5.739563
412.0467, 6.481171
412.5288, 6.042618
413.0109, 4.995148
413.4930, 4.383728
413.9751, 4.441986
414.4572, 4.685867
414.9394, 4.627823
415.4215, 4.250153
415.9036, 3.955399
416.3857, 3.591263
416.8678, 3.459610
417.3499, 4.146774
417.8321, 5.325027
418.3142, 5.663452
418.7963, 4.177628
419.2784, 1.763931
419.7605, 1.590927
420.2426, 6.879120
420.7248, 9.928909
421.2069, 8.103409
421.6890, 4.587051
422.1711, 2.704926
422.6532, 3.172318
423.1353, 4.401382
423.6175, 4.444183
424.0996, 2.898346
424.5817, 2.247116
425.0638, 3.184357
425.5459, 4.188522
426.0280, 4.707001
426.5102, 4.826050
426.9923, 4.832657
427.4744, 4.895874
427.9565, 4.955872
428.4386, 4.793625
428.9207, 4.212830
429.4029, 3.761017
429.8850, 3.344955
430.3671, 3.169571
430.8492, 3.736404
431.3313, 4.975922
431.8134, 5.864761
432.2956, 4.928696
432.7777, 2.095276
433.2598, 0.4427640
433.7419, 0.8442540
434.2241, 1.416626
434.7062, 1.231827
435.1883, 0.5663600
435.6704, 2.2598000E-02
436.1525, 0.2335510
436.6346, 0.3325350
437.1168, 0.8693240
437.5989, 1.920929
438.0810, 2.581985
438.5631, 2.342163
439.0452, 1.688232
439.5273, 1.213120
440.0095, 0.9570310
440.4916, 0.6039730
440.9737, 0.2340550
441.4558, 1.248154
441.9379, 1.786438
442.4200, 1.744476
442.9022, 1.363022
443.3843, 0.6655430
443.8664, 0.2559660
444.3485, 0.8656160
444.8306, 0.9483340
445.3127, 0.8970640
445.7949, 1.048904
446.2770, 1.251328
446.7591, 1.029465
447.2412, 0.1362760
447.7233, 1.059769
448.2054, 1.863693
448.6876, 2.102539
449.1697, 2.330978
449.6518, 2.414825
450.1339, 2.610168
450.6160, 3.188354
451.0981, 4.102921
451.5803, 5.060104
452.0624, 5.809479
452.5445, 6.374298
453.0266, 7.046646
453.5087, 7.758728
453.9908, 8.670807
454.4730, 10.16971
454.9551, 11.71333
455.4372, 12.54201
455.9193, 12.46930
456.4014, 12.19498
456.8835, 12.83823
457.3657, 14.72128
457.8478, 16.03766
458.3299, 16.22916
458.8120, 16.30409
459.2941, 16.57024
459.7762, 17.04651
460.2584, 17.67944
460.7405, 18.37558
461.2226, 19.28526
461.7047, 21.02165
462.1868, 23.94000
462.6689, 25.97346
463.1511, 25.67079
463.6332, 24.61183
464.1153, 24.13872
464.5974, 24.33636
465.0795, 25.36960
465.5616, 28.41890
466.0438, 32.21680
466.5259, 33.57744
467.0080, 31.81462
467.4901, 29.51253
467.9722, 28.36487
468.4543, 28.36823
468.9365, 29.09904
469.4186, 31.77342
469.9007, 33.92169
470.3828, 33.73962
470.8649, 32.11368
471.3470, 31.00967
471.8292, 31.14403
472.3113, 31.80724
472.7934, 31.95638
473.2755, 31.49115
473.7576, 30.67818
474.2397, 29.00301
474.7219, 27.44298
475.2040, 26.55338
475.6861, 26.29289
476.1682, 26.40646
476.6503, 26.75040
477.1324, 27.28191
477.6146, 27.84862
478.0967, 28.70505
478.5788, 29.17574
479.0609, 29.03496
479.5430, 28.64093
480.0251, 27.92154
480.5073, 27.07707
480.9894, 26.96617
481.4715, 28.88689
481.9536, 32.59232
482.4357, 34.79716
482.9178, 34.93562
483.4000, 34.34804
483.8821, 33.26735
484.3642, 32.14400
484.8463, 31.68398
485.3284, 32.29405
485.8105, 32.82281
486.2927, 31.79375
486.7748, 29.52240
487.2569, 28.14885
487.7390, 28.52357
488.2211, 29.07489
488.7032, 27.74954
489.1854, 24.92294
489.6675, 22.78989
490.1496, 21.94861
490.6317, 21.80502
491.1138, 22.42479
491.5959, 23.47279
492.0781, 23.56131
492.5602, 21.87125
493.0423, 19.28452
493.5244, 17.75429
494.0065, 18.03056
494.4886, 18.00383
494.9708, 17.14525
495.4529, 16.23279
495.9350, 16.02946
496.4171, 16.48137
496.8992, 16.92245
497.3813, 16.81190
497.8635, 16.22058
498.3456, 15.68063
498.8277, 15.23956
499.3098, 14.80870
499.7919, 14.45476
500.2740, 14.02682
500.7562, 13.31860
501.2383, 12.32014
501.7204, 11.29144
502.2025, 10.46268
502.6846, 9.871048
503.1667, 9.612473
503.6489, 9.803452
504.1310, 10.08136
504.6131, 10.42146
505.0952, 10.75204
505.5773, 10.76737
506.0594, 10.09459
506.5416, 9.752365
507.0237, 11.34161
507.5058, 14.06279
507.9879, 14.89786
508.4700, 12.85577
508.9521, 9.875488
509.4343, 7.672729
509.9164, 6.299377
510.3985, 5.971939
510.8806, 7.710800
511.3627, 9.532288
511.8448, 10.51453
512.3270, 10.70457
512.8091, 10.05281
513.2912, 8.485077
513.7733, 6.904053
514.2554, 7.115143
514.7375, 10.58337
515.2197, 12.37216
515.7018, 11.50638
516.1839, 10.12721
516.6660, 8.885544
517.1481, 8.059998
517.6302, 8.145462
518.1124, 9.617996
518.5945, 11.62596
519.0766, 11.69202
519.5587, 8.977112
520.0408, 7.062866
520.5229, 7.422226
521.0051, 8.326141
521.4872, 8.774506
521.9693, 8.735962
522.4514, 8.554428
522.9335, 8.355423
523.4156, 8.142731
523.8978, 8.044922
524.3799, 8.081863
524.8620, 8.102997
525.3441, 8.074722
525.8262, 7.957962
526.3083, 7.677170
526.7905, 7.216354
527.2726, 6.686050
527.7547, 6.132568
528.2368, 5.523285
528.7189, 4.746414
529.2010, 3.838730
529.6832, 3.048996
530.1653, 2.543503
530.6474, 2.325943
531.1295, 2.371155
531.6116, 3.353729
532.0938, 3.696060
532.5759, 2.505951
533.0580, 1.126678
533.5401, 1.003830
534.0222, 2.157684
534.5043, 3.284012
534.9865, 3.054276
535.4686, 1.621704
535.9507, 0.7856600
536.4328, 0.8868100
536.9149, 0.9413600
537.3970, 0.5708010
537.8792, 1.4725000E-02
538.3613, 0.6878810
538.8434, 1.449890
539.3255, 1.973587
539.8076, 2.249237
540.2897, 2.089127
540.7719, 0.5444340
541.2540, 2.787628
541.7361, 5.613007
542.2182, 5.949036
542.7003, 4.326965
543.1824, 3.639618
543.6646, 4.431839
544.1467, 5.235962
544.6288, 5.483002
545.1109, 5.618561
545.5930, 6.156876
546.0751, 7.233963
546.5573, 8.878235
547.0394, 11.14189
547.5215, 13.98849
548.0036, 15.67015
548.4857, 15.12227
548.9678, 14.59839
549.4500, 14.13786
549.9321, 14.07812
550.4142, 14.94595
550.8963, 16.81686
551.3784, 18.89349
551.8605, 20.24344
552.3427, 20.92708
552.8248, 21.94267
553.3069, 23.64857
553.7890, 25.01054
554.2711, 25.01810
554.7532, 24.43210
555.2354, 24.37608
555.7175, 25.19644
556.1996, 26.05867
556.6817, 26.83611
557.1638, 27.20747
557.6459, 26.20300
558.1281, 23.62601
558.6102, 21.01669
559.0923, 19.78302
559.5744, 19.83670
560.0565, 19.32407
560.5386, 17.52472
561.0208, 16.14847
561.5029, 16.16350
561.9850, 16.51375
562.4671, 15.92409
562.9492, 14.17079
563.4313, 11.96370
563.9135, 9.899124
564.3956, 7.982513
564.8777, 6.975845
565.3598, 7.458939
565.8419, 7.955063
566.3240, 8.045532
566.8062, 7.898575
567.2883, 7.643448
567.7704, 7.306061
568.2525, 6.994614
568.7346, 6.798615
569.2167, 6.697144
569.6989, 6.641739
570.1810, 6.638611
570.6631, 6.632599
571.1452, 6.676422
571.6273, 6.661530
572.1094, 6.187210
572.5916, 4.823898
573.0737, 3.807602
573.5558, 3.580032
574.0379, 3.800125
574.5200, 4.223083
575.0021, 4.753006
575.4843, 5.285034
575.9664, 5.787506
576.4485, 6.168457
576.9306, 5.777664
577.4127, 3.712982
577.8948, 2.335709
578.3770, 2.593018
578.8591, 3.111031
579.3412, 2.533142
579.8233, 0.9859850
580.3054, 1.5549000E-02
580.7875, 0.9966130
581.2697, 3.199196
581.7518, 4.542480
582.2339, 4.973976
582.7161, 5.042717
583.1982, 4.858910
583.6803, 4.504395
584.1624, 4.046906
584.6445, 3.451637
585.1266, 3.047577
585.6088, 3.198074
586.0909, 3.367477
586.5730, 3.013351
587.0551, 2.245178
587.5372, 1.425758
588.0193, 0.7200090
588.5015, 0.2962110
588.9836, 0.6406020
589.4657, 2.670982
589.9478, 3.483574
590.4299, 1.769157
590.9120, 0.2181930
591.3942, 0.3863750
591.8763, 1.706367
592.3584, 2.802567
592.8405, 3.011391
593.3226, 2.762802
593.8047, 2.685448
594.2869, 2.814636
594.7690, 2.845589
595.2511, 2.725471
595.7332, 2.488396
596.2153, 2.012810
596.6974, 1.368347
597.1796, 0.8850250
597.6617, 0.9364700
598.1438, 0.8698350
598.6259, 0.2683640
599.1080, 0.6394200
599.5901, 1.531487
600.0723, 2.283447
600.5544, 2.562424
601.0365, 1.918999
601.5186, 0.3299180
602.0007, 0.8461070
602.4828, 1.805405
602.9650, 2.078026
603.4471, 0.6272050
603.9292, 0.9797740
604.4113, 0.9547420
604.8934, 0.8919980
605.3755, 2.930222
605.8577, 3.671921
606.3398, 3.461662
606.8219, 3.555550
607.3040, 4.040276
607.7861, 4.370499
608.2682, 4.134392
608.7504, 3.723267
609.2325, 3.940613
609.7146, 4.998436
610.1967, 5.516846
610.6788, 4.869118
611.1609, 3.729858
611.6431, 2.373375
612.1252, 1.035217
612.6073, 0.2976460
613.0894, 0.4835280
613.5715, 1.292320
614.0536, 2.170403
614.5358, 3.461464
615.0179, 3.973122
615.5000, 2.973114
615.9821, 1.989258
616.4642, 1.569237
616.9464, 1.649673
617.4285, 2.082413
617.9106, 2.892265
618.3927, 3.730736
618.8748, 4.181870
619.3569, 4.305038
619.8391, 4.406349
620.3212, 4.521721
620.8033, 4.676720
621.2854, 4.969704
621.7675, 5.332108
622.2496, 5.395874
622.7318, 4.932899
623.2139, 4.476410
623.6960, 4.160759
624.1781, 3.927940
624.6602, 3.795364
625.1423, 3.713913
625.6245, 3.482101
626.1066, 2.898735
626.5887, 2.083183
627.0708, 1.497452
627.5529, 0.9420390
628.0350, 1.108665
628.5172, 3.301888
628.9993, 5.382233
629.4814, 5.776627
629.9635, 4.690857
630.4456, 3.547798
630.9277, 2.813278
631.4099, 2.463707
631.8920, 2.567444
632.3741, 3.079231
632.8562, 3.804260
633.3383, 4.712746
633.8204, 5.419235
634.3026, 5.417336
634.7847, 4.631020
635.2668, 4.150032
635.7489, 3.962082
636.2310, 4.037323
636.7131, 4.735703
637.1953, 5.473190
637.6774, 5.821747
638.1595, 5.662109
638.6416, 5.179680
639.1237, 4.308281
639.6058, 3.193939
640.0880, 2.713722
640.5701, 3.039017
641.0522, 3.303398
641.5343, 2.999077
642.0164, 2.606171
642.4985, 2.953796
642.9807, 4.135002
643.4628, 4.673035
643.9449, 3.284752
644.4270, 1.833000
644.9091, 2.343491
645.3912, 4.046532
645.8734, 4.521461
646.3555, 2.785637
646.8376, 0.4835510
647.3197, 0.3460160
647.8018, 2.989258
648.2839, 4.176826
648.7661, 2.509926
649.2482, 1.062866
649.7303, 1.120331
650.2124, 1.742271
650.6945, 1.610313
651.1766, 0.4141920
651.6588, 0.5447690
652.1409, 0.1802220
652.6230, 0.8855060
653.1051, 1.466118
653.5872, 1.508766
654.0693, 1.941994
654.5515, 3.285416
655.0336, 4.973267
655.5157, 5.816681
655.9978, 5.484200
656.4799, 4.987694
656.9620, 4.176079
657.4442, 3.268402
657.9263, 1.996101
658.4084, 0.8544920
658.8905, 0.9680330
659.3726, 2.818184
659.8547, 4.816895
660.3369, 4.428604
660.8190, 1.895348
661.3011, 1.158203
661.7832, 3.138161
662.2653, 4.701538
662.7474, 3.643860
663.2296, 1.230324
663.7117, 0.1480260
664.1938, 0.7967760
664.6759, 1.566208
665.1580, 1.840050
665.6401, 2.111404
666.1223, 3.206787
666.6044, 4.746582
667.0865, 5.293411
667.5686, 4.062958
668.0507, 2.142326
668.5328, 1.712822
669.0150, 3.231247
669.4971, 4.303955
669.9792, 5.153259
670.4613, 5.158546
670.9434, 3.157394
671.4255, 0.5705800
671.9077, 0.2252660
672.3898, 1.627441
672.8719, 3.367294
673.3540, 2.768593
673.8361, 1.168030
674.3182, 0.7368700
674.8004, 1.523796
675.2825, 2.334297
675.7646, 2.515251
676.2467, 2.226799
676.7288, 1.791504
677.2109, 0.8891530
677.6931, 0.6022490
678.1752, 1.384377
678.6573, 2.279900
679.1394, 3.168289
679.6215, 3.806976
680.1036, 3.596451
680.5858, 2.243607
681.0679, 1.094864
681.5500, 1.989212
682.0321, 4.108711
682.5142, 4.903656
682.9963, 4.116447
683.4785, 2.946899
683.9606, 1.887901
684.4427, 1.053848
684.9248, 0.7389300
685.4069, 1.164299
685.8890, 1.610535
686.3712, 2.146652
686.8533, 2.622940
687.3354, 3.167297
687.8175, 3.547211
688.2996, 3.271698
688.7817, 2.165565
689.2639, 0.8497850
689.7460, 1.8279999E-02
690.2281, 0.4522710
690.7102, 0.5042650
691.1923, 0.1637800
691.6744, 0.5887600
692.1566, 2.263855
692.6387, 3.999825
693.1208, 3.766876
693.6029, 0.9456020
694.0850, 0.7244720
694.5671, 0.3724670
695.0493, 1.824432
695.5314, 2.049538
696.0135, 1.450096
696.4956, 0.9493870
696.9777, 0.8982850
697.4598, 1.147896
697.9420, 1.705055
698.4241, 2.561302
698.9062, 2.744270
699.3883, 1.942886
699.8704, 1.320274
700.3525, 1.362076
700.8347, 1.828812
701.3168, 2.557854
701.7989, 3.611412
702.2810, 4.052742
702.7631, 3.000214
703.2452, 1.851173
703.7274, 1.673332
704.2095, 2.136520
704.6916, 2.521240
705.1737, 2.609467
705.6558, 2.594421
706.1379, 2.654259
706.6201, 2.777420
707.1022, 2.809288
707.5843, 2.914291
708.0664, 2.584808
708.5485, 0.9125140
709.0306, 0.7054210
709.5128, 0.6445080
709.9949, 1.036888
710.4770, 2.073792
710.9591, 0.8017650
711.4412, 0.5213390
711.9233, 4.2098999E-02
712.4055, 1.677895
712.8876, 2.896553
713.3697, 3.289612
713.8518, 3.041008
714.3339, 2.163063
714.8160, 0.8587040
715.2982, 0.7937550
715.7803, 2.812775
716.2624, 4.083946
716.7445, 3.474098
717.2266, 2.417183
717.7087, 1.608513
718.1909, 1.154160
718.6730, 1.362442
719.1551, 2.855629
719.6372, 4.328270
720.1193, 5.043694
720.6014, 5.086777
721.0836, 4.255096
721.5657, 2.697929
722.0478, 1.592224
722.5299, 1.887962
723.0120, 3.158844
723.4941, 3.913826
723.9763, 4.126328
724.4584, 3.882973
724.9405, 2.593628
725.4226, 1.487633
725.9047, 1.243660
726.3868, 1.652130
726.8690, 2.341843
727.3511, 3.447601
727.8332, 4.174675
728.3153, 3.836464
728.7974, 2.954979
729.2795, 2.060181
729.7617, 1.258675
730.2438, 0.8405230
730.7259, 0.9207080
731.2080, 1.255463
731.6901, 1.280685
732.1722, 0.7880400
732.6544, 0.9107970
733.1365, 2.442230
733.6186, 3.478043
734.1007, 2.922546
734.5828, 1.625717
735.0649, 0.6150510
735.5471, 4.0878002E-02
736.0292, 0.4306490
736.5113, 1.091179
736.9934, 1.617699
737.4755, 1.677254
737.9576, 1.328682
738.4398, 0.7071840
738.9219, 0.1298980
739.4040, 0.9930880
739.8861, 1.698380
740.3682, 2.241989
740.8503, 2.178894
741.3325, 1.062546
741.8146, 0.2779080
742.2967, 0.4638210
742.7788, 0.9511260
743.2609, 1.292938
743.7430, 1.458786
744.2252, 1.418564
744.7073, 0.9440000
745.1894, 0.4927830
745.6715, 0.3986050
746.1536, 0.5076900
746.6357, 0.4357300
747.1179, 0.2088320
747.6000, 0.4823000
748.0821, 1.936508
748.5642, 3.985672
749.0463, 4.582733
749.5284, 3.434204
750.0106, 2.152191
750.4927, 0.5407870
750.9748, 0.6092220
751.4569, 0.5343930
751.9390, 0.2818760
752.4211, 1.180191
752.9033, 2.177231
753.3854, 2.818024
753.8675, 3.078705
754.3496, 2.801132
754.8317, 1.214279
755.3138, 1.029556
755.7960, 2.174927
756.2781, 1.417191
756.7602, 0.3397220
757.2423, 2.033981
757.7244, 3.641495
758.2065, 4.657944
758.6887, 5.056244
759.1708, 4.869904
759.6529, 3.847290
760.1350, 2.469574
760.6171, 1.359207
761.0992, 0.4877320
761.5814, 5.2108999E-02
762.0635, 7.7758998E-02
762.5456, 0.5437620
763.0277, 2.268631
763.5098, 4.004089
763.9919, 3.713730
764.4741, 1.412338
764.9562, 0.5848080
765.4383, 0.2857970
765.9204, 1.282440
766.4025, 1.683594
766.8846, 0.9047850
767.3668, 0.8375700
767.8489, 2.143753
768.3310, 3.399994
768.8131, 3.386581
769.2952, 2.303268
769.7773, 1.683868
770.2595, 1.956650
770.7416, 1.979752
771.2237, 1.329269
771.7058, 0.7458190
772.1879, 0.7120970
772.6700, 1.108627
773.1522, 1.715561
773.6343, 2.483353
774.1164, 3.033295
774.5985, 2.964294
775.0806, 2.423721
775.5627, 1.517776
776.0449, 0.3318790
776.5270, 0.2268980
777.0091, 0.3368530
777.4912, 1.222641
777.9733, 1.117081
778.4554, 0.2273560
778.9376, 0.4732510
779.4197, 1.790848
779.9019, 3.220856
780.3840, 2.395401
780.8661, 1.018799
781.3482, 0.6155550
781.8303, 1.161057
782.3124, 1.666824
782.7946, 1.566757
783.2767, 1.467361
783.7588, 1.833221
784.2409, 2.551636
784.7230, 3.758835
785.2051, 5.270432
785.6873, 5.899658
786.1694, 4.699081
786.6515, 2.533066
787.1336, 1.677078
787.6157, 2.383804
788.0978, 3.081223
788.5800, 3.930908
789.0621, 4.305771
789.5442, 3.276947
790.0263, 1.812332
790.5084, 1.597900
790.9905, 3.015656
791.4727, 4.053009
791.9548, 3.810165
792.4369, 3.443329
792.9190, 3.786575
793.4011, 4.467758
793.8832, 4.758575
794.3654, 4.508026
794.8475, 4.213242
795.3296, 4.390137
795.8117, 4.848129
796.2938, 4.988113
796.7759, 4.821777
797.2581, 4.821548
797.7402, 5.213882
798.2223, 5.337296
798.7044, 4.468811
799.1865, 2.837799
799.6686, 1.820313
800.1508, 1.954666
800.6329, 1.936188
801.1150, 1.201797
801.5971, 0.8490300
802.0792, 1.936157
802.5613, 3.726532
803.0435, 4.703690
803.5256, 4.343414
804.0077, 4.203781
804.4898, 6.414276
804.9719, 8.956635
805.4540, 8.258865
805.9362, 5.070541
806.4183, 2.918106
806.9004, 3.049606
807.3825, 4.169708
807.8646, 4.874649
808.3467, 5.174576
808.8289, 5.063721
809.3110, 4.237701
809.7931, 3.983704
810.2752, 5.010254
810.7573, 6.164169
811.2394, 6.335297
811.7216, 5.867584
812.2037, 5.938354
812.6858, 7.227386
813.1679, 8.053726
813.6500, 7.662811
814.1321, 6.820755
814.6143, 5.924866
815.0964, 5.053558
815.5785, 4.254059
816.0606, 3.555649
816.5427, 3.310852
817.0248, 4.246048
817.5070, 5.951447
817.9891, 7.031876
818.4712, 7.466217
818.9533, 7.382462
819.4354, 6.741608
819.9175, 5.903046
820.3997, 5.238693
820.8818, 4.750153
821.3639, 4.517105
821.8460, 4.175156
822.3281, 4.665115
822.8102, 7.317734
823.2924, 9.666702
823.7745, 9.860367
824.2566, 8.441254
824.7387, 6.822525
825.2208, 5.070679
825.7029, 4.279724
826.1851, 6.053589
826.6672, 8.489548
827.1493, 9.344727
827.6314, 8.829514
828.1135, 8.018799
828.5956, 7.360687
829.0778, 7.002579
829.5599, 7.177444
830.0420, 7.816147
830.5241, 8.547348
831.0062, 9.434616
831.4883, 9.884644
831.9705, 9.487137
832.4526, 9.117950
832.9347, 9.882065
833.4168, 11.55548
833.8989, 11.96948
834.3810, 9.354355
834.8632, 8.168884
835.3453, 10.41403
835.8274, 12.64267
836.3095, 12.19505
836.7916, 10.24583
837.2737, 9.451675
837.7559, 10.61961
838.2380, 12.18607
838.7201, 13.49780
839.2022, 14.22044
839.6843, 13.54248
840.1664, 11.87122
840.6486, 10.42245
841.1307, 9.579971
841.6128, 9.127823
842.0949, 8.834152
842.5770, 8.771667
843.0591, 9.514084
843.5413, 11.41710
844.0234, 12.19389
844.5055, 10.95111
844.9876, 9.517593
845.4697, 8.977188
845.9518, 9.219360
846.4340, 9.952744
846.9161, 11.42738
847.3982, 12.69972
847.8803, 14.08247
848.3624, 14.80028
848.8445, 13.68748
849.3267, 12.06976
849.8088, 12.00514
850.2909, 13.66370
850.7730, 14.99054
851.2551, 14.44310
851.7372, 13.10275
852.2194, 12.08972
852.7015, 11.34386
853.1836, 10.54042
853.6657, 9.710312
854.1478, 9.708633
854.6299, 11.21338
855.1121, 13.43851
855.5942, 14.73322
856.0763, 15.20651
856.5584, 14.71933
857.0405, 12.63998
857.5226, 10.77747
858.0048, 9.863922
858.4869, 9.783325
858.9690, 10.57043
859.4511, 12.31808
859.9332, 13.65161
860.4153, 14.75513
860.8975, 15.17719
861.3796, 14.33698
861.8617, 13.20802
862.3438, 12.17473
862.8259, 11.39398
863.3080, 11.62434
863.7902, 13.48370
864.2723, 14.99860
864.7544, 13.74899
865.2365, 11.62154
865.7186, 11.64395
866.2007, 13.35689
866.6829, 14.42918
867.1650, 14.01825
867.6471, 13.05051
868.1292, 12.52576
868.6113, 12.42764
869.0934, 12.74261
869.5756, 13.58908
870.0577, 13.88522
870.5398, 13.24553
871.0219, 12.36931
871.5040, 11.78799
871.9861, 11.40907
872.4683, 10.85927
872.9504, 9.857437
873.4325, 9.220764
873.9146, 9.220398
874.3967, 9.386780
874.8788, 9.539627
875.3610, 9.620712
875.8431, 9.439041
876.3252, 9.047371
876.8073, 9.197548
877.2894, 11.00185
877.7715, 12.68288
878.2537, 12.70183
878.7358, 11.78751
879.2179, 10.85151
879.7000, 10.10623
880.1821, 9.686836
880.6642, 9.699638
881.1464, 9.757614
881.6285, 9.020081
882.1106, 7.740265
882.5927, 7.605453
883.0748, 8.733253
883.5569, 9.290756
884.0391, 8.466866
884.5212, 7.270264
885.0033, 6.886856
885.4854, 7.275383
885.9675, 7.606110
886.4496, 8.265442
886.9318, 8.081131
887.4139, 5.686058
887.8960, 3.702057
888.3781, 4.217545
888.8602, 5.996819
889.3423, 6.479675
889.8245, 5.059746
890.3066, 3.875450
890.7887, 3.747231
891.2708, 3.769676
891.7529, 3.608276
892.2350, 3.160271
892.7172, 1.993149
893.1993, 0.3198850
893.6814, 0.6381150
894.1635, 6.1751999E-02
894.6456, 1.378120
895.1277, 2.249634
895.6099, 2.726929
896.0920, 2.763748
896.5741, 2.453621
897.0562, 2.320358
897.5383, 2.616737
898.0204, 3.131966
898.5026, 3.628349
898.9847, 4.081474
899.4668, 4.166550
899.9489, 3.838379
900.4310, 3.351028
900.9131, 2.661522
901.3953, 2.068756
901.8774, 1.815414
902.3595, 1.874725
902.8416, 2.152267
903.3237, 3.238831
903.8058, 3.463425
904.2880, 1.722244
904.7701, 0.4305880
905.2522, 0.9489590
905.7343, 2.225052
906.2164, 2.987564
906.6985, 3.111687
907.1807, 3.096519
907.6628, 3.028076
908.1449, 2.971336
908.6270, 3.084412
909.1091, 3.142189
909.5912, 2.673080
910.0734, 1.910172
910.5555, 1.738159
911.0376, 2.576637
911.5197, 3.388405
912.0018, 3.104973
912.4839, 1.992821
912.9661, 6.6955999E-02
913.4482, 2.283585
913.9303, 3.096809
914.4124, 1.877434
914.8945, 0.1829680
915.3766, 0.6716000
915.8588, 0.8353500
916.3409, 0.5696720
916.8230, 0.2657470
917.3051, 9.8601997E-02
917.7872, 2.454346
918.2693, 3.741447
918.7515, 1.798424
919.2336, 1.151138
919.7157, 1.473793
920.1978, 1.206276
920.6799, 2.764519
921.1620, 2.794708
921.6442, 2.236954
922.1263, 0.3704530
922.6084, 1.260796
923.0905, 1.439827
923.5726, 0.6168440
924.0547, 0.1346590
924.5369, 0.6734160
925.0190, 0.9083330
925.5011, 0.5180970
925.9832, 0.1169130
926.4653, 0.1200640
926.9474, 0.3664550
927.4296, 0.6845860
927.9117, 0.9872670
928.3938, 1.094978
928.8759, 0.8142320
929.3580, 0.5087280
929.8401, 0.8256610
930.3223, 1.298721
930.8044, 0.7977220
931.2865, 0.4746400
931.7686, 1.306969
932.2507, 1.212219
932.7328, 0.6264270
933.2150, 5.6632999E-02
933.6971, 0.6293790
934.1792, 2.284210
934.6613, 4.898964
935.1434, 6.136452
935.6255, 5.398453
936.1077, 4.355583
936.5898, 4.010132
937.0719, 4.250206
937.5540, 5.003105
938.0361, 6.590019
938.5182, 6.584656
939.0004, 3.558601
939.4825, 1.763069
939.9646, 3.307358
940.4467, 5.613564
940.9288, 6.366272
941.4109, 5.859901
941.8931, 5.303146
942.3752, 4.358231
942.8573, 4.131027
943.3394, 5.494514
943.8215, 6.659691
944.3036, 5.964066
944.7858, 4.941772
945.2679, 5.970192
945.7500, 9.071884
946.2321, 11.45657
946.7142, 11.41586
947.1964, 11.06091
947.6785, 11.39641
948.1606, 12.12303
948.6427, 13.13509
949.1248, 14.34342
949.6069, 15.68626
950.0891, 17.11926
950.5712, 18.33298
951.0533, 18.56175
951.5354, 18.67523
952.0175, 20.38049
952.4996, 23.20483
952.9818, 25.88336
953.4639, 28.20309
953.9460, 30.48021
954.4281, 32.89870
954.9102, 35.53201
955.3923, 38.52882
955.8745, 41.87238
956.3566, 45.23763
956.8387, 48.61865
957.3208, 52.27676
957.8029, 56.36994
958.2850, 60.38661
958.7672, 63.83287
959.2493, 66.84470
959.7314, 70.08961
960.2135, 73.90952
960.6956, 76.69569
961.1777, 78.02373
961.6599, 79.05455
962.1420, 80.37496
962.6241, 81.52734
963.1062, 82.22741
963.5883, 82.46654
964.0704, 80.83504
964.5526, 76.17113
965.0347, 71.44350
965.5168, 66.74603
965.9989, 62.21252
966.4810, 58.26334
966.9631, 54.37217
967.4453, 49.42603
967.9274, 43.21893
968.4095, 37.91039
968.8916, 34.60625
969.3737, 31.67565
969.8558, 28.32334
970.3380, 25.05141
970.8201, 22.33469
971.3022, 20.01226
971.7843, 18.02945
972.2664, 16.49844
972.7485, 14.97502
973.2307, 12.68399
973.7128, 10.52069
974.1949, 9.643105
974.6770, 9.395943
975.1591, 8.432442
975.6412, 6.850067
976.1234, 6.292778
976.6055, 7.780296
977.0876, 9.588470
977.5698, 9.837120
978.0519, 9.092728
978.5340, 7.872665
979.0161, 6.447090
979.4982, 5.908531
979.9803, 6.458870
980.4625, 6.811256
980.9446, 6.005295
981.4267, 4.769112
981.9088, 4.856400
982.3909, 6.002747
982.8730, 5.613922
983.3552, 3.489624
983.8373, 2.064476
984.3194, 2.294159
984.8015, 3.244240
985.2836, 4.005363
985.7657, 4.556190
986.2479, 4.842552
986.7300, 4.927322
987.2121, 4.313683
987.6942, 2.659889
988.1763, 1.166832
988.6584, 0.3478850
989.1406, 1.4732000E-02
989.6227, 0.1766590
990.1048, 8.0544002E-02
990.5869, 0.7045590
991.0690, 3.131691
991.5511, 4.340385
992.0333, 3.005890
992.5154, 1.650230
992.9975, 1.999886
993.4796, 2.960388
993.9617, 2.574417
994.4438, 0.6159590
994.9260, 0.2719270
995.4081, 0.9945070
995.8902, 2.065720
996.3723, 2.411568
996.8544, 2.450882
997.3365, 2.461342
997.8187, 2.380432
998.3008, 2.023857
998.7829, 1.341095
999.2650, 0.6377640
999.7471, 0.3925480
1000.229, 0.9332350
1000.711, 2.7470000E-03
1001.193, 1.110886
1001.676, 0.7402040
1002.158, 0.4847180
1002.640, 0.4351270
1003.122, 1.707870
1003.604, 3.127396
1004.086, 1.270241
1004.568, 0.9372940
1005.050, 1.182159
1005.533, 0.2777710
1006.015, 0.6875920
1006.497, 1.577797
1006.979, 2.813965
1007.461, 4.662582
1007.943, 6.046707
1008.425, 5.708893
1008.907, 4.603157
1009.389, 3.626877
1009.872, 2.965919
1010.354, 3.057411
1010.836, 3.834732
1011.318, 4.784500
1011.800, 5.680504
1012.282, 6.026009
1012.764, 4.353600
1013.246, 1.907608
1013.729, 2.479958
1014.211, 5.285255
1014.693, 7.065056
1015.175, 7.059021
1015.657, 6.140106
1016.139, 4.810486
1016.621, 3.705383
1017.103, 4.222885
1017.585, 5.929764
1018.068, 6.866249
1018.550, 7.028427
1019.032, 7.063194
1019.514, 7.152466
1019.996, 7.260826
1020.478, 7.334709
1020.960, 7.496117
1021.442, 8.111977
1021.924, 9.156212
1022.407, 9.982254
1022.889, 10.56469
1023.371, 10.97403
1023.853, 11.23099
1024.335, 11.32468
1024.817, 11.21972
1025.299, 10.99012
1025.781, 10.79101
1026.264, 10.55738
1026.746, 11.01063
1027.228, 12.37962
1027.710, 13.44643
1028.192, 13.73399
1028.674, 13.77566
1029.156, 14.06642
1029.638, 14.54459
1030.120, 14.87303
1030.603, 14.75306
1031.085, 15.73400
1031.567, 18.49921
1032.049, 20.66827
1032.531, 21.30027
1033.013, 21.21608
1033.495, 20.92416
1033.977, 20.64851
1034.459, 21.59084
1034.942, 24.48226
1035.424, 26.85188
1035.906, 28.53627
1036.388, 29.96235
1036.870, 31.34084
1037.352, 32.44072
1037.834, 32.79976
1038.316, 32.63216
1038.799, 33.23512
1039.281, 35.30688
1039.763, 36.80272
1040.245, 37.66387
1040.727, 38.12479
1041.209, 38.17795
1041.691, 37.82536
1042.173, 36.71094
1042.656, 35.12668
1043.138, 34.21747
1043.620, 34.33908
1044.102, 34.19479
1044.584, 34.16533
1045.066, 33.30140
1045.548, 30.38177
1046.030, 27.16718
1046.512, 25.63391
1046.995, 25.36011
1047.477, 24.12739
1047.959, 21.01687
1048.441, 18.57005
1048.923, 17.61266
1049.405, 16.83879
1049.887, 15.63204
1050.369, 14.41782
1050.851, 13.96750
1051.334, 13.94591
1051.816, 12.81902
1052.298, 9.533409
1052.780, 7.428047
1053.262, 8.068878
1053.744, 8.851433
1054.226, 8.707817
1054.708, 8.003532
1055.191, 6.821053
1055.673, 5.457939
1056.155, 4.786125
1056.637, 5.197701
1057.119, 5.576996
1057.601, 5.662941
1058.083, 5.494095
1058.565, 4.933075
1059.047, 4.410446
1059.530, 4.233856
1060.012, 4.408768
1060.494, 4.875114
1060.976, 5.757973
1061.458, 6.318840
1061.940, 6.055428
1062.422, 5.660767
1062.904, 5.721619
1063.386, 5.820457
1063.869, 4.989464
1064.351, 3.776756
1064.833, 3.998016
1065.315, 6.395653
1065.797, 8.008125
1066.279, 7.077950
1066.761, 5.831001
1067.243, 5.332863
1067.726, 5.059128
1068.208, 4.600182
1068.690, 3.820557
1069.172, 2.260124
1069.654, 0.2841570
1070.136, 1.741989
1070.618, 0.1020200
1071.100, 1.472771
1071.583, 0.9036330
1072.065, 0.1510620
1072.547, 0.1472090
1073.029, 0.6682740
1073.511, 1.493118
1073.993, 2.136185
1074.475, 2.786491
1074.957, 4.016769
1075.439, 4.654388
1075.922, 3.507271
1076.404, 2.049469
1076.886, 1.610344
1077.368, 1.842178
1077.850, 1.745354
1078.332, 1.229088
1078.814, 1.502441
1079.296, 4.134575
1079.779, 6.120918
1080.261, 5.631798
1080.743, 4.291634
1081.225, 2.887482
1081.707, 1.820168
1082.189, 1.587700
1082.671, 2.192787
1083.153, 3.074181
1083.635, 4.441109
1084.118, 5.247963
1084.600, 4.509392
1085.082, 3.611496
1085.564, 3.534683
1086.046, 3.893562
1086.528, 4.395744
1087.010, 4.831734
1087.492, 4.373688
1087.974, 2.172371
1088.457, 0.5898970
1088.939, 0.7818910
1089.421, 1.685410
1089.903, 3.348274
1090.385, 4.854622
1090.867, 5.009666
1091.349, 4.060905
1091.831, 3.218933
1092.314, 2.772949
1092.796, 2.580864
1093.278, 2.683762
1093.760, 2.922455
1094.242, 3.408699
1094.724, 3.811462
1095.206, 3.923874
1095.688, 3.694183
1096.171, 2.985764
1096.653, 1.695320
1097.135, 0.5547870
1097.617, 0.7610400
1098.099, 1.180229
1098.581, 1.024490
1099.063, 3.051552
1099.545, 1.835754
1100.027, 0.8816910
1100.510, 1.393265
1100.992, 0.8549120
1101.474, 2.586693
1101.956, 3.125145
1102.438, 2.964745
1102.920, 1.345894
1103.402, 1.3710000E-02
1103.884, 0.2597810
1104.366, 1.334824
1104.849, 2.175346
1105.331, 2.718307
1105.813, 3.398064
1106.295, 4.919579
1106.777, 5.566551
1107.259, 4.060959
1107.741, 2.885628
1108.223, 4.079933
1108.706, 5.474388
1109.188, 4.151665
1109.670, 0.7658620
1110.152, 0.8734660
1110.634, 0.3952560
1111.116, 1.242119
1111.598, 1.000641
1112.080, 0.9880910
1112.563, 1.782814
1113.045, 2.759689
1113.527, 3.647560
1114.009, 4.302452
1114.491, 4.310890
1114.973, 3.585503
1115.455, 2.555870
1115.937, 0.4673390
1116.419, 0.5742420
1116.901, 0.4096070
1117.384, 1.684563
1117.866, 2.350281
1118.348, 2.553032
1118.830, 2.439728
1119.312, 1.996811
1119.794, 2.077782
1120.276, 3.146606
1120.758, 3.284508
1121.241, 1.706528
1121.723, 0.5851440
1122.205, 1.230186
1122.687, 2.150024
1123.169, 1.384209
1123.651, 0.6242220
1124.133, 1.197922
1124.615, 4.0107999E-02
1125.098, 0.9306110
1125.580, 1.393593
1126.062, 1.460007
1126.544, 1.002121
1127.026, 0.6497960
1127.508, 0.9157330
1127.990, 1.552414
1128.472, 2.451736
1128.954, 3.554176
1129.437, 3.592697
1129.919, 2.462723
1130.401, 1.535561
1130.883, 1.052170
1131.365, 1.689369
1131.847, 4.054741
1132.329, 6.404373
1132.811, 5.783028
1133.293, 3.038757
1133.776, 2.534508
1134.258, 3.918167
1134.740, 3.664673
1135.222, 1.514214
1135.704, 0.1573790
1136.186, 0.3783950
1136.668, 0.2856450
1137.150, 1.502876
1137.633, 2.683128
1138.115, 2.270096
1138.597, 0.9081270
1139.079, 0.5031200
1139.561, 1.065384
1140.043, 2.518570
1140.525, 4.552216
1141.007, 5.360153
1141.490, 3.668091
1141.972, 1.208298
1142.454, 0.2854920
1142.936, 0.9542920
1143.418, 0.7998960
1143.900, 8.8036001E-02
1144.382, 0.9050140
1144.864, 1.934822
1145.346, 2.282326
1145.828, 1.683197
1146.311, 1.315872
1146.793, 2.470764
1147.275, 3.873604
1147.757, 4.268250
1148.239, 4.294800
1148.721, 4.899445
1149.203, 5.668564
1149.685, 5.646606
1150.168, 4.701759
1150.650, 3.393951
1151.132, 1.407784
1151.614, 0.4156490
1152.096, 2.149567
1152.578, 4.198212
1153.060, 4.866058
1153.542, 4.952202
1154.025, 5.672775
1154.507, 6.752457
1154.989, 6.907150
1155.471, 5.668236
1155.953, 4.293411
1156.435, 2.576332
1156.917, 1.625969
1157.399, 2.372192
1157.881, 3.362328
1158.364, 3.922958
1158.846, 4.163368
1159.328, 3.809921
1159.810, 2.834053
1160.292, 2.475143
1160.774, 3.190941
1161.256, 3.677353
1161.738, 3.713242
1162.220, 3.891502
1162.703, 4.721489
1163.185, 5.319504
1163.667, 4.587509
1164.149, 3.114319
1164.631, 3.027863
1165.113, 4.766190
1165.595, 5.090797
1166.077, 3.667900
1166.560, 2.089973
1167.042, 0.3969570
1167.524, 0.1686400
1168.006, 2.659637
1168.488, 5.732994
1168.970, 5.607910
1169.452, 2.949379
1169.934, 2.083015
1170.417, 2.868370
1170.899, 3.169991
1171.381, 2.820526
1171.863, 2.552429
1172.345, 2.619812
1172.827, 3.045723
1173.309, 3.823517
1173.791, 4.496437
1174.273, 4.510277
1174.755, 4.134590
1175.238, 3.794975
1175.720, 3.375877
1176.202, 2.184372
1176.684, 0.4538800
1177.166, 0.2887570
1177.648, 0.6004410
1178.130, 1.717224
1178.612, 1.529076
1179.095, 1.394630
1179.577, 3.194572
1180.059, 5.439056
1180.541, 6.435913
1181.023, 6.342468
1181.505, 5.434196
1181.987, 4.041023
1182.469, 3.344398
1182.952, 4.033890
1183.434, 4.436348
1183.916, 3.061172
1184.398, 2.106560
1184.880, 3.376205
1185.362, 5.149300
1185.844, 5.809921
1186.326, 5.580132
1186.808, 5.232559
1187.291, 4.822655
1187.773, 4.498634
1188.255, 4.342148
1188.737, 4.159782
1189.219, 3.932404
1189.701, 3.665352
1190.183, 2.983734
1190.665, 2.735573
1191.147, 4.079033
1191.630, 6.534737
1192.112, 8.121826
1192.594, 8.825096
1193.076, 8.673775
1193.558, 7.545532
1194.040, 5.907600
1194.522, 3.716324
1195.004, 2.258118
1195.487, 2.386429
1195.969, 3.284088
1196.451, 3.948860
1196.933, 4.297462
1197.415, 3.751610
1197.897, 2.558617
1198.379, 2.117752
1198.861, 2.478851
1199.344, 3.295082
1199.826, 4.375969
1200.308, 5.172226
1200.790, 5.366333
1201.272, 4.876976
1201.754, 2.932228
1202.236, 0.7485810
1202.718, 9.4887003E-02
1203.200, 0.1833190
1203.682, 1.804367
1204.165, 4.013580
1204.647, 4.787010
1205.129, 3.666824
1205.611, 2.871696
1206.093, 4.202820
1206.575, 5.079536
1207.057, 3.330956
1207.539, 1.665627
1208.022, 1.841064
1208.504, 3.062759
1208.986, 4.812820
1209.468, 6.588737
1209.950, 6.940125
1210.432, 5.300835
1210.914, 3.909920
1211.396, 2.584084
1211.879, 2.062027
1212.361, 2.703720
1212.843, 3.818436
1213.325, 5.406647
1213.807, 6.808311
1214.289, 7.247215
1214.771, 6.793930
1215.253, 5.551437
1215.735, 3.281212
1216.218, 2.685867
1216.700, 3.988411
1217.182, 4.590561
1217.664, 3.850586
1218.146, 3.364449
1218.628, 4.089554
1219.110, 5.363869
1219.592, 6.467255
1220.074, 7.307526
1220.557, 7.687378
1221.039, 7.607193
1221.521, 6.935318
1222.003, 5.836571
1222.485, 4.451935
1222.967, 3.044304
1223.449, 2.975754
1223.931, 5.316910
1224.414, 6.927322
1224.896, 4.470505
1225.378, 1.304382
1225.860, 0.7866360
1226.342, 1.422379
1226.824, 1.045532
1227.306, 4.672707
1227.788, 5.531883
1228.271, 3.280113
1228.753, 1.428978
1229.235, 0.9245380
1229.717, 0.4406360
1230.199, 0.9700930
1230.681, 1.244133
1231.163, 1.448845
1231.645, 3.846329
1232.127, 3.170967
1232.609, 0.9446180
1233.092, 3.9496999E-02
1233.574, 0.4353790
1234.056, 1.425873
1234.538, 3.079758
1235.020, 4.994957
1235.502, 7.227959
1235.984, 7.931717
1236.466, 6.423882
1236.949, 4.484947
1237.431, 3.472878
1237.913, 3.029999
1238.395, 2.758942
1238.877, 2.535103
1239.359, 1.800659
1239.841, 0.9646150
1240.323, 0.9957730
1240.806, 1.874527
1241.288, 3.415405
1241.770, 5.376915
1242.252, 6.549164
1242.734, 5.955544
1243.216, 5.176689
1243.698, 5.142403
1244.180, 5.343109
1244.662, 5.999214
1245.145, 6.229645
1245.627, 4.607269
1246.109, 2.051125
1246.591, 0.7536160
1247.073, 0.9999010
1247.555, 1.088478
1248.037, 0.3810730
1248.519, 0.6160430
1249.001, 2.633842
1249.484, 3.978790
1249.966, 3.657600
1250.448, 2.900604
1250.930, 2.629715
1251.412, 2.643517
1251.894, 2.510941
1252.376, 2.304657
1252.858, 2.736145
1253.341, 3.687561
1253.823, 3.929054
1254.305, 3.382874
1254.787, 3.503899
1255.269, 4.895088
1255.751, 5.836510
1256.233, 5.271576
1256.715, 3.852745
1257.198, 2.936836
1257.680, 2.322052
1258.162, 2.182915
1258.644, 2.433746
1259.126, 2.983727
1259.608, 3.679535
1260.090, 4.456619
1260.572, 5.204521
1261.054, 5.184067
1261.536, 3.532104
1262.019, 2.572067
1262.501, 3.571022
1262.983, 4.107895
1263.465, 3.190117
1263.947, 1.870544
1264.429, 0.3057170
1264.911, 0.7066730
1265.393, 0.3876880
1265.876, 3.164948
1266.358, 4.545433
1266.840, 4.449280
1267.322, 3.544464
1267.804, 1.881523
1268.286, 1.292725
1268.768, 2.141937
1269.250, 2.573364
1269.733, 1.552704
1270.215, 0.7066420
1270.697, 2.271141
1271.179, 4.313164
1271.661, 3.709419
1272.143, 2.087822
1272.625, 1.198364
1273.107, 1.383179
1273.589, 3.818764
1274.072, 7.213661
1274.554, 8.505943
1275.036, 5.937469
1275.518, 3.484062
1276.000, 1.846428
1276.482, 1.290192
1276.964, 3.300835
1277.446, 4.839844
1277.929, 4.231064
1278.411, 2.786728
1278.893, 1.257515
1279.375, 2.5581000E-02
1279.857, 3.6240000E-02
1280.339, 1.294823
1280.821, 2.779373
1281.303, 3.012863
1281.786, 2.278015
1282.268, 0.0000000E+00
##END=



