##NAMES=Voglite
##RRUFFID=R050663
##IDEAL CHEMISTRY=Ca_2_Cu^2+^(U^6+^O_2_)(CO_3_)_4_&#183;6H_2_O
##LOCALITY=White Canyon #1 mine, Frey Point, San Juan County, Utah, USA
##OWNER=RRUFF
##SOURCE=University of Arizona Mineral Museum
##DESCRIPTION=Green granular aggregate
##STATUS=The identification of this mineral is not yet confirmed.
##URL=rruff.info/R050663
156.136, 0.000
156.618, 35.297
157.100, 21.066
157.583, 10.434
158.065, 7.848
158.547, 41.586
159.029, 92.805
159.511, 149.344
159.993, 191.211
160.475, 171.914
160.957, 157.215
161.439, 186.449
161.922, 293.840
162.404, 393.160
162.886, 439.500
163.368, 444.512
163.850, 449.793
164.332, 475.395
164.814, 507.730
165.296, 536.504
165.779, 574.188
166.261, 593.473
166.743, 569.773
167.225, 508.105
167.707, 446.414
168.189, 409.723
168.671, 387.973
169.153, 368.230
169.635, 352.227
170.118, 334.227
170.600, 308.926
171.082, 276.477
171.564, 242.844
172.046, 204.242
172.528, 167.922
173.010, 147.230
173.492, 167.363
173.975, 198.488
174.457, 201.156
174.939, 165.887
175.421, 127.211
175.903, 122.891
176.385, 144.746
176.867, 165.934
177.349, 162.672
177.831, 149.449
178.314, 154.188
178.796, 188.148
179.278, 226.906
179.760, 223.023
180.242, 183.906
180.724, 168.734
181.206, 250.992
181.688, 392.012
182.171, 489.598
182.653, 507.969
183.135, 480.902
183.617, 464.340
184.099, 458.070
184.581, 454.152
185.063, 434.555
185.545, 406.672
186.027, 407.691
186.510, 471.406
186.992, 565.754
187.474, 595.852
187.956, 554.367
188.438, 494.066
188.920, 476.641
189.402, 498.262
189.884, 519.336
190.367, 529.949
190.849, 529.133
191.331, 504.188
191.813, 449.996
192.295, 388.898
192.777, 350.141
193.259, 334.648
193.741, 332.301
194.223, 353.309
194.706, 394.664
195.188, 393.797
195.670, 339.379
196.152, 258.414
196.634, 195.574
197.116, 151.480
197.598, 126.867
198.080, 125.770
198.562, 149.082
199.045, 179.574
199.527, 218.703
200.009, 262.980
200.491, 305.102
200.973, 347.172
201.455, 379.207
201.937, 388.078
202.419, 369.059
202.902, 362.824
203.384, 375.008
203.866, 402.750
204.348, 438.906
204.830, 486.656
205.312, 530.332
205.794, 549.230
206.276, 534.020
206.758, 537.121
207.241, 575.258
207.723, 643.801
208.205, 691.480
208.687, 714.926
209.169, 724.504
209.651, 733.711
210.133, 748.559
210.615, 746.547
211.098, 718.691
211.580, 665.102
212.062, 619.270
212.544, 575.035
213.026, 549.234
213.508, 573.051
213.990, 668.770
214.472, 746.910
214.954, 772.922
215.437, 735.879
215.919, 721.902
216.401, 733.551
216.883, 762.078
217.365, 794.500
217.847, 829.008
218.329, 864.988
218.811, 901.727
219.294, 939.965
219.776, 972.645
220.258, 1000.887
220.740, 1021.855
221.222, 1026.539
221.704, 1005.234
222.186, 987.152
222.668, 986.367
223.150, 1010.824
223.633, 1034.684
224.115, 1054.918
224.597, 1077.156
225.079, 1122.219
225.561, 1215.629
226.043, 1293.480
226.525, 1316.801
227.007, 1248.691
227.490, 1216.297
227.972, 1238.340
228.454, 1299.930
228.936, 1339.996
229.418, 1348.035
229.900, 1346.887
230.382, 1347.789
230.864, 1346.051
231.346, 1356.145
231.829, 1388.195
232.311, 1435.148
232.793, 1453.246
233.275, 1424.398
233.757, 1388.840
234.239, 1376.363
234.721, 1409.484
235.203, 1419.273
235.686, 1385.105
236.168, 1314.301
236.650, 1283.785
237.132, 1311.770
237.614, 1359.949
238.096, 1400.820
238.578, 1440.637
239.060, 1460.008
239.542, 1450.402
240.025, 1414.633
240.507, 1391.773
240.989, 1381.543
241.471, 1380.062
241.953, 1388.988
242.435, 1427.773
242.917, 1442.172
243.399, 1406.238
243.882, 1316.711
244.364, 1283.543
244.846, 1335.359
245.328, 1413.871
245.810, 1460.273
246.292, 1465.105
246.774, 1449.969
247.256, 1411.559
247.738, 1346.363
248.221, 1296.219
248.703, 1268.227
249.185, 1247.359
249.667, 1218.621
250.149, 1186.023
250.631, 1139.480
251.113, 1076.359
251.595, 996.352
252.077, 913.074
252.560, 821.781
253.042, 735.477
253.524, 667.270
254.006, 618.086
254.488, 592.000
254.970, 601.547
255.452, 656.527
255.934, 671.312
256.417, 628.055
256.899, 561.789
257.381, 519.285
257.863, 510.297
258.345, 502.227
258.827, 482.734
259.309, 447.883
259.791, 424.219
260.273, 413.059
260.756, 409.203
261.238, 400.918
261.720, 370.664
262.202, 371.945
262.684, 437.141
263.166, 583.672
263.648, 659.188
264.130, 638.926
264.612, 573.730
265.095, 542.316
265.577, 557.980
266.059, 571.117
266.541, 562.727
267.023, 530.070
267.505, 504.762
267.987, 491.562
268.470, 481.723
268.952, 460.266
269.434, 424.391
269.916, 389.395
270.398, 362.996
270.880, 346.719
271.362, 325.531
271.844, 295.477
272.326, 267.906
272.809, 265.746
273.291, 297.504
273.773, 320.797
274.255, 311.250
274.737, 266.098
275.219, 253.438
275.701, 287.043
276.183, 329.871
276.665, 313.633
277.148, 227.340
277.630, 150.910
278.112, 117.629
278.594, 127.559
279.076, 151.297
279.558, 192.121
280.040, 238.191
280.522, 271.727
281.004, 291.613
281.487, 306.543
281.969, 319.844
282.451, 331.020
282.933, 337.848
283.415, 340.066
283.897, 338.418
284.379, 334.328
284.862, 328.086
285.344, 318.684
285.826, 308.086
286.308, 295.055
286.790, 268.418
287.272, 225.410
287.754, 181.562
288.236, 154.078
288.718, 142.156
289.201, 139.848
289.683, 156.125
290.165, 182.035
290.647, 176.289
291.129, 134.406
291.611, 81.527
292.093, 46.867
292.575, 27.809
293.057, 9.559
293.540, 17.367
294.022, 47.906
294.504, 68.188
294.986, 77.102
295.468, 78.766
295.950, 69.180
296.432, 52.633
296.914, 47.414
297.397, 75.387
297.879, 114.594
298.361, 119.551
298.843, 86.918
299.325, 48.699
299.807, 38.609
300.289, 47.113
300.771, 50.324
301.253, 47.727
301.736, 31.727
302.218, 22.039
302.700, 113.375
303.182, 188.207
303.664, 167.336
304.146, 100.680
304.628, 71.965
305.110, 152.203
305.592, 263.531
306.075, 323.160
306.557, 334.352
307.039, 336.660
307.521, 347.602
308.003, 364.031
308.485, 373.750
308.967, 364.223
309.449, 361.246
309.931, 389.852
310.414, 445.293
310.896, 474.809
311.378, 428.707
311.860, 351.477
312.342, 288.215
312.824, 258.961
313.306, 242.094
313.789, 235.516
314.271, 237.207
314.753, 228.336
315.235, 183.867
315.717, 133.473
316.199, 102.234
316.681, 124.574
317.163, 139.070
317.645, 105.699
318.128, 37.848
318.610, 5.867
319.092, 74.711
319.574, 162.023
320.056, 212.824
320.538, 179.359
321.020, 154.527
321.502, 167.301
321.984, 206.980
322.467, 232.379
322.949, 210.852
323.431, 190.043
323.913, 194.098
324.395, 249.129
324.877, 295.809
325.359, 329.375
325.841, 350.797
326.323, 363.207
326.806, 369.199
327.288, 367.121
327.770, 355.594
328.252, 330.832
328.734, 301.516
329.216, 251.773
329.698, 199.980
330.180, 188.059
330.663, 258.156
331.145, 316.137
331.627, 326.527
332.109, 269.582
332.591, 226.359
333.073, 201.477
333.555, 187.785
334.037, 171.695
334.520, 144.410
335.002, 134.234
335.484, 160.859
335.966, 234.863
336.448, 256.219
336.930, 200.434
337.412, 123.949
337.894, 105.484
338.376, 159.504
338.859, 212.402
339.341, 241.328
339.823, 247.637
340.305, 262.852
340.787, 294.613
341.269, 312.832
341.751, 268.453
342.233, 157.512
342.716, 80.898
343.198, 80.430
343.680, 131.676
344.162, 137.848
344.644, 95.914
345.126, 45.113
345.608, 15.996
346.090, 8.504
346.572, 17.863
347.055, 48.871
347.537, 90.977
348.019, 126.934
348.501, 156.348
348.983, 174.004
349.465, 151.246
349.947, 112.328
350.429, 126.727
350.911, 226.453
351.394, 339.168
351.876, 367.645
352.358, 327.883
352.840, 291.754
353.322, 320.676
353.804, 372.570
354.286, 391.949
354.768, 366.473
355.250, 320.000
355.733, 259.906
356.215, 195.957
356.697, 146.973
357.179, 129.809
357.661, 125.844
358.143, 121.617
358.625, 116.266
359.108, 113.934
359.590, 131.820
360.072, 151.672
360.554, 146.320
361.036, 50.230
361.518, 25.391
362.000, 6.227
362.482, 118.383
362.964, 195.078
363.447, 115.250
363.929, 4.562
364.411, 58.344
364.893, 78.332
365.375, 174.219
365.857, 152.680
366.339, 19.676
366.821, 67.719
367.303, 54.504
367.786, 18.234
368.268, 6.219
368.750, 56.012
369.232, 79.367
369.714, 61.000
370.196, 10.207
370.678, 31.340
371.160, 60.496
371.642, 85.508
372.125, 110.773
372.607, 139.324
373.089, 158.816
373.571, 168.809
374.053, 168.367
374.535, 149.836
375.017, 99.402
375.499, 66.742
375.982, 78.855
376.464, 139.445
376.946, 178.520
377.428, 191.672
377.910, 190.484
378.392, 192.402
378.874, 198.324
379.356, 194.250
379.839, 171.996
380.321, 137.133
380.803, 115.547
381.285, 110.016
381.767, 101.203
382.249, 53.246
382.731, 18.781
383.213, 47.477
383.695, 5.172
384.177, 90.055
384.660, 118.590
385.142, 96.645
385.624, 76.547
386.106, 97.473
386.588, 142.012
387.070, 193.582
387.552, 254.402
388.034, 303.102
388.517, 306.652
388.999, 279.332
389.481, 263.543
389.963, 294.895
390.445, 337.805
390.927, 368.441
391.409, 386.664
391.891, 381.129
392.374, 318.832
392.856, 236.883
393.338, 188.543
393.820, 225.199
394.302, 271.676
394.784, 300.738
395.266, 311.414
395.748, 313.086
396.230, 311.258
396.713, 299.926
397.195, 273.996
397.677, 211.434
398.159, 156.965
398.641, 110.559
399.123, 73.277
399.605, 61.031
400.087, 91.156
400.569, 127.629
401.052, 152.473
401.534, 160.699
402.016, 167.305
402.498, 171.531
402.980, 173.910
403.462, 180.809
403.944, 198.590
404.427, 209.570
404.909, 202.289
405.391, 173.832
405.873, 165.637
406.355, 182.734
406.837, 209.266
407.319, 224.148
407.801, 227.348
408.283, 230.758
408.766, 240.387
409.248, 251.539
409.730, 242.023
410.212, 210.199
410.694, 183.305
411.176, 193.473
411.658, 228.707
412.140, 254.262
412.622, 261.949
413.105, 256.828
413.587, 229.367
414.069, 188.297
414.551, 172.469
415.033, 228.344
415.515, 310.781
415.997, 368.992
416.479, 390.258
416.961, 404.746
417.444, 442.809
417.926, 485.691
418.408, 500.621
418.890, 449.527
419.372, 384.426
419.854, 336.266
420.336, 309.879
420.818, 287.113
421.301, 246.793
421.783, 214.547
422.265, 215.441
422.747, 336.203
423.229, 415.000
423.711, 401.641
424.193, 311.293
424.675, 258.496
425.158, 299.035
425.640, 338.355
426.122, 325.840
426.604, 217.367
427.086, 145.199
427.568, 127.207
428.050, 140.676
428.532, 135.422
429.014, 97.535
429.496, 73.418
429.979, 83.102
430.461, 124.684
430.943, 163.559
431.425, 204.277
431.907, 225.324
432.389, 183.969
432.871, 85.262
433.353, 23.352
433.836, 31.129
434.318, 82.422
434.800, 127.211
435.282, 165.695
435.764, 197.625
436.246, 222.250
436.728, 241.133
437.210, 257.191
437.693, 272.988
438.175, 280.656
438.657, 263.453
439.139, 235.207
439.621, 217.848
440.103, 225.660
440.585, 240.723
441.067, 266.770
441.549, 310.027
442.032, 316.113
442.514, 193.496
442.996, 49.176
443.478, 18.812
443.960, 88.266
444.442, 195.316
444.924, 274.680
445.406, 324.473
445.888, 341.312
446.371, 292.645
446.853, 238.004
447.335, 200.363
447.817, 174.848
448.299, 181.875
448.781, 252.781
449.263, 338.777
449.746, 355.316
450.228, 265.984
450.710, 197.082
451.192, 192.020
451.674, 245.703
452.156, 267.613
452.638, 251.332
453.120, 223.352
453.602, 207.617
454.085, 203.109
454.567, 193.320
455.049, 171.195
455.531, 148.398
456.013, 157.754
456.495, 193.855
456.977, 213.086
457.459, 160.469
457.941, 84.422
458.424, 77.582
458.906, 155.555
459.388, 232.207
459.870, 223.930
460.352, 169.266
460.834, 129.469
461.316, 155.824
461.798, 181.898
462.280, 159.715
462.763, 96.742
463.245, 45.098
463.727, 34.086
464.209, 35.773
464.691, 30.398
465.173, 5.680
465.655, 14.383
466.137, 34.395
466.620, 113.371
467.102, 168.805
467.584, 194.625
468.066, 202.227
468.548, 186.379
469.030, 142.453
469.512, 124.605
469.994, 142.195
470.477, 171.117
470.959, 187.980
471.441, 187.773
471.923, 201.168
472.405, 237.363
472.887, 284.730
473.369, 322.172
473.851, 350.539
474.333, 346.711
474.815, 270.344
475.298, 150.148
475.780, 87.957
476.262, 95.000
476.744, 119.961
477.226, 105.441
477.708, 70.250
478.190, 54.539
478.672, 94.816
479.155, 143.418
479.637, 160.297
480.119, 149.371
480.601, 128.828
481.083, 79.172
481.565, 40.773
482.047, 48.609
482.529, 128.000
483.012, 202.520
483.494, 252.363
483.976, 281.246
484.458, 296.906
484.940, 283.414
485.422, 270.336
485.904, 263.750
486.386, 262.953
486.868, 259.383
487.351, 252.867
487.833, 243.633
488.315, 232.945
488.797, 223.188
489.279, 206.430
489.761, 178.941
490.243, 150.852
490.725, 149.230
491.207, 177.754
491.690, 193.531
492.172, 173.383
492.654, 125.898
493.136, 77.305
493.618, 26.199
494.100, 10.355
494.582, 1.637
495.065, 29.723
495.547, 33.391
496.029, 23.012
496.511, 80.508
496.993, 74.582
497.475, 25.246
497.957, 12.809
498.439, 9.504
498.921, 10.203
499.404, 37.355
499.886, 73.961
500.368, 92.355
500.850, 70.465
501.332, 33.832
501.814, 2.543
502.296, 23.461
502.778, 38.043
503.260, 26.242
503.743, 0.973
504.225, 16.562
504.707, 108.355
505.189, 180.566
505.671, 179.027
506.153, 90.145
506.635, 39.898
507.117, 33.754
507.599, 52.586
508.082, 83.363
508.564, 124.844
509.046, 148.684
509.528, 143.426
510.010, 122.293
510.492, 105.617
510.974, 94.684
511.456, 95.785
511.939, 126.586
512.421, 167.176
512.903, 191.262
513.385, 195.348
513.867, 189.605
514.349, 165.902
514.831, 140.887
515.313, 135.625
515.795, 169.449
516.278, 210.348
516.760, 256.172
517.242, 301.723
517.724, 325.996
518.206, 302.277
518.688, 275.070
519.170, 262.211
519.652, 265.262
520.135, 278.238
520.617, 307.039
521.099, 340.312
521.581, 353.891
522.063, 330.590
522.545, 367.754
523.027, 519.840
523.509, 731.684
523.992, 800.953
524.474, 723.637
524.956, 607.465
525.438, 505.691
525.920, 420.168
526.402, 349.184
526.884, 289.605
527.366, 265.492
527.848, 347.090
528.331, 473.379
528.813, 533.551
529.295, 417.801
529.777, 291.168
530.259, 276.395
530.741, 341.977
531.223, 370.199
531.705, 280.117
532.187, 171.598
532.670, 91.914
533.152, 50.844
533.634, 28.984
534.116, 36.168
534.598, 56.551
535.080, 78.195
535.562, 114.418
536.044, 124.688
536.526, 93.891
537.009, 36.777
537.491, 1.590
537.973, 10.012
538.455, 6.836
538.937, 15.250
539.419, 51.426
539.901, 65.695
540.383, 54.633
540.865, 41.875
541.348, 53.355
541.830, 80.438
542.312, 102.730
542.794, 99.562
543.276, 108.480
543.758, 189.074
544.240, 311.629
544.722, 394.586
545.205, 354.293
545.687, 302.723
546.169, 317.316
546.651, 412.949
547.133, 458.949
547.615, 373.977
548.097, 263.469
548.579, 207.160
549.062, 248.043
549.544, 276.020
550.026, 286.703
550.508, 283.203
550.990, 265.211
551.472, 222.637
551.954, 204.109
552.436, 246.336
552.919, 330.090
553.401, 332.844
553.883, 249.613
554.365, 150.715
554.847, 77.066
555.329, 39.121
555.811, 77.113
556.293, 221.652
556.775, 347.883
557.258, 304.477
557.740, 162.422
558.222, 55.070
558.704, 72.801
559.186, 110.035
559.668, 88.555
560.150, 23.117
560.632, 27.938
561.114, 236.496
561.597, 437.750
562.079, 517.238
562.561, 422.039
563.043, 348.754
563.525, 303.215
564.007, 273.145
564.489, 243.148
564.971, 208.414
565.453, 191.051
565.936, 201.090
566.418, 224.832
566.900, 218.141
567.382, 181.211
567.864, 157.781
568.346, 177.414
568.828, 226.441
569.310, 285.176
569.792, 352.816
570.275, 405.918
570.757, 424.348
571.239, 417.621
571.721, 395.109
572.203, 352.270
572.685, 307.348
573.167, 262.113
573.649, 220.832
574.132, 190.414
574.614, 180.867
575.096, 173.680
575.578, 162.801
576.060, 148.887
576.542, 144.895
577.024, 164.730
577.506, 175.035
577.989, 146.156
578.471, 69.535
578.953, 29.699
579.435, 35.938
579.917, 60.992
580.399, 68.977
580.881, 63.508
581.363, 64.512
581.846, 75.801
582.328, 98.535
582.810, 151.953
583.292, 222.762
583.774, 261.316
584.256, 222.336
584.738, 157.293
585.220, 85.594
585.703, 5.172
586.185, 36.895
586.667, 4.398
587.149, 72.941
587.631, 128.988
588.113, 171.215
588.595, 194.301
589.077, 186.176
589.559, 163.797
590.042, 161.531
590.524, 194.590
591.006, 202.102
591.488, 151.367
591.970, 66.934
592.452, 60.590
592.934, 134.633
593.416, 195.949
593.898, 160.699
594.381, 72.148
594.863, 24.770
595.345, 27.945
595.827, 42.828
596.309, 34.906
596.791, 22.160
597.273, 28.766
597.755, 92.945
598.237, 133.629
598.720, 99.145
599.202, 20.203
599.684, 34.832
600.166, 49.711
600.648, 45.371
601.130, 17.316
601.612, 32.074
602.094, 54.566
602.576, 33.402
603.059, 20.820
603.541, 64.863
604.023, 165.336
604.505, 208.777
604.987, 180.082
605.469, 140.957
605.951, 176.367
606.433, 260.699
606.916, 320.895
607.398, 327.055
607.880, 313.406
608.362, 309.574
608.844, 310.504
609.326, 303.691
609.808, 269.242
610.290, 238.426
610.773, 221.496
611.255, 219.238
611.737, 239.707
612.219, 323.902
612.701, 395.473
613.183, 411.848
613.665, 347.625
614.147, 307.988
614.630, 301.117
615.112, 306.844
615.594, 298.742
616.076, 277.449
616.558, 260.922
617.040, 254.648
617.522, 253.828
618.004, 249.613
618.486, 243.523
618.969, 241.477
619.451, 258.602
619.933, 271.789
620.415, 248.469
620.897, 191.742
621.379, 158.117
621.861, 178.922
622.343, 224.195
622.825, 279.594
623.308, 362.172
623.790, 406.973
624.272, 384.965
624.754, 346.402
625.236, 350.984
625.718, 418.941
626.200, 454.582
626.682, 439.566
627.164, 390.734
627.647, 334.910
628.129, 273.492
628.611, 222.965
629.093, 191.539
629.575, 175.969
630.057, 174.148
630.539, 185.367
631.021, 201.566
631.503, 228.852
631.986, 252.586
632.468, 264.102
632.950, 265.539
633.432, 241.438
633.914, 151.195
634.396, 53.844
634.878, 5.973
635.360, 38.684
635.843, 62.852
636.325, 67.996
636.807, 65.812
637.289, 85.367
637.771, 131.848
638.253, 152.406
638.735, 115.188
639.217, 51.027
639.700, 50.395
640.182, 103.773
640.664, 138.973
641.146, 87.934
641.628, 6.078
642.110, 45.246
642.592, 61.730
643.074, 62.031
643.557, 36.902
644.039, 10.148
644.521, 2.629
645.003, 11.359
645.485, 23.195
645.967, 37.598
646.449, 45.059
646.931, 32.289
647.413, 5.867
647.896, 43.039
648.378, 68.574
648.860, 93.625
649.342, 163.645
649.824, 272.727
650.306, 356.664
650.788, 368.195
651.270, 345.531
651.752, 346.055
652.235, 363.887
652.717, 375.879
653.199, 361.543
653.681, 344.598
654.163, 347.859
654.645, 384.645
655.127, 415.645
655.609, 426.223
656.091, 420.492
656.574, 406.129
657.056, 383.031
657.538, 361.789
658.020, 344.613
658.502, 330.957
658.984, 315.402
659.466, 294.816
659.948, 297.004
660.430, 350.195
660.913, 407.418
661.395, 354.254
661.877, 220.660
662.359, 128.938
662.841, 209.258
663.323, 313.750
663.805, 312.688
664.287, 207.055
664.770, 122.461
665.252, 106.230
665.734, 120.473
666.216, 147.109
666.698, 191.039
667.180, 224.676
667.662, 238.883
668.144, 251.977
668.627, 288.453
669.109, 350.289
669.591, 376.176
670.073, 345.648
670.555, 302.242
671.037, 322.699
671.519, 386.492
672.001, 431.254
672.484, 427.730
672.966, 402.203
673.448, 379.148
673.930, 354.301
674.412, 313.562
674.894, 223.672
675.376, 148.461
675.858, 120.301
676.340, 142.215
676.823, 165.707
677.305, 199.633
677.787, 224.875
678.269, 224.840
678.751, 196.285
679.233, 198.980
679.715, 237.738
680.197, 276.988
680.679, 274.555
681.162, 243.020
681.644, 213.961
682.126, 188.000
682.608, 178.938
683.090, 203.746
683.572, 250.281
684.054, 302.719
684.536, 373.426
685.018, 428.797
685.501, 458.605
685.983, 467.250
686.465, 466.730
686.947, 460.535
687.429, 440.270
687.911, 395.133
688.393, 336.586
688.875, 323.000
689.358, 357.609
689.840, 395.750
690.322, 408.645
690.804, 406.957
691.286, 414.234
691.768, 429.996
692.250, 442.293
692.732, 446.895
693.214, 440.727
693.697, 411.004
694.179, 341.500
694.661, 300.734
695.143, 317.918
695.625, 362.035
696.107, 409.977
696.589, 476.246
697.071, 508.254
697.554, 495.371
698.036, 459.891
698.518, 440.641
699.000, 436.492
699.482, 407.168
699.964, 327.176
700.446, 240.320
700.928, 209.055
701.411, 221.191
701.893, 238.594
702.375, 263.105
702.857, 266.195
703.339, 209.844
703.821, 107.105
704.303, 46.797
704.785, 104.199
705.268, 148.258
705.750, 126.754
706.232, 36.395
706.714, 20.535
707.196, 36.648
707.678, 45.523
708.160, 80.641
708.642, 131.145
709.124, 139.188
709.607, 98.695
710.089, 52.824
710.571, 27.242
711.053, 23.590
711.535, 54.203
712.017, 148.332
712.499, 202.812
712.981, 148.230
713.463, 44.289
713.946, 39.547
714.428, 110.895
714.910, 137.262
715.392, 93.332
715.874, 20.195
716.356, 2.531
716.838, 27.055
717.320, 65.836
717.802, 101.113
718.285, 136.859
718.767, 186.078
719.249, 245.445
719.731, 293.551
720.213, 317.953
720.695, 324.281
721.177, 304.273
721.659, 267.172
722.141, 261.797
722.624, 326.074
723.106, 400.383
723.588, 464.863
724.070, 520.504
724.552, 553.078
725.034, 551.344
725.516, 558.844
725.998, 621.852
726.481, 725.680
726.963, 783.145
727.445, 787.719
727.927, 782.270
728.409, 805.844
728.891, 841.676
729.373, 867.074
729.855, 871.801
730.338, 885.461
730.820, 922.160
731.302, 973.211
731.784, 1029.891
732.266, 1095.258
732.748, 1162.539
733.230, 1237.504
733.712, 1307.430
734.195, 1343.918
734.677, 1346.109
735.159, 1364.348
735.641, 1415.367
736.123, 1479.969
736.605, 1531.207
737.087, 1572.570
737.569, 1613.762
738.051, 1672.484
738.534, 1720.457
739.016, 1727.355
739.498, 1708.121
739.980, 1717.066
740.462, 1809.340
740.944, 1878.672
741.426, 1884.215
741.908, 1839.000
742.390, 1849.770
742.873, 1923.824
743.355, 2010.844
743.837, 2093.918
744.319, 2164.738
744.801, 2192.352
745.283, 2178.293
745.765, 2166.754
746.247, 2179.664
746.729, 2212.250
747.212, 2275.590
747.694, 2380.070
748.176, 2433.418
748.658, 2350.594
749.140, 2260.492
749.622, 2255.344
750.104, 2389.484
750.586, 2410.328
751.068, 2289.438
751.551, 2140.922
752.033, 2098.531
752.515, 2138.570
752.997, 2143.738
753.479, 2091.227
753.961, 2031.043
754.443, 2012.246
754.925, 2011.266
755.408, 1996.527
755.890, 1956.047
756.372, 1902.496
756.854, 1836.906
757.336, 1757.605
757.818, 1660.270
758.300, 1522.480
758.782, 1423.746
759.265, 1391.098
759.747, 1382.645
760.229, 1314.578
760.711, 1194.297
761.193, 1069.328
761.675, 963.957
762.157, 859.680
762.639, 709.297
763.122, 543.973
763.604, 437.277
764.086, 477.754
764.568, 520.090
765.050, 503.727
765.532, 442.531
766.014, 408.906
766.496, 412.816
766.978, 419.277
767.461, 422.000
767.943, 417.590
768.425, 388.258
768.907, 332.215
769.389, 267.547
769.871, 175.602
770.353, 95.121
770.835, 100.238
771.317, 182.105
771.800, 242.598
772.282, 207.262
772.764, 158.359
773.246, 145.582
773.728, 175.379
774.210, 186.605
774.692, 186.102
775.174, 161.719
775.656, 95.570
776.139, 7.836
776.621, 88.730
777.103, 147.160
777.585, 166.777
778.067, 101.918
778.549, 5.402
779.031, 46.375
779.513, 38.816
779.995, 38.973
780.478, 80.871
780.960, 137.504
781.442, 190.160
781.924, 242.207
782.406, 274.508
782.888, 281.215
783.370, 276.105
783.852, 266.320
784.335, 253.250
784.817, 257.348
785.299, 281.750
785.781, 317.406
786.263, 351.109
786.745, 392.520
787.227, 461.316
787.709, 583.586
788.192, 681.094
788.674, 696.133
789.156, 686.449
789.638, 716.422
790.120, 809.012
790.602, 884.914
791.084, 930.254
791.566, 970.047
792.049, 1044.527
792.531, 1146.469
793.013, 1241.273
793.495, 1318.754
793.977, 1387.801
794.459, 1444.402
794.941, 1500.793
795.423, 1575.840
795.905, 1705.195
796.388, 1818.297
796.870, 1884.574
797.352, 1931.543
797.834, 1998.992
798.316, 2090.652
798.798, 2193.238
799.280, 2305.953
799.762, 2430.125
800.245, 2573.383
800.727, 2731.309
801.209, 2879.668
801.691, 2997.012
802.173, 3123.766
802.655, 3290.898
803.137, 3492.438
803.619, 3716.973
804.101, 3980.707
804.584, 4242.836
805.066, 4490.773
805.548, 4733.617
806.030, 4996.379
806.512, 5283.480
806.994, 5560.918
807.476, 5807.660
807.958, 6054.535
808.440, 6374.152
808.923, 6750.348
809.405, 7129.176
809.887, 7460.547
810.369, 7810.855
810.851, 8227.227
811.333, 8692.406
811.815, 9165.934
812.297, 9667.586
812.779, 10144.867
813.262, 10572.797
813.744, 10972.211
814.226, 11410.566
814.708, 11889.570
815.190, 12365.594
815.672, 12825.516
816.154, 13264.250
816.636, 13650.145
817.119, 13999.105
817.601, 14352.867
818.083, 14815.887
818.565, 15222.480
819.047, 15475.918
819.529, 15602.977
820.011, 15736.691
820.493, 15907.652
820.976, 16025.953
821.458, 16067.582
821.940, 16036.375
822.422, 15976.750
822.904, 15887.559
823.386, 15762.832
823.868, 15579.332
824.350, 15379.539
824.833, 15214.500
825.315, 15075.191
825.797, 14925.625
826.279, 14740.906
826.761, 14556.387
827.243, 14379.320
827.725, 14206.336
828.207, 14023.727
828.689, 13822.941
829.172, 13651.688
829.654, 13554.355
830.136, 13476.707
830.618, 13294.156
831.100, 13023.879
831.582, 12734.062
832.064, 12442.684
832.546, 12156.152
833.028, 11886.668
833.511, 11626.844
833.993, 11347.043
834.475, 11030.844
834.957, 10722.891
835.439, 10443.918
835.921, 10186.715
836.403, 9907.188
836.885, 9602.598
837.367, 9314.125
837.850, 9082.137
838.332, 8861.125
838.814, 8587.207
839.296, 8277.762
839.778, 7993.930
840.260, 7796.762
840.742, 7588.305
841.224, 7318.199
841.706, 7010.238
842.189, 6754.113
842.671, 6564.715
843.153, 6355.766
843.635, 6087.879
844.117, 5793.723
844.599, 5551.477
845.081, 5347.086
845.563, 5133.637
846.046, 4865.445
846.528, 4600.113
847.010, 4389.223
847.492, 4208.578
847.974, 3982.824
848.456, 3642.426
848.938, 3356.328
849.420, 3174.023
849.903, 3055.844
850.385, 2891.004
850.867, 2684.484
851.349, 2490.496
851.831, 2342.195
852.313, 2198.070
852.795, 1990.500
853.277, 1753.859
853.760, 1551.715
854.242, 1433.734
854.724, 1321.820
855.206, 1180.355
855.688, 1039.453
856.170, 970.590
856.652, 995.824
857.134, 970.504
857.616, 847.344
858.099, 688.621
858.581, 578.586
859.063, 514.969
859.545, 493.383
860.027, 548.559
860.509, 584.547
860.991, 525.801
861.473, 422.715
861.955, 357.164
862.438, 355.750
862.920, 346.297
863.402, 321.070
863.884, 286.988
864.366, 257.234
864.848, 229.566
865.330, 185.809
865.812, 114.375
866.294, 51.410
866.777, 33.680
867.259, 42.781
867.741, 57.852
868.223, 98.840
868.705, 102.500
869.187, 46.410
869.669, 27.438
870.151, 78.953
870.633, 106.746
871.116, 121.273
871.598, 122.785
872.080, 113.527
872.562, 83.887
873.044, 49.805
873.526, 44.441
874.008, 88.230
874.490, 98.617
874.973, 17.258
875.455, 130.234
875.937, 116.820
876.419, 97.512
876.901, 151.082
877.383, 55.617
877.865, 3.609
878.347, 28.555
878.830, 83.348
879.312, 18.367
879.794, 24.453
880.276, 33.473
880.758, 56.066
881.240, 36.074
881.722, 42.203
882.204, 47.039
882.687, 58.340
883.169, 83.609
883.651, 98.879
884.133, 70.426
884.615, 18.910
885.097, 55.676
885.579, 173.062
886.061, 292.242
886.543, 399.156
887.026, 457.613
887.508, 405.805
887.990, 258.637
888.472, 166.637
888.954, 175.352
889.436, 202.160
889.918, 226.875
890.400, 248.098
890.882, 252.250
891.365, 241.188
891.847, 238.832
892.329, 246.926
892.811, 277.754
893.293, 371.711
893.775, 496.457
894.257, 569.258
894.739, 496.078
895.221, 453.410
895.704, 489.941
896.186, 563.895
896.668, 587.316
897.150, 558.512
897.632, 521.262
898.114, 483.898
898.596, 457.918
899.078, 477.258
899.560, 508.773
900.043, 496.512
900.525, 391.070
901.007, 298.797
901.489, 246.574
901.971, 223.641
902.453, 224.250
902.935, 253.836
903.417, 282.461
903.900, 312.320
904.382, 320.586
904.864, 248.074
905.346, 145.348
905.828, 115.363
906.310, 187.277
906.792, 247.855
907.274, 234.711
907.757, 199.254
908.239, 175.770
908.721, 164.391
909.203, 169.543
909.685, 195.660
910.167, 221.504
910.649, 233.598
911.131, 234.012
911.614, 227.586
912.096, 214.445
912.578, 192.551
913.060, 122.773
913.542, 75.566
914.024, 116.578
914.506, 232.031
914.988, 272.410
915.471, 217.320
915.953, 153.773
916.435, 109.574
916.917, 85.391
917.399, 94.418
917.881, 127.574
918.363, 150.988
918.845, 138.156
919.327, 122.961
919.810, 116.711
920.292, 123.672
920.774, 154.512
921.256, 226.969
921.738, 271.250
922.220, 264.426
922.702, 244.598
923.184, 270.098
923.666, 332.211
924.149, 416.344
924.631, 537.582
925.113, 618.762
925.595, 579.945
926.077, 495.734
926.559, 445.609
927.041, 449.246
927.523, 449.270
928.005, 448.914
928.488, 436.773
928.970, 387.293
929.452, 319.215
929.934, 297.145
930.416, 326.262
930.898, 367.242
931.380, 419.496
931.862, 450.867
932.344, 431.434
932.827, 365.102
933.309, 333.562
933.791, 348.523
934.273, 347.078
934.755, 310.164
935.237, 257.023
935.719, 187.648
936.201, 111.625
936.684, 75.410
937.166, 161.207
937.648, 252.031
938.130, 290.527
938.612, 289.930
939.094, 272.488
939.576, 236.809
940.058, 205.793
940.541, 180.672
941.023, 170.910
941.505, 200.766
941.987, 256.957
942.469, 303.469
942.951, 339.312
943.433, 344.570
943.915, 283.773
944.398, 200.477
944.880, 138.277
945.362, 105.023
945.844, 71.156
946.326, 31.375
946.808, 8.988
947.290, 45.184
947.772, 110.168
948.254, 124.066
948.737, 85.758
949.219, 44.441
949.701, 13.320
950.183, 0.402
950.665, 25.664
951.147, 80.871
951.629, 91.746
952.111, 46.141
952.593, 7.348
953.076, 2.719
953.558, 16.516
954.040, 25.840
954.522, 28.164
955.004, 17.281
955.486, 38.047
955.968, 73.789
956.450, 55.336
956.932, 8.289
957.415, 32.570
957.897, 66.348
958.379, 104.520
958.861, 152.613
959.343, 190.164
959.825, 183.949
960.307, 154.562
960.789, 135.359
961.271, 133.316
961.754, 131.898
962.236, 130.891
962.718, 125.105
963.200, 102.746
963.682, 60.023
964.164, 55.438
964.646, 93.172
965.128, 129.609
965.611, 133.852
966.093, 122.750
966.575, 114.238
967.057, 108.562
967.539, 105.379
968.021, 119.184
968.503, 116.867
968.985, 84.566
969.468, 37.652
969.950, 1.121
970.432, 23.363
970.914, 9.141
971.396, 64.004
971.878, 134.133
972.360, 121.332
972.842, 73.848
973.325, 52.539
973.807, 92.219
974.289, 108.652
974.771, 87.770
975.253, 58.715
975.735, 31.848
976.217, 12.008
976.699, 63.047
977.181, 179.969
977.664, 255.488
978.146, 161.453
978.628, 48.000
979.110, 19.258
979.592, 73.465
980.074, 142.664
980.556, 247.410
981.038, 304.492
981.520, 275.965
982.003, 204.617
982.485, 179.250
982.967, 185.223
983.449, 177.574
983.931, 128.375
984.413, 87.820
984.895, 87.141
985.377, 106.230
985.859, 122.227
986.342, 135.871
986.824, 148.125
987.306, 162.227
987.788, 159.957
988.270, 108.961
988.752, 37.820
989.234, 8.875
989.716, 29.148
990.198, 45.258
990.681, 91.438
991.163, 103.125
991.645, 35.258
992.127, 83.996
992.609, 113.332
993.091, 55.406
993.573, 3.391
994.055, 5.789
994.538, 3.406
995.020, 17.820
995.502, 29.488
995.984, 25.711
996.466, 29.926
996.948, 50.156
997.430, 24.602
997.912, 23.000
998.394, 80.820
998.877, 142.391
999.359, 163.863
999.841, 142.344
1000.323, 126.789
1000.805, 161.262
1001.287, 205.086
1001.769, 226.215
1002.251, 225.402
1002.734, 247.332
1003.216, 308.129
1003.698, 333.137
1004.180, 286.859
1004.662, 202.141
1005.144, 107.492
1005.626, 27.625
1006.108, 24.836
1006.591, 207.734
1007.073, 340.246
1007.555, 295.281
1008.037, 200.004
1008.519, 173.258
1009.001, 223.348
1009.483, 243.797
1009.965, 227.738
1010.447, 200.109
1010.930, 177.664
1011.412, 161.660
1011.894, 159.023
1012.376, 167.754
1012.858, 154.840
1013.340, 84.840
1013.822, 36.621
1014.304, 46.129
1014.786, 89.195
1015.269, 94.734
1015.751, 69.035
1016.233, 42.266
1016.715, 15.922
1017.197, 9.434
1017.679, 71.871
1018.161, 141.234
1018.643, 139.449
1019.126, 33.648
1019.608, 39.762
1020.090, 80.090
1020.572, 89.004
1021.054, 59.488
1021.536, 3.445
1022.018, 77.953
1022.500, 175.957
1022.983, 230.535
1023.465, 161.457
1023.947, 112.453
1024.429, 130.801
1024.911, 193.500
1025.393, 246.055
1025.875, 287.988
1026.357, 318.668
1026.839, 341.148
1027.322, 341.496
1027.804, 281.059
1028.286, 204.133
1028.768, 159.016
1029.250, 140.297
1029.732, 11.453
1030.214, 135.531
1030.696, 198.102
1031.178, 202.469
1031.661, 25.039
1032.143, 47.230
1032.625, 0.637
1033.107, 10.848
1033.589, 43.488
1034.071, 103.117
1034.553, 185.430
1035.035, 263.551
1035.518, 279.184
1036.000, 227.582
1036.482, 201.598
1036.964, 219.398
1037.446, 249.586
1037.928, 263.086
1038.410, 267.496
1038.892, 268.602
1039.375, 264.109
1039.857, 274.051
1040.339, 312.234
1040.821, 336.133
1041.303, 313.055
1041.785, 268.246
1042.267, 293.422
1042.749, 366.609
1043.231, 403.672
1043.714, 353.594
1044.196, 276.930
1044.678, 163.398
1045.160, 58.160
1045.642, 20.785
1046.124, 56.625
1046.606, 123.215
1047.088, 221.402
1047.570, 303.762
1048.053, 307.965
1048.535, 283.125
1049.017, 288.926
1049.499, 332.531
1049.981, 357.000
1050.463, 333.379
1050.945, 328.258
1051.427, 366.723
1051.910, 429.012
1052.392, 462.684
1052.874, 481.688
1053.356, 534.844
1053.838, 661.004
1054.320, 760.801
1054.802, 775.719
1055.284, 754.789
1055.766, 731.387
1056.249, 699.809
1056.731, 698.156
1057.213, 726.223
1057.695, 775.590
1058.177, 873.750
1058.659, 964.199
1059.141, 974.156
1059.623, 926.406
1060.105, 900.078
1060.588, 918.488
1061.070, 937.363
1061.552, 950.277
1062.034, 966.352
1062.516, 1005.336
1062.998, 1056.477
1063.480, 1087.098
1063.962, 1089.586
1064.445, 1112.098
1064.927, 1203.418
1065.409, 1294.469
1065.891, 1350.906
1066.373, 1376.586
1066.855, 1391.801
1067.337, 1397.582
1067.819, 1417.426
1068.302, 1460.352
1068.784, 1522.055
1069.266, 1618.973
1069.748, 1723.312
1070.230, 1791.660
1070.712, 1787.258
1071.194, 1822.383
1071.676, 1906.367
1072.158, 1995.426
1072.641, 2051.402
1073.123, 2085.395
1073.605, 2110.648
1074.087, 2130.684
1074.569, 2162.664
1075.051, 2225.203
1075.533, 2286.133
1076.015, 2339.348
1076.498, 2385.984
1076.980, 2435.789
1077.462, 2483.625
1077.944, 2480.207
1078.426, 2411.898
1078.908, 2360.094
1079.390, 2391.590
1079.872, 2455.715
1080.354, 2518.855
1080.837, 2579.516
1081.319, 2643.672
1081.801, 2710.750
1082.283, 2782.027
1082.765, 2865.188
1083.247, 2939.914
1083.729, 2964.309
1084.211, 2964.445
1084.693, 2986.051
1085.176, 3072.969
1085.658, 3123.609
1086.140, 3132.871
1086.622, 3108.062
1087.104, 3047.598
1087.586, 2959.105
1088.068, 2868.520
1088.550, 2772.230
1089.033, 2668.977
1089.515, 2553.383
1089.997, 2436.301
1090.479, 2310.102
1090.961, 2194.910
1091.443, 2127.348
1091.925, 2105.691
1092.407, 2109.992
1092.890, 2144.855
1093.372, 2141.449
1093.854, 1987.281
1094.336, 1809.742
1094.818, 1728.711
1095.300, 1749.520
1095.782, 1716.477
1096.264, 1615.086
1096.746, 1522.797
1097.229, 1467.508
1097.711, 1434.402
1098.193, 1417.281
1098.675, 1402.820
1099.157, 1366.711
1099.639, 1283.238
1100.121, 1225.949
1100.603, 1218.141
1101.085, 1202.609
1101.568, 1122.371
1102.050, 1002.953
1102.532, 945.098
1103.014, 937.598
1103.496, 924.578
1103.978, 869.707
1104.460, 815.312
1104.942, 777.891
1105.425, 745.234
1105.907, 694.688
1106.389, 627.801
1106.871, 590.031
1107.353, 587.328
1107.835, 588.371
1108.317, 580.082
1108.799, 557.238
1109.281, 508.695
1109.764, 440.430
1110.246, 387.203
1110.728, 352.121
1111.210, 332.617
1111.692, 330.602
1112.174, 328.957
1112.656, 297.941
1113.138, 257.348
1113.620, 237.746
1114.103, 252.926
1114.585, 252.812
1115.067, 226.762
1115.549, 204.930
1116.031, 209.414
1116.513, 221.375
1116.995, 182.602
1117.477, 116.590
1117.960, 84.285
1118.442, 158.605
1118.924, 187.648
1119.406, 115.434
1119.888, 28.574
1120.370, 4.809
1120.852, 34.488
1121.334, 54.391
1121.817, 63.270
1122.299, 59.445
1122.781, 20.000
1123.263, 6.941
1123.745, 19.656
1124.227, 67.422
1124.709, 79.516
1125.191, 54.277
1125.673, 46.164
1126.156, 61.953
1126.638, 90.488
1127.120, 136.223
1127.602, 178.004
1128.084, 191.656
1128.566, 179.391
1129.048, 185.203
1129.530, 212.812
1130.012, 228.961
1130.495, 216.418
1130.977, 208.285
1131.459, 271.703
1131.941, 352.715
1132.423, 374.449
1132.905, 307.164
1133.387, 259.344
1133.869, 243.348
1134.352, 230.906
1134.834, 208.625
1135.316, 183.844
1135.798, 174.074
1136.280, 174.324
1136.762, 171.465
1137.244, 167.281
1137.726, 148.598
1138.208, 100.004
1138.691, 58.820
1139.173, 55.305
1139.655, 83.043
1140.137, 119.875
1140.619, 161.613
1141.101, 189.363
1141.583, 178.625
1142.065, 169.766
1142.547, 182.082
1143.030, 195.320
1143.512, 189.555
1143.994, 164.523
1144.476, 102.824
1144.958, 3.793
1145.440, 75.539
1145.922, 82.883
1146.404, 68.535
1146.887, 51.496
1147.369, 36.250
1147.851, 38.273
1148.333, 55.371
1148.815, 61.367
1149.297, 51.527
1149.779, 26.676
1150.261, 24.035
1150.744, 77.180
1151.226, 110.332
1151.708, 120.801
1152.190, 131.688
1152.672, 143.234
1153.154, 140.652
1153.636, 111.109
1154.118, 81.191
1154.600, 83.047
1155.083, 105.918
1155.565, 142.551
1156.047, 206.883
1156.529, 212.062
1157.011, 129.629
1157.493, 92.062
1157.975, 211.816
1158.457, 378.852
1158.939, 399.266
1159.422, 328.941
1159.904, 278.879
1160.386, 310.961
1160.868, 306.949
1161.350, 249.039
1161.832, 184.090
1162.314, 146.977
1162.796, 131.145
1163.279, 129.969
1163.761, 136.668
1164.243, 127.262
1164.725, 64.219
1165.207, 28.273
1165.689, 41.621
1166.171, 70.820
1166.653, 87.996
1167.135, 90.488
1167.618, 57.680
1168.100, 6.578
1168.582, 59.391
1169.064, 86.453
1169.546, 87.574
1170.028, 60.016
1170.510, 14.715
1170.992, 36.137
1171.474, 89.152
1171.957, 126.395
1172.439, 143.934
1172.921, 161.414
1173.403, 187.758
1173.885, 218.277
1174.367, 248.312
1174.849, 280.559
1175.331, 345.312
1175.814, 429.949
1176.296, 419.133
1176.778, 262.344
1177.260, 128.422
1177.742, 150.082
1178.224, 214.586
1178.706, 248.699
1179.188, 256.090
1179.671, 261.820
1180.153, 266.344
1180.635, 275.027
1181.117, 293.207
1181.599, 307.066
1182.081, 290.961
1182.563, 277.523
1183.045, 307.066
1183.527, 380.941
1184.010, 383.629
1184.492, 315.500
1184.974, 256.633
1185.456, 243.066
1185.938, 258.613
1186.420, 327.113
1186.902, 397.793
1187.384, 399.266
1187.867, 313.691
1188.349, 256.242
1188.831, 227.234
1189.313, 217.645
1189.795, 244.039
1190.277, 266.887
1190.759, 243.523
1191.241, 196.629
1191.724, 171.984
1192.206, 177.207
1192.688, 173.684
1193.170, 158.293
1193.652, 148.723
1194.134, 161.305
1194.616, 183.688
1195.098, 219.762
1195.580, 253.996
1196.063, 237.605
1196.545, 145.809
1197.027, 118.812
1197.509, 180.988
1197.991, 237.023
1198.473, 172.391
1198.955, 76.059
1199.437, 23.910
1199.919, 19.836
1200.402, 53.062
1200.884, 137.109
1201.366, 193.934
1201.848, 207.926
1202.330, 205.426
1202.812, 207.453
1203.294, 208.422
1203.776, 225.602
1204.259, 254.121
1204.741, 210.574
1205.223, 64.477
1205.705, 23.773
1206.187, 7.152
1206.669, 50.520
1207.151, 79.262
1207.633, 102.203
1208.115, 158.020
1208.598, 251.016
1209.080, 288.797
1209.562, 256.195
1210.044, 230.051
1210.526, 237.418
1211.008, 256.285
1211.490, 265.684
1211.972, 266.125
1212.454, 253.242
1212.937, 222.332
1213.419, 216.387
1213.901, 242.395
1214.383, 258.633
1214.865, 244.219
1215.347, 220.074
1215.829, 205.715
1216.311, 202.211
1216.794, 215.777
1217.276, 254.707
1217.758, 277.145
1218.240, 286.379
1218.722, 262.715
1219.204, 173.367
1219.686, 80.930
1220.168, 68.527
1220.651, 100.816
1221.133, 129.148
1221.615, 152.484
1222.097, 144.145
1222.579, 97.168
1223.061, 61.977
1223.543, 78.641
1224.025, 110.922
1224.507, 115.230
1224.990, 106.430
1225.472, 111.035
1225.954, 134.801
1226.436, 148.359
1226.918, 152.805
1227.400, 153.895
1227.882, 161.820
1228.364, 165.066
1228.846, 125.465
1229.329, 78.156
1229.811, 101.562
1230.293, 232.785
1230.775, 282.191
1231.257, 238.820
1231.739, 207.711
1232.221, 310.285
1232.703, 417.547
1233.186, 395.398
1233.668, 302.043
1234.150, 255.848
1234.632, 270.879
1235.114, 259.684
1235.596, 215.402
1236.078, 190.301
1236.560, 246.066
1237.042, 314.422
1237.525, 355.551
1238.007, 364.230
1238.489, 327.633
1238.971, 236.418
1239.453, 215.977
1239.935, 277.227
1240.417, 323.652
1240.899, 254.883
1241.381, 174.102
1241.864, 156.676
1242.346, 177.703
1242.828, 185.523
1243.310, 180.582
1243.792, 183.312
1244.274, 195.625
1244.756, 218.180
1245.238, 265.414
1245.721, 303.117
1246.203, 305.426
1246.685, 285.625
1247.167, 258.312
1247.649, 226.648
1248.131, 251.094
1248.613, 331.500
1249.095, 393.867
1249.578, 365.496
1250.060, 311.711
1250.542, 249.672
1251.024, 195.871
1251.506, 183.660
1251.988, 208.395
1252.470, 250.965
1252.952, 309.820
1253.434, 337.980
1253.917, 277.188
1254.399, 226.371
1254.881, 228.582
1255.363, 248.004
1255.845, 196.434
1256.327, 109.711
1256.809, 114.312
1257.291, 224.352
1257.773, 309.844
1258.256, 303.602
1258.738, 274.426
1259.220, 226.109
1259.702, 182.102
1260.184, 198.770
1260.666, 246.125
1261.148, 254.395
1261.630, 214.516
1262.113, 183.566
1262.595, 196.590
1263.077, 177.328
1263.559, 96.477
1264.041, 1.719
1264.523, 31.887
1265.005, 29.031
1265.487, 24.582
1265.969, 22.383
1266.452, 14.578
1266.934, 3.504
1267.416, 22.211
1267.898, 65.691
1268.380, 122.918
1268.862, 210.930
1269.344, 293.457
1269.826, 312.035
1270.308, 260.977
1270.791, 266.938
1271.273, 343.652
1271.755, 390.312
1272.237, 373.496
1272.719, 348.777
1273.201, 386.160
1273.683, 432.879
1274.165, 428.324
1274.648, 384.758
1275.130, 394.836
1275.612, 460.340
1276.094, 513.328
1276.576, 542.434
1277.058, 537.062
1277.540, 437.613
1278.022, 317.035
1278.505, 278.367
1278.987, 298.703
1279.469, 277.238
1279.951, 217.250
1280.433, 182.629
1280.915, 191.695
1281.397, 196.422
1281.879, 149.609
1282.361, 115.191
1282.844, 130.305
1283.326, 167.301
1283.808, 150.070
1284.290, 94.195
1284.772, 51.930
1285.254, 32.793
1285.736, 25.793
1286.218, 38.582
1286.700, 42.133
1287.183, 18.871
1287.665, 1.629
1288.147, 49.352
1288.629, 127.836
1289.111, 137.086
1289.593, 40.887
1290.075, 0.164
1290.557, 0.000
##END=



