##NAMES=Warwickite
##RRUFFID=R050674
##IDEAL CHEMISTRY=(Mg,Ti^4+^,Fe^3+^,Cr^3+^,Al)_2_O(BO_3_)
##LOCALITY=Edenville, Orange County, New York, USA
##OWNER=RRUFF
##SOURCE=University of Arizona Mineral Museum
##DESCRIPTION=Black prismatic crystals embedded in matrix
##STATUS=The identification of this mineral has been confirmed by X-ray diffraction and chemical analysis
##URL=rruff.info/R050674
##MEASURED CHEMISTRY=(Mg_1.23_Ti_0.39_Fe^2+^_0.17_Al_0.19_Fe^3+^_0.02_)_Î£=2_O(BO_3_) ; B not measured but estimated by difference and charge balance
150.6730, 0.0000000E+00
151.1551, 0.1388550
151.6372, 0.1342070
152.1194, 1.8461000E-02
152.6015, 0.1276360
153.0836, 0.7634200
153.5657, 1.163172
154.0478, 1.180305
154.5300, 1.030424
155.0121, 0.9185010
155.4942, 0.8964670
155.9763, 0.9067920
156.4584, 0.8610440
156.9405, 0.7571930
157.4227, 0.6515350
157.9048, 0.5103400
158.3869, 0.3793240
158.8690, 0.3826600
159.3511, 0.6197430
159.8332, 0.8935490
160.3154, 0.9515800
160.7975, 0.7915170
161.2796, 0.6093730
161.7617, 0.5113720
162.2438, 0.4951310
162.7259, 0.5333270
163.2081, 0.6879810
163.6902, 0.8387850
164.1723, 0.8696800
164.6544, 0.7725120
165.1365, 0.6750180
165.6186, 0.7516350
166.1008, 1.065563
166.5829, 1.264994
167.0650, 1.159758
167.5471, 1.009735
168.0292, 0.9897840
168.5113, 1.139769
168.9935, 1.350822
169.4756, 1.434011
169.9577, 1.295467
170.4398, 1.204758
170.9219, 1.222300
171.4040, 1.267151
171.8862, 1.274958
172.3683, 1.223202
172.8504, 1.131336
173.3325, 1.045626
173.8146, 0.9834580
174.2967, 0.9114020
174.7789, 0.8658730
175.2610, 0.8424050
175.7431, 0.8414130
176.2252, 0.8640380
176.7073, 0.9028700
177.1894, 0.9201760
177.6716, 0.8982470
178.1537, 0.9087070
178.6358, 0.9336300
179.1179, 0.9632630
179.6000, 0.9449060
180.0822, 0.8387780
180.5643, 0.6896130
181.0464, 0.6128690
181.5285, 0.6193350
182.0106, 0.6727620
182.4927, 0.7950900
182.9749, 0.9651390
183.4570, 1.086426
183.9391, 1.107113
184.4212, 1.046602
184.9033, 0.9578360
185.3854, 0.8013860
185.8676, 0.6848200
186.3497, 0.7421490
186.8318, 0.9799960
187.3139, 1.158247
187.7960, 1.135069
188.2781, 1.004784
188.7603, 0.8629610
189.2424, 0.7254120
189.7245, 0.5856720
190.2066, 0.4064640
190.6887, 0.1515790
191.1708, 6.2079998E-03
191.6530, 3.3985000E-02
192.1351, 0.1767730
192.6172, 0.3690010
193.0993, 0.6049400
193.5814, 0.8352790
194.0635, 0.9534050
194.5457, 0.9589710
195.0278, 0.8416820
195.5099, 0.4584520
195.9920, 3.6329001E-02
196.4741, 0.1849960
196.9562, 9.2684001E-02
197.4384, 0.2096880
197.9205, 0.4256530
198.4026, 0.5159590
198.8847, 0.5544820
199.3668, 0.5252510
199.8489, 0.4626100
200.3311, 0.4128880
200.8132, 0.4033760
201.2953, 0.4190410
201.7774, 0.3828050
202.2595, 0.1668150
202.7417, 6.2997997E-02
203.2238, 0.1750790
203.7059, 0.3720090
204.1880, 0.4515860
204.6701, 0.3152100
205.1522, 6.2469998E-03
205.6344, 0.1364970
206.1165, 1.7588001E-02
206.5986, 0.1484580
207.0807, 0.2336440
207.5628, 0.2903000
208.0449, 0.3258860
208.5271, 0.3457950
209.0092, 0.3486880
209.4913, 0.3204500
209.9734, 0.1385960
210.4555, 7.4208997E-02
210.9376, 0.3289570
211.4198, 0.7891710
211.9019, 1.137148
212.3840, 1.195202
212.8661, 1.044821
213.3482, 0.9315970
213.8303, 0.8465080
214.3125, 0.7962380
214.7946, 0.8291470
215.2767, 0.9223790
215.7588, 0.9363420
216.2409, 0.7615220
216.7230, 0.5082470
217.2052, 0.3741820
217.6873, 0.3871460
218.1694, 0.4522210
218.6515, 0.5149780
219.1336, 0.5767560
219.6157, 0.6455690
220.0979, 0.7537040
220.5800, 0.8481670
221.0621, 0.8626310
221.5442, 0.7750910
222.0263, 0.6678030
222.5084, 0.6079540
222.9906, 0.5951160
223.4727, 0.6407150
223.9548, 0.8543530
224.4369, 1.062006
224.9190, 1.112434
225.4011, 0.9719450
225.8833, 0.7780820
226.3654, 0.7108290
226.8475, 0.8103710
227.3296, 0.8434520
227.8117, 0.6586890
228.2939, 0.4576440
228.7760, 0.3691080
229.2581, 0.4184890
229.7402, 0.5389440
230.2223, 0.6613640
230.7044, 0.8123070
231.1866, 0.8767700
231.6687, 0.7808990
232.1508, 0.6443370
232.6329, 0.5235610
233.1150, 0.4355680
233.5971, 0.3820420
234.0793, 0.3781890
234.5614, 0.4714660
235.0435, 0.4940530
235.5256, 0.3438760
236.0077, 0.2028620
236.4898, 0.1988980
236.9720, 0.3459420
237.4541, 0.5571020
237.9362, 0.7140310
238.4183, 0.7918380
238.9004, 0.8666400
239.3825, 0.9729900
239.8647, 1.054035
240.3468, 1.054482
240.8289, 0.9754350
241.3110, 0.8785460
241.7931, 0.8443760
242.2752, 0.9217070
242.7574, 0.9150030
243.2395, 0.7498150
243.7216, 0.5772250
244.2037, 0.4721660
244.6858, 0.4422610
245.1679, 0.4726470
245.6501, 0.5559160
246.1322, 0.7314700
246.6143, 0.7750490
247.0964, 0.5529380
247.5785, 0.3138980
248.0606, 0.2321050
248.5428, 0.3157900
249.0249, 0.4560570
249.5070, 0.5636390
249.9891, 0.6383460
250.4712, 0.6231020
250.9533, 0.4277290
251.4355, 0.2185900
251.9176, 0.1163850
252.3997, 0.1210160
252.8818, 0.1395950
253.3639, 8.7320000E-02
253.8461, 3.6022000E-02
254.3282, 0.1016240
254.8103, 7.8125000E-02
255.2924, 4.7500001E-04
255.7745, 0.1654260
256.2566, 0.3988590
256.7387, 0.5282250
257.2209, 0.3864270
257.7030, 2.0448999E-02
258.1851, 0.2030470
258.6672, 0.1736280
259.1493, 9.1026001E-02
259.6314, 0.1069050
260.1136, 0.2094020
260.5957, 0.2744770
261.0778, 0.2239630
261.5599, 7.5413004E-02
262.0420, 9.1007002E-02
262.5241, 0.3481660
263.0063, 0.5342480
263.4884, 0.4700280
263.9705, 0.2033200
264.4526, 3.8870000E-03
264.9348, 1.8500000E-04
265.4169, 0.1264040
265.8990, 0.1922700
266.3811, 0.1766590
266.8632, 0.1410710
267.3453, 0.1259020
267.8275, 0.1284050
268.3096, 0.1325800
268.7917, 0.1410010
269.2738, 0.1430340
269.7559, 0.1136990
270.2380, 4.0293001E-02
270.7202, 3.3249999E-03
271.2023, 0.1115210
271.6844, 0.3331450
272.1665, 0.4418560
272.6486, 0.3234980
273.1307, 0.1280880
273.6129, 4.0420000E-03
274.0950, 7.3123999E-02
274.5771, 9.2991002E-02
275.0592, 4.6505000E-02
275.5413, 5.2216001E-02
276.0234, 0.1144980
276.5056, 0.1108380
276.9877, 9.9105999E-02
277.4698, 0.1240060
277.9519, 0.1876890
278.4340, 0.2601260
278.9161, 0.3465600
279.3983, 0.4335540
279.8804, 0.4424550
280.3625, 0.2957730
280.8446, 0.1889740
281.3267, 0.2697370
281.8088, 0.4757230
282.2910, 0.6629540
282.7731, 0.7545470
283.2552, 0.7675950
283.7373, 0.7550750
284.2194, 0.7094900
284.7015, 0.6505390
285.1837, 0.5867420
285.6658, 0.5172500
286.1479, 0.4376140
286.6300, 0.3401660
287.1121, 0.2381170
287.5942, 0.1529770
288.0764, 6.7116000E-02
288.5585, 4.2645000E-02
289.0406, 0.1291160
289.5227, 0.2712270
290.0048, 0.4302810
290.4869, 0.6068230
290.9691, 0.7489510
291.4512, 0.7377450
291.9333, 0.5004500
292.4154, 0.3451580
292.8975, 0.4732630
293.3796, 0.6418340
293.8618, 0.6365550
294.3439, 0.4040780
294.8260, 0.1249790
295.3081, 6.2445000E-02
295.7902, 0.2804830
296.2723, 0.4055920
296.7545, 0.2152880
297.2366, 2.9023999E-02
297.7187, 6.6807002E-02
298.2008, 0.3304020
298.6829, 0.6213050
299.1650, 0.7416000
299.6472, 0.6805930
300.1293, 0.5496250
300.6114, 0.1805460
301.0935, 9.9725999E-02
301.5756, 9.5274001E-02
302.0577, 0.1412890
302.5399, 0.4091740
303.0220, 0.5409070
303.5041, 0.5442680
303.9862, 0.6004140
304.4683, 0.7986870
304.9504, 0.9437980
305.4326, 0.9519410
305.9147, 0.8607520
306.3968, 0.7398590
306.8789, 0.6257930
307.3610, 0.5173930
307.8431, 0.4046630
308.3253, 0.2391400
308.8074, 0.1525670
309.2895, 0.2343200
309.7716, 0.3840220
310.2537, 0.4692990
310.7358, 0.4232100
311.2180, 0.3255200
311.7001, 0.3701270
312.1822, 0.6652200
312.6643, 0.8750020
313.1465, 0.9304200
313.6286, 0.8949970
314.1107, 0.7809370
314.5928, 0.5976810
315.0749, 0.4169560
315.5570, 0.3547630
316.0392, 0.4462130
316.5213, 0.5019490
317.0034, 0.4803770
317.4855, 0.4337520
317.9676, 0.3717520
318.4497, 0.3061050
318.9319, 0.2647880
319.4140, 0.2854390
319.8961, 0.3750170
320.3782, 0.4433980
320.8603, 0.4975930
321.3424, 0.5160690
321.8246, 0.4741590
322.3067, 0.3839950
322.7888, 0.2855320
323.2709, 0.1985870
323.7530, 0.1243230
324.2351, 0.1015220
324.7173, 0.1478500
325.1994, 0.2264770
325.6815, 0.3677430
326.1636, 0.5196170
326.6457, 0.6092070
327.1278, 0.5954480
327.6100, 0.5115950
328.0921, 0.4326040
328.5742, 0.3535080
329.0563, 0.2956870
329.5384, 0.2604330
330.0205, 0.2423360
330.5027, 0.2414670
330.9848, 0.2574160
331.4669, 0.2747540
331.9490, 0.2914640
332.4311, 0.3299290
332.9132, 0.2896860
333.3954, 1.6937001E-02
333.8775, 0.2799220
334.3596, 0.2668500
334.8417, 4.1959998E-03
335.3238, 0.2859900
335.8059, 0.3132400
336.2881, 8.1000999E-02
336.7702, 4.3894000E-02
337.2523, 5.3119999E-03
337.7344, 9.6790001E-02
338.2165, 0.2723960
338.6986, 0.4734210
339.1808, 0.5948850
339.6629, 0.5407430
340.1450, 0.3650950
340.6271, 0.2769420
341.1092, 0.3114680
341.5913, 0.3691430
342.0735, 0.4349750
342.5556, 0.4911860
343.0377, 0.5167530
343.5198, 0.5044270
344.0019, 0.4566800
344.4840, 0.3539240
344.9662, 0.1666370
345.4483, 5.0849002E-02
345.9304, 0.1277280
346.4125, 0.2534060
346.8946, 0.3241200
347.3767, 0.3239470
347.8589, 0.3233610
348.3410, 0.4155410
348.8231, 0.5966080
349.3052, 0.6937060
349.7873, 0.6406540
350.2694, 0.5406010
350.7516, 0.4533690
351.2337, 0.3809960
351.7158, 0.3277080
352.1979, 0.3058260
352.6800, 0.3041840
353.1621, 0.2913070
353.6443, 0.2664300
354.1264, 0.2340480
354.6085, 0.1582150
355.0906, 8.1740998E-02
355.5727, 8.8735998E-02
356.0548, 0.2545550
356.5370, 0.4586480
357.0191, 0.5367460
357.5012, 0.4801080
357.9833, 0.3887190
358.4654, 0.2391920
358.9475, 0.1090170
359.4297, 0.1164520
359.9118, 0.2980360
360.3939, 0.5194040
360.8760, 0.7314220
361.3581, 0.9167110
361.8402, 0.9736850
362.3224, 0.8267990
362.8045, 0.6238720
363.2866, 0.5102280
363.7687, 0.4785800
364.2509, 0.4853480
364.7330, 0.5488460
365.2151, 0.6289770
365.6972, 0.6453580
366.1793, 0.5799690
366.6614, 0.5194850
367.1436, 0.5480600
367.6257, 0.6350070
368.1078, 0.6846370
368.5899, 0.6394330
369.0720, 0.5907550
369.5541, 0.6382710
370.0363, 0.7639480
370.5184, 0.8415330
371.0005, 0.7954620
371.4826, 0.6791740
371.9647, 0.6165540
372.4468, 0.6239210
372.9290, 0.6365990
373.4111, 0.6275760
373.8932, 0.6074730
374.3753, 0.6020730
374.8574, 0.6214830
375.3395, 0.6341110
375.8217, 0.5887500
376.3038, 0.4750190
376.7859, 0.3993460
377.2680, 0.4150210
377.7501, 0.4429760
378.2322, 0.3899540
378.7144, 0.2642010
379.1965, 0.1804290
379.6786, 0.2364290
380.1607, 0.4165990
380.6428, 0.5304950
381.1249, 0.5444700
381.6071, 0.5396800
382.0892, 0.5381470
382.5713, 0.5387910
383.0534, 0.5409830
383.5355, 0.5454730
384.0176, 0.5434920
384.4998, 0.5137780
384.9819, 0.4095330
385.4640, 0.3561460
385.9461, 0.3826160
386.4282, 0.4449320
386.9103, 0.5181560
387.3925, 0.5921350
387.8746, 0.6511960
388.3567, 0.6731930
388.8388, 0.6479050
389.3209, 0.6610160
389.8030, 0.7994500
390.2852, 0.8822260
390.7673, 0.7901480
391.2494, 0.5925110
391.7315, 0.4241050
392.2136, 0.3800330
392.6957, 0.4373250
393.1779, 0.4720830
393.6600, 0.4554480
394.1421, 0.4568510
394.6242, 0.4962050
395.1063, 0.5472860
395.5884, 0.5907950
396.0706, 0.6197820
396.5527, 0.6297980
397.0348, 0.6056570
397.5169, 0.5283830
397.9990, 0.4953850
398.4811, 0.5881200
398.9633, 0.6524520
399.4454, 0.5817770
399.9275, 0.4274370
400.4096, 0.3230180
400.8917, 0.3622810
401.3738, 0.5234510
401.8560, 0.7405420
402.3381, 1.109605
402.8202, 1.356318
403.3023, 1.326750
403.7844, 1.175120
404.2665, 1.056946
404.7487, 1.020291
405.2308, 1.033401
405.7129, 1.073878
406.1950, 1.144979
406.6771, 1.186833
407.1592, 1.177994
407.6414, 1.146053
408.1235, 1.119861
408.6056, 1.096892
409.0877, 1.058300
409.5698, 0.9615130
410.0519, 0.8461690
410.5341, 0.8103490
411.0162, 0.8674870
411.4983, 0.9637390
411.9804, 1.125966
412.4626, 1.292572
412.9447, 1.349578
413.4268, 1.244037
413.9089, 1.075334
414.3910, 0.8833950
414.8731, 0.6886240
415.3553, 0.6059550
415.8374, 0.6905730
416.3195, 0.8445840
416.8016, 0.9518750
417.2837, 1.020659
417.7658, 1.074497
418.2480, 1.130678
418.7301, 1.169259
419.2122, 1.146992
419.6943, 1.063865
420.1764, 1.002039
420.6585, 1.036543
421.1407, 1.156137
421.6228, 1.221711
422.1049, 1.203656
422.5870, 1.170699
423.0691, 1.129401
423.5512, 1.095535
424.0334, 1.096612
424.5155, 1.143391
424.9976, 1.224233
425.4797, 1.322282
425.9618, 1.481850
426.4439, 1.562301
426.9261, 1.539669
427.4082, 1.460524
427.8903, 1.323688
428.3724, 1.153907
428.8545, 1.019293
429.3366, 0.9769540
429.8188, 1.023629
430.3009, 1.089138
430.7830, 1.240491
431.2651, 1.334877
431.7472, 1.324574
432.2293, 1.254266
432.7115, 1.164557
433.1936, 1.072560
433.6757, 0.9979440
434.1578, 0.9758170
434.6399, 1.014989
435.1220, 1.074858
435.6042, 1.227895
436.0863, 1.335660
436.5684, 1.297271
437.0505, 1.146041
437.5326, 1.001237
438.0147, 0.9490280
438.4969, 0.9647150
438.9790, 0.9591750
439.4611, 0.9203010
439.9432, 0.8909920
440.4253, 0.9110460
440.9074, 0.9397820
441.3896, 0.9293730
441.8717, 0.8647750
442.3538, 0.7911390
442.8359, 0.7499350
443.3180, 0.7358730
443.8001, 0.7200510
444.2823, 0.6969180
444.7644, 0.6707470
445.2465, 0.6450440
445.7286, 0.6195130
446.2107, 0.5942900
446.6928, 0.5914550
447.1750, 0.5741090
447.6571, 0.4801580
448.1392, 0.3204450
448.6213, 0.1975060
449.1034, 0.1722890
449.5855, 0.2146820
450.0677, 0.2392220
450.5498, 0.2280520
451.0319, 0.2387220
451.5140, 0.3342910
451.9961, 0.4374600
452.4782, 0.4413750
452.9604, 0.3302150
453.4425, 0.1789460
453.9246, 5.7404000E-02
454.4067, 3.5390001E-02
454.8888, 8.1106000E-02
455.3709, 5.1679999E-02
455.8531, 1.4454000E-02
456.3352, 2.4226001E-02
456.8173, 5.0418999E-02
457.2994, 3.5271998E-02
457.7815, 3.4949999E-02
458.2636, 0.1252610
458.7458, 0.1577380
459.2279, 8.9284003E-02
459.7100, 5.2901000E-02
460.1921, 0.1122890
460.6742, 0.1506060
461.1564, 7.0344001E-02
461.6385, 0.1030290
462.1206, 0.2596780
462.6027, 0.3177280
463.0848, 0.2885410
463.5670, 0.2176350
464.0491, 5.5826001E-02
464.5312, 4.4888001E-02
465.0133, 1.4276000E-02
465.4954, 0.1315190
465.9775, 0.2122170
466.4597, 0.2352430
466.9418, 0.2208160
467.4239, 0.1732550
467.9060, 9.8885998E-02
468.3881, 4.0100999E-02
468.8702, 4.9749999E-03
469.3524, 1.7686000E-02
469.8345, 4.4289000E-02
470.3166, 6.7694001E-02
470.7987, 6.1103001E-02
471.2808, 3.9721999E-02
471.7629, 0.1287760
472.2451, 6.1105002E-02
472.7272, 0.1229560
473.2093, 0.2080540
473.6914, 8.7086998E-02
474.1735, 0.1484780
474.6556, 0.3394540
475.1378, 0.5051320
475.6199, 0.5764900
476.1020, 0.4414920
476.5841, 0.2771360
477.0662, 0.2618340
477.5483, 0.3901770
478.0305, 0.5210120
478.5126, 0.5470240
478.9947, 0.4791830
479.4768, 0.4143240
479.9589, 0.3481970
480.4410, 0.2892260
480.9232, 0.1892030
481.4053, 0.1223750
481.8874, 0.2201160
482.3695, 0.4884430
482.8516, 0.7356730
483.3337, 0.6883380
483.8159, 0.2902460
484.2980, 8.0921002E-02
484.7801, 0.2311050
485.2622, 0.3856060
485.7443, 0.4059300
486.2264, 0.3529830
486.7086, 0.3345630
487.1907, 0.4014130
487.6728, 0.4986720
488.1549, 0.5494260
488.6370, 0.5516180
489.1191, 0.5361270
489.6013, 0.4931820
490.0834, 0.4532930
490.5655, 0.4346670
491.0476, 0.4385450
491.5297, 0.4746080
492.0118, 0.5693820
492.4940, 0.6857990
492.9761, 0.7883360
493.4582, 0.8746460
493.9403, 0.9157150
494.4224, 0.8824240
494.9045, 0.8072010
495.3867, 0.7795700
495.8688, 0.8326230
496.3509, 0.8431640
496.8330, 0.7273520
497.3151, 0.5864560
497.7972, 0.5332160
498.2794, 0.5764090
498.7615, 0.6514190
499.2436, 0.7026110
499.7257, 0.7328360
500.2078, 0.7988040
500.6899, 1.013014
501.1721, 1.125806
501.6542, 1.015888
502.1363, 0.7017520
502.6184, 0.8897640
503.1005, 1.009045
503.5826, 1.062890
504.0648, 0.8562690
504.5469, 0.9856840
505.0290, 0.9803490
505.5111, 0.9697400
505.9932, 1.147996
506.4753, 0.9850260
506.9575, 1.166488
507.4396, 1.207281
507.9217, 1.307940
508.4038, 1.272602
508.8859, 1.279791
509.3680, 1.423984
509.8502, 1.499588
510.3323, 1.464242
510.8144, 1.578763
511.2965, 1.410133
511.7787, 1.483124
512.2607, 1.661895
512.7429, 1.622678
513.2250, 1.734436
513.7071, 1.786342
514.1892, 1.578388
514.6713, 1.835072
515.1534, 1.907183
515.6356, 1.777670
516.1177, 1.845789
516.5998, 1.955375
517.0819, 2.020465
517.5640, 1.984187
518.0461, 1.946268
518.5283, 1.988606
519.0104, 2.102309
519.4925, 2.227468
519.9746, 2.328470
520.4567, 2.396161
520.9388, 2.384208
521.4210, 2.197352
521.9031, 2.110009
522.3852, 2.220820
522.8673, 2.384578
523.3494, 2.493459
523.8315, 2.541834
524.3137, 2.588902
524.7958, 2.696826
525.2779, 2.830124
525.7600, 2.858296
526.2421, 2.747381
526.7242, 2.689772
527.2064, 2.837752
527.6885, 3.038011
528.1706, 3.083902
528.6527, 2.934011
529.1348, 2.825794
529.6169, 2.912888
530.0991, 3.092134
530.5812, 3.199063
531.0633, 3.220564
531.5454, 3.210588
532.0275, 3.192045
532.5096, 3.159070
532.9918, 3.122375
533.4739, 3.104121
533.9560, 3.053905
534.4381, 2.904099
534.9202, 2.749671
535.4024, 2.702394
535.8845, 2.776236
536.3666, 2.904784
536.8488, 3.033970
537.3309, 3.164671
537.8130, 3.209421
538.2951, 3.068231
538.7772, 2.951927
539.2593, 2.955386
539.7415, 2.993596
540.2236, 2.956009
540.7057, 2.819605
541.1878, 2.670556
541.6699, 2.587896
542.1520, 2.565816
542.6342, 2.600193
543.1163, 2.735468
543.5984, 2.814273
544.0805, 2.658835
544.5626, 2.390093
545.0447, 2.246065
545.5269, 2.308831
546.0090, 2.402286
546.4911, 2.430271
546.9732, 2.416348
547.4553, 2.434057
547.9374, 2.499916
548.4196, 2.475959
548.9017, 2.182442
549.3838, 1.606566
549.8659, 1.344481
550.3480, 1.649319
550.8301, 1.905905
551.3123, 1.904825
551.7944, 1.780203
552.2765, 1.710954
552.7586, 1.741154
553.2407, 1.775387
553.7228, 1.677569
554.2050, 1.434342
554.6871, 1.313566
555.1692, 1.427651
555.6513, 1.505928
556.1334, 1.405144
556.6155, 1.234921
557.0977, 1.149731
557.5798, 1.201078
558.0619, 1.256249
558.5440, 1.176491
559.0261, 0.9986920
559.5082, 0.8508940
559.9904, 0.7458800
560.4725, 0.6962630
560.9546, 0.7470850
561.4367, 0.8670970
561.9188, 0.9000000
562.4009, 0.8141570
562.8831, 0.6791930
563.3652, 0.4406190
563.8473, 0.2016610
564.3294, 0.1384910
564.8115, 0.2732440
565.2936, 0.4427150
565.7758, 0.4862820
566.2579, 0.4037330
566.7400, 0.2983100
567.2221, 7.6849997E-02
567.7042, 5.1072001E-02
568.1863, 3.2303002E-02
568.6685, 0.1796990
569.1506, 0.2317290
569.6327, 0.1598910
570.1148, 7.0828997E-02
570.5969, 9.4195999E-02
571.0790, 0.1980710
571.5612, 0.1679350
572.0433, 5.7666000E-02
572.5254, 0.2473260
573.0075, 0.2690610
573.4896, 0.1866860
573.9717, 8.5464999E-02
574.4539, 4.1069999E-02
574.9360, 0.1464190
575.4181, 0.1789150
575.9002, 0.1874140
576.3823, 0.2656780
576.8644, 0.4121070
577.3466, 0.4905000
577.8287, 0.3883900
578.3108, 0.1524510
578.7929, 7.1100001E-03
579.2750, 4.2467002E-02
579.7571, 5.4032002E-02
580.2393, 7.5619998E-03
580.7214, 4.8395999E-02
581.2035, 8.7989002E-02
581.6856, 0.1013550
582.1677, 7.1350001E-02
582.6498, 3.2643002E-02
583.1320, 0.1714480
583.6141, 0.1902070
584.0962, 4.2477999E-02
584.5783, 6.5022998E-02
585.0604, 4.0013000E-02
585.5425, 1.9915000E-02
586.0247, 2.6231000E-02
586.5068, 1.7639000E-02
586.9889, 4.4084001E-02
587.4710, 1.8920000E-03
587.9531, 6.8241000E-02
588.4352, 9.1182999E-02
588.9174, 7.9695001E-02
589.3995, 6.7207001E-02
589.8816, 6.5805003E-02
590.3637, 7.8844003E-02
590.8458, 0.1119170
591.3279, 0.1855100
591.8101, 0.2173280
592.2922, 0.1640640
592.7743, 0.1123160
593.2564, 0.1261470
593.7385, 0.1726240
594.2206, 0.1722400
594.7028, 8.7986000E-02
595.1849, 1.3485000E-02
595.6670, 1.8050000E-03
596.1491, 0.1471020
596.6312, 0.2241360
597.1133, 2.7039999E-02
597.5955, 0.1817850
598.0776, 0.2682380
598.5597, 0.2900590
599.0418, 5.3918999E-02
599.5239, 0.1506940
600.0060, 0.1139450
600.4882, 7.1902998E-02
600.9703, 0.2167600
601.4524, 1.7739000E-02
601.9345, 0.1580370
602.4166, 0.1627810
602.8987, 0.2300510
603.3809, 0.1631200
603.8630, 0.1368450
604.3451, 0.2448180
604.8272, 0.2783400
605.3093, 0.1949240
605.7914, 0.2651100
606.2736, 6.0678001E-02
606.7557, 9.7099997E-02
607.2378, 0.2374070
607.7199, 0.1604190
608.2020, 0.2327250
608.6841, 0.2480920
609.1663, 0.2435860
609.6484, 0.3324580
610.1305, 0.2928530
610.6126, 0.2171290
611.0947, 0.1766450
611.5768, 0.1748560
612.0590, 0.1968430
612.5411, 0.2582830
613.0232, 0.3254300
613.5053, 0.3621940
613.9874, 0.3702080
614.4695, 0.3594810
614.9517, 0.3310940
615.4338, 0.2981880
615.9159, 0.2789870
616.3980, 0.2659180
616.8801, 0.2969650
617.3622, 0.4803870
617.8444, 0.5885040
618.3265, 0.4563020
618.8086, 0.2069810
619.2907, 3.1477001E-02
619.7728, 9.4599999E-04
620.2549, 4.5956999E-02
620.7371, 0.1058440
621.2192, 0.1765840
621.7013, 0.2309230
622.1834, 0.2738300
622.6655, 0.2998080
623.1476, 0.2874630
623.6298, 0.2541770
624.1119, 0.2309860
624.5940, 0.2241840
625.0761, 0.2086750
625.5582, 0.1831250
626.0403, 0.1510990
626.5225, 8.2231000E-02
627.0046, 1.7840000E-02
627.4867, 8.3466001E-02
627.9688, 7.0436999E-02
628.4509, 8.6939996E-03
628.9330, 0.1063370
629.4152, 0.2563630
629.8973, 0.3377470
630.3794, 0.3509420
630.8615, 0.3091680
631.3436, 0.1484400
631.8257, 5.5142000E-02
632.3079, 0.1092770
632.7900, 0.1170450
633.2721, 0.4096330
633.7542, 0.4497400
634.2364, 0.2667570
634.7185, 0.1034240
635.2006, 7.5229998E-03
635.6827, 5.6527998E-02
636.1649, 1.8774999E-02
636.6470, 9.3400002E-02
637.1291, 0.1891840
637.6112, 0.2839670
638.0933, 0.3359830
638.5754, 0.3049910
639.0576, 0.2382280
639.5397, 0.1855340
640.0218, 0.1592000
640.5039, 0.1559100
640.9860, 0.1695870
641.4681, 0.1888390
641.9503, 0.1748950
642.4324, 0.1160340
642.9145, 5.6435999E-02
643.3966, 4.3265000E-02
643.8787, 0.1020230
644.3608, 3.2029999E-03
644.8430, 0.2091510
645.3251, 0.3125050
645.8072, 9.0485997E-02
646.2893, 0.1719380
646.7714, 0.1434190
647.2535, 9.1311000E-02
647.7357, 0.2614520
648.2178, 0.2878940
648.6999, 0.2389210
649.1820, 0.1746860
649.6641, 8.9151002E-02
650.1462, 7.9213001E-02
650.6284, 0.2354940
651.1105, 0.3517290
651.5926, 0.3613770
652.0747, 0.3260810
652.5568, 0.3099620
653.0389, 0.3156790
653.5211, 0.3070790
654.0032, 0.2353190
654.4853, 0.1313300
654.9674, 0.1049480
655.4495, 0.1689860
655.9316, 0.2217010
656.4138, 0.2380510
656.8959, 0.2174670
657.3780, 0.1292860
657.8601, 2.5587000E-02
658.3422, 0.1005020
658.8243, 1.3442000E-02
659.3065, 0.1188570
659.7886, 6.5462001E-02
660.2707, 5.3557001E-02
660.7528, 6.2265001E-02
661.2349, 8.2648002E-02
661.7170, 0.2623220
662.1992, 0.3446290
662.6813, 0.3327360
663.1634, 0.2915280
663.6455, 0.1711640
664.1276, 0.1199450
664.6097, 0.2525720
665.0919, 0.4319880
665.5740, 0.5535710
666.0561, 0.6085240
666.5382, 0.6065270
667.0203, 0.4575830
667.5024, 0.3240800
667.9846, 0.4448320
668.4667, 0.7405460
668.9488, 0.9122870
669.4309, 0.8445940
669.9130, 0.6980680
670.3951, 0.6915410
670.8773, 0.8492330
671.3594, 0.9500340
671.8415, 0.9999260
672.3236, 0.9823300
672.8057, 0.7774770
673.2878, 0.5706070
673.7700, 0.6035130
674.2521, 0.8902540
674.7342, 1.152700
675.2163, 1.155404
675.6984, 0.9985970
676.1805, 0.8551090
676.6627, 0.7276730
677.1448, 0.6951270
677.6269, 0.8125620
678.1090, 0.9773880
678.5911, 1.052300
679.0732, 1.026714
679.5554, 0.9498280
680.0375, 0.6721450
680.5196, 0.5150040
681.0017, 0.7222880
681.4838, 1.059544
681.9659, 1.221949
682.4481, 1.147505
682.9302, 1.005326
683.4123, 0.7938910
683.8944, 0.9783700
684.3765, 1.083785
684.8586, 1.113176
685.3408, 0.8702070
685.8229, 0.9535890
686.3050, 0.8941060
686.7871, 0.8189450
687.2692, 0.9211040
687.7513, 0.6675550
688.2335, 0.7464440
688.7156, 0.6785070
689.1977, 0.6630240
689.6798, 0.5006720
690.1619, 0.5785000
690.6440, 0.4716260
691.1262, 0.3236450
691.6083, 0.2738930
692.0904, 0.3128770
692.5725, 0.3904460
693.0546, 0.5483490
693.5367, 0.6188840
694.0189, 0.5081760
694.5010, 0.3333170
694.9831, 0.1782320
695.4652, 4.8540000E-02
695.9473, 2.9258000E-02
696.4294, 5.7300000E-04
696.9116, 3.5997000E-02
697.3937, 2.8701000E-02
697.8758, 0.1218600
698.3579, 6.8516999E-02
698.8400, 0.1532270
699.3221, 0.3423200
699.8043, 0.2886530
700.2864, 3.7301999E-02
700.7685, 6.0465999E-02
701.2506, 7.1033001E-02
701.7327, 0.1924510
702.2148, 0.2945350
702.6970, 0.3446890
703.1791, 0.2546180
703.6612, 8.0078997E-02
704.1433, 3.8497999E-02
704.6254, 0.3563390
705.1075, 0.6524310
705.5897, 0.5229020
706.0718, 0.1574930
706.5539, 5.4141000E-02
707.0360, 3.9223999E-02
707.5181, 8.2295999E-02
708.0002, 0.2257180
708.4824, 0.3810270
708.9645, 0.4975760
709.4466, 0.5610600
709.9287, 0.6134830
710.4108, 0.6465290
710.8929, 0.6814910
711.3751, 0.7280880
711.8572, 0.7865420
712.3393, 0.8551820
712.8214, 0.9355440
713.3035, 1.020873
713.7856, 1.091553
714.2678, 1.165923
714.7499, 1.304722
715.2320, 1.509254
715.7141, 1.677975
716.1962, 1.729723
716.6783, 1.723598
717.1605, 1.838602
717.6426, 2.227196
718.1247, 2.434761
718.6068, 2.292551
719.0889, 2.156064
719.5710, 2.189565
720.0532, 2.335729
720.5353, 2.494000
721.0174, 2.639047
721.4995, 2.750999
721.9816, 2.757992
722.4637, 2.740007
722.9459, 2.880820
723.4280, 3.179717
723.9101, 3.480949
724.3922, 3.717517
724.8743, 3.887359
725.3564, 3.977036
725.8386, 3.949012
726.3207, 3.976863
726.8028, 4.094145
727.2849, 4.227219
727.7670, 4.336845
728.2491, 4.459362
728.7313, 4.668032
729.2134, 4.969051
729.6955, 5.220714
730.1776, 5.253642
730.6597, 5.214762
731.1418, 5.384483
731.6240, 5.717545
732.1061, 5.905790
732.5882, 5.823116
733.0704, 5.507191
733.5525, 5.760026
734.0346, 5.944155
734.5167, 6.063283
734.9988, 5.922258
735.4810, 6.117524
735.9631, 6.178207
736.4452, 6.233524
736.9273, 6.476507
737.4094, 6.374086
737.8915, 6.614380
738.3737, 6.718097
738.8558, 6.884506
739.3379, 7.025550
739.8200, 7.348234
740.3021, 7.521342
740.7842, 7.482220
741.2664, 7.355868
741.7485, 7.223536
742.2306, 7.102062
742.7127, 7.081629
743.1948, 7.260025
743.6769, 7.360750
744.1591, 7.349401
744.6412, 7.281087
745.1233, 7.158365
745.6054, 7.004339
746.0875, 6.854845
746.5696, 6.717074
747.0518, 6.606524
747.5339, 6.546057
748.0160, 6.517573
748.4981, 6.498938
748.9802, 6.484887
749.4623, 6.456434
749.9445, 6.400306
750.4266, 6.343863
750.9087, 6.346766
751.3908, 6.437679
751.8729, 6.452915
752.3550, 6.376696
752.8372, 6.241228
753.3193, 5.972841
753.8014, 5.703180
754.2835, 5.624169
754.7656, 5.748358
755.2477, 5.785107
755.7299, 5.534329
756.2120, 5.190153
756.6941, 4.880341
757.1762, 4.632017
757.6583, 4.518408
758.1404, 4.549188
758.6226, 4.615776
759.1047, 4.616903
759.5868, 4.559837
760.0689, 4.493542
760.5510, 4.425215
761.0331, 4.329650
761.5153, 4.183748
761.9974, 4.031517
762.4795, 3.869242
762.9616, 3.729315
763.4437, 3.709657
763.9258, 3.913069
764.4080, 4.067020
764.8901, 4.039841
765.3722, 3.914403
765.8543, 3.735479
766.3364, 3.517342
766.8185, 3.313152
767.3007, 3.147213
767.7828, 3.054478
768.2649, 3.145348
768.7470, 3.434680
769.2291, 3.516720
769.7112, 3.289158
770.1934, 3.086495
770.6755, 3.114372
771.1576, 3.231959
771.6397, 3.180857
772.1218, 2.927480
772.6039, 2.755668
773.0861, 2.771909
773.5682, 2.821381
774.0503, 2.862147
774.5324, 2.853392
775.0145, 2.710280
775.4966, 2.456666
775.9788, 2.268554
776.4609, 2.314620
776.9430, 2.493351
777.4251, 2.546919
777.9072, 2.478582
778.3893, 2.396523
778.8715, 2.318956
779.3536, 2.248801
779.8357, 2.178055
780.3178, 2.117657
780.7999, 2.133382
781.2820, 2.386889
781.7642, 2.483151
782.2463, 2.245132
782.7284, 1.988224
783.2105, 1.923172
783.6926, 1.988926
784.1747, 2.029042
784.6569, 1.986448
785.1390, 1.932571
785.6211, 1.956278
786.1032, 2.003407
786.5853, 1.943841
787.0674, 1.789194
787.5496, 1.673986
788.0317, 1.658368
788.5138, 1.698370
788.9959, 1.740898
789.4780, 1.790352
789.9601, 1.776423
790.4423, 1.655354
790.9244, 1.541043
791.4065, 1.471072
791.8886, 1.409398
792.3707, 1.298518
792.8528, 1.158953
793.3350, 1.106793
793.8171, 1.257743
794.2992, 1.401388
794.7813, 1.414348
795.2634, 1.337151
795.7455, 1.185875
796.2277, 0.9926610
796.7098, 0.8557370
797.1919, 0.8355480
797.6740, 0.8945260
798.1561, 0.9989180
798.6382, 1.156220
799.1204, 1.126060
799.6025, 0.8196450
800.0846, 0.5406940
800.5667, 0.4382190
801.0488, 0.4512350
801.5309, 0.4861010
802.0131, 0.5497470
802.4952, 0.5887200
802.9773, 0.5820720
803.4594, 0.5685150
803.9415, 0.5509890
804.4236, 0.5434840
804.9058, 0.5910430
805.3879, 0.6783910
805.8700, 0.6963510
806.3521, 0.5379160
806.8342, 0.3193260
807.3163, 0.2126040
807.7985, 0.2016570
808.2806, 0.2393650
808.7627, 0.3186400
809.2448, 0.3545070
809.7269, 0.2710030
810.2090, 0.1244060
810.6912, 9.8364003E-02
811.1733, 0.2867270
811.6554, 0.3702350
812.1375, 0.2689650
812.6196, 0.1517250
813.1017, 7.6902002E-02
813.5839, 2.5713000E-02
814.0660, 3.2322999E-02
814.5481, 0.1026130
815.0302, 0.1455430
815.5123, 0.1291570
815.9944, 9.3188003E-02
816.4766, 6.8930998E-02
816.9587, 4.8326001E-02
817.4408, 2.0500000E-03
817.9229, 6.8278998E-02
818.4050, 0.1118550
818.8871, 8.5125998E-02
819.3693, 4.1350001E-03
819.8514, 0.1138200
820.3335, 0.2736950
820.8156, 0.3266910
821.2977, 0.2132940
821.7798, 0.1080420
822.2620, 0.1568640
822.7441, 0.2856900
823.2262, 0.2663410
823.7083, 1.2616000E-02
824.1904, 0.1800990
824.6725, 0.1218890
825.1547, 6.6350996E-02
825.6368, 0.1544770
826.1189, 0.2881830
826.6010, 0.3239540
827.0831, 0.2402160
827.5652, 0.1423910
828.0474, 8.8880002E-02
828.5295, 6.4937003E-02
829.0116, 7.4782997E-02
829.4937, 9.7539000E-02
829.9758, 5.9092999E-02
830.4579, 4.8480000E-02
830.9401, 0.1194960
831.4222, 6.1476000E-02
831.9044, 6.4535998E-02
832.3865, 4.8769001E-02
832.8686, 0.1664910
833.3507, 0.2154740
833.8328, 2.6591999E-02
834.3149, 0.2538830
834.7971, 0.2843140
835.2792, 0.2040650
835.7613, 0.1574660
836.2434, 0.1384410
836.7255, 0.1757770
837.2076, 0.3860780
837.6898, 0.5352820
838.1719, 0.4229650
838.6540, 0.2212300
839.1361, 0.1718790
839.6182, 0.2906360
840.1003, 0.4023080
840.5825, 0.3764530
841.0646, 0.3190460
841.5467, 0.4204090
842.0288, 0.6122020
842.5109, 0.6347520
842.9930, 0.4600290
843.4752, 0.3249440
843.9573, 0.3826150
844.4394, 0.5463190
844.9215, 0.6311720
845.4036, 0.6219770
845.8857, 0.6123070
846.3679, 0.5948050
846.8500, 0.5875780
847.3321, 0.5939190
847.8142, 0.6252810
848.2963, 0.7044330
848.7784, 0.8137240
849.2606, 0.8614970
849.7427, 0.7587940
850.2248, 0.6925360
850.7069, 0.7747140
851.1890, 0.8978130
851.6711, 0.9835700
852.1533, 1.008428
852.6354, 0.9324860
853.1175, 0.7220020
853.5996, 0.5099950
854.0817, 0.4637740
854.5638, 0.5297390
855.0460, 0.5731990
855.5281, 0.5883670
856.0102, 0.5979670
856.4923, 0.6073480
856.9744, 0.6469370
857.4565, 0.7768940
857.9387, 0.9889840
858.4208, 1.018230
858.9029, 0.7526560
859.3850, 0.5749240
859.8671, 0.5978270
860.3492, 0.6877200
860.8314, 0.7753580
861.3135, 0.8510220
861.7956, 0.8784230
862.2777, 0.8200180
862.7598, 0.7909770
863.2419, 0.8754140
863.7241, 0.9489830
864.2062, 0.8864440
864.6883, 0.7618200
865.1704, 0.7267320
865.6525, 0.8094360
866.1346, 0.8699810
866.6168, 0.7685240
867.0989, 0.6029380
867.5810, 0.5097660
868.0631, 0.4843950
868.5452, 0.5266720
869.0273, 0.6331080
869.5095, 0.7585400
869.9916, 0.8769690
870.4737, 0.9692440
870.9558, 0.9670170
871.4379, 0.8392520
871.9200, 0.7902660
872.4022, 0.8621030
872.8843, 0.9318790
873.3664, 0.9440770
873.8485, 0.9331310
874.3306, 0.9651240
874.8127, 1.045590
875.2949, 1.037772
875.7770, 0.8059680
876.2591, 0.6483280
876.7412, 0.7057430
877.2233, 0.8246720
877.7054, 0.8963530
878.1876, 0.9026670
878.6697, 0.8439650
879.1518, 0.7103430
879.6339, 0.6000030
880.1160, 0.6133450
880.5981, 0.6658870
881.0803, 0.6476230
881.5624, 0.5888930
882.0445, 0.5561660
882.5266, 0.5704470
883.0087, 0.5926020
883.4908, 0.5846910
883.9730, 0.5566600
884.4551, 0.5633000
884.9372, 0.6090820
885.4193, 0.5999230
885.9014, 0.4994270
886.3835, 0.4121090
886.8657, 0.4263240
887.3478, 0.4958210
887.8299, 0.4853580
888.3120, 0.3436550
888.7941, 0.2447790
889.2762, 0.2242550
889.7584, 0.2231260
890.2405, 0.2147190
890.7226, 0.1981010
891.2047, 0.2090370
891.6868, 0.2579380
892.1689, 0.2721010
892.6511, 0.1791070
893.1332, 0.1007250
893.6153, 0.1353470
894.0974, 0.1889180
894.5795, 0.1205620
895.0616, 1.7062999E-02
895.5438, 3.5742000E-02
896.0259, 0.1423280
896.5080, 0.3420830
896.9901, 0.3579390
897.4722, 0.2666050
897.9543, 0.2454160
898.4365, 0.2798560
898.9186, 0.2540290
899.4007, 0.1353590
899.8828, 3.3101998E-02
900.3649, 4.7905002E-02
900.8470, 0.1458920
901.3292, 0.2071100
901.8113, 0.2281030
902.2934, 0.2257180
902.7755, 0.1876860
903.2576, 0.1587140
903.7397, 0.1860790
904.2219, 0.2161700
904.7040, 0.1387570
905.1861, 7.3555000E-02
905.6682, 0.1782370
906.1503, 8.2372002E-02
906.6324, 3.9220001E-03
907.1146, 8.4419996E-03
907.5967, 2.3469999E-03
908.0788, 5.5450000E-02
908.5609, 0.1481370
909.0430, 0.2112800
909.5251, 0.2186720
910.0073, 0.2142970
910.4894, 0.2110440
910.9715, 0.2185380
911.4536, 0.2712010
911.9357, 0.3351990
912.4178, 0.3282260
912.9000, 0.2393470
913.3821, 0.1540350
913.8642, 0.1454650
914.3463, 0.1771580
914.8284, 0.1798990
915.3105, 0.1618440
915.7927, 0.1654400
916.2748, 0.1954390
916.7569, 0.2154950
917.2390, 0.2057330
917.7211, 0.1739680
918.2032, 0.1214980
918.6854, 4.4971999E-02
919.1675, 6.9190003E-02
919.6496, 0.2571230
920.1317, 0.3397450
920.6138, 0.1701260
921.0959, 7.8539997E-03
921.5781, 4.8131000E-02
922.0602, 0.2779460
922.5423, 0.3862560
923.0244, 0.3092320
923.5065, 0.2371880
923.9886, 0.1677470
924.4708, 0.1156230
924.9529, 9.1691002E-02
925.4350, 8.6093999E-02
925.9171, 8.5570000E-02
926.3992, 8.9796998E-02
926.8813, 0.1101250
927.3635, 0.1784750
927.8456, 0.2320450
928.3277, 0.2100240
928.8098, 0.1705520
929.2919, 0.1823160
929.7740, 0.2372160
930.2562, 0.2967280
930.7383, 0.3446850
931.2205, 0.3775500
931.7026, 0.3840930
932.1847, 0.3802750
932.6668, 0.4118750
933.1489, 0.4607830
933.6310, 0.4470620
934.1132, 0.3572750
934.5953, 0.2631490
935.0774, 0.2171450
935.5595, 0.2067700
936.0416, 0.1924060
936.5237, 0.1732300
937.0059, 0.2697020
937.4880, 0.5225210
937.9701, 0.6622470
938.4522, 0.5573010
938.9343, 0.3514930
939.4164, 0.1916360
939.8986, 8.1841998E-02
940.3807, 9.8833002E-02
940.8628, 0.3608750
941.3449, 0.5107660
941.8270, 0.4087310
942.3091, 0.3147260
942.7913, 0.4241850
943.2734, 0.6033250
943.7555, 0.6241160
944.2376, 0.4451150
944.7197, 0.3109090
945.2018, 0.2419230
945.6840, 0.2500310
946.1661, 0.4456920
946.6482, 0.6342810
947.1303, 0.5861930
947.6124, 0.3772210
948.0945, 0.2795350
948.5767, 0.4039960
949.0588, 0.5492790
949.5409, 0.6100010
950.0230, 0.6124510
950.5051, 0.5215120
950.9872, 0.4134020
951.4694, 0.4716150
951.9515, 0.6977550
952.4336, 0.8547950
952.9157, 0.7596620
953.3978, 0.5691760
953.8799, 0.4983640
954.3621, 0.5103690
954.8442, 0.5211490
955.3263, 0.5252750
955.8084, 0.5340230
956.2905, 0.5497380
956.7726, 0.5809090
957.2548, 0.6467510
957.7369, 0.7244850
958.2190, 0.6962490
958.7011, 0.5544930
959.1832, 0.5029560
959.6653, 0.5860940
960.1475, 0.6841810
960.6296, 0.7277860
961.1117, 0.7458000
961.5938, 0.7965710
962.0759, 0.8881510
962.5580, 0.9281530
963.0402, 0.8689660
963.5223, 0.8401840
964.0044, 0.9179520
964.4865, 1.002685
964.9686, 1.021507
965.4507, 0.9814220
965.9329, 0.9067390
966.4150, 0.7818110
966.8971, 0.6644920
967.3792, 0.4848090
967.8613, 0.4026920
968.3434, 0.5758610
968.8256, 0.8005260
969.3077, 0.8654990
969.7898, 0.7859080
970.2719, 0.7148920
970.7540, 0.6989390
971.2361, 0.6845030
971.7183, 0.6642310
972.2004, 0.6241250
972.6825, 0.4926030
973.1646, 0.3602840
973.6467, 0.4040870
974.1288, 0.6310300
974.6110, 0.8280690
975.0931, 0.8660900
975.5752, 0.8318080
976.0573, 0.8091140
976.5394, 0.7629220
977.0215, 0.6167900
977.5037, 0.4079580
977.9858, 0.2271160
978.4679, 0.1021180
978.9500, 3.5732001E-02
979.4321, 5.9087999E-02
979.9142, 0.1389730
980.3964, 0.2286360
980.8785, 0.3120810
981.3606, 0.3105060
981.8427, 0.2231520
982.3248, 0.1618930
982.8069, 0.1886950
983.2891, 0.2434190
983.7712, 0.2397420
984.2533, 0.1846450
984.7354, 0.1067020
985.2175, 2.9970000E-03
985.6996, 2.3937000E-02
986.1818, 0.2280370
986.6639, 0.3724630
987.1460, 0.2645510
987.6281, 3.3342000E-02
988.1102, 1.8695001E-02
988.5923, 0.1408580
989.0745, 0.2306440
989.5566, 0.2266220
990.0387, 0.2249360
990.5208, 0.2548200
991.0029, 0.2897730
991.4850, 0.3031220
991.9672, 0.3037070
992.4493, 0.3325760
992.9314, 0.4521340
993.4135, 0.4466710
993.8956, 0.1714380
994.3777, 3.3838999E-02
994.8599, 1.6747000E-02
995.3420, 8.0725998E-02
995.8241, 0.1523420
996.3062, 0.1921470
996.7883, 0.1794810
997.2704, 4.2601999E-02
997.7526, 2.2458000E-02
998.2347, 2.5652001E-02
998.7168, 0.1366300
999.1989, 0.4098370
999.6810, 0.6533650
1000.163, 0.5669300
1000.645, 0.1792060
1001.127, 8.2414001E-02
1001.609, 1.7921001E-02
1002.092, 7.4924000E-02
1002.574, 7.1301997E-02
1003.056, 5.5767000E-02
1003.538, 9.4107002E-02
1004.020, 0.1680870
1004.502, 0.2652290
1004.984, 0.3692540
1005.466, 0.3877370
1005.949, 0.1830770
1006.431, 3.0670001E-03
1006.913, 9.7295001E-02
1007.395, 0.2664780
1007.877, 0.2683850
1008.359, 0.1419930
1008.841, 1.0918000E-02
1009.323, 7.6857001E-02
1009.805, 6.7285001E-02
1010.288, 0.1702120
1010.770, 0.4214940
1011.252, 0.3921090
1011.734, 0.2043290
1012.216, 4.8896998E-02
1012.698, 4.2890999E-02
1013.180, 6.1707001E-02
1013.662, 7.0810001E-03
1014.145, 5.7677001E-02
1014.627, 6.1253000E-02
1015.109, 3.8653001E-02
1015.591, 6.8393998E-02
1016.073, 0.1300830
1016.555, 0.1434680
1017.037, 0.1095890
1017.519, 0.1280270
1018.001, 0.2501470
1018.484, 0.3739190
1018.966, 0.3436570
1019.448, 0.2155810
1019.930, 0.2173070
1020.412, 0.3285590
1020.894, 0.3492040
1021.376, 0.2461530
1021.858, 0.1372490
1022.341, 8.7857001E-02
1022.823, 8.3774000E-02
1023.305, 0.1081610
1023.787, 0.1579600
1024.269, 0.2057950
1024.751, 0.2523770
1025.233, 0.2884620
1025.715, 0.3135290
1026.198, 0.3159570
1026.680, 0.2833970
1027.162, 0.2387550
1027.644, 0.2285820
1028.126, 0.2541180
1028.608, 0.2516690
1029.090, 0.2073410
1029.572, 0.2090290
1030.054, 0.2911790
1030.536, 0.3726470
1031.019, 0.4012480
1031.501, 0.3856790
1031.983, 0.3358200
1032.465, 0.2400830
1032.947, 0.2158240
1033.429, 0.3264430
1033.911, 0.3303560
1034.393, 0.1064280
1034.876, 0.1154720
1035.358, 0.1759170
1035.840, 0.1154630
1036.322, 1.6814999E-02
1036.804, 0.1440150
1037.286, 0.2270380
1037.768, 0.1859630
1038.250, 0.1512060
1038.733, 0.1610470
1039.215, 0.1705350
1039.697, 0.1167530
1040.179, 4.8067000E-02
1040.661, 0.1060720
1041.143, 0.3605620
1041.625, 0.4829440
1042.107, 0.3338150
1042.589, 0.2443190
1043.072, 0.3409120
1043.554, 0.4583540
1044.036, 0.4729910
1044.518, 0.4231830
1045.000, 0.4144920
1045.482, 0.4786040
1045.964, 0.4686190
1046.446, 0.2725360
1046.928, 0.1360930
1047.411, 0.1608040
1047.893, 0.2298640
1048.375, 0.2707700
1048.857, 0.2861060
1049.339, 0.2844990
1049.821, 0.2638530
1050.303, 0.2780010
1050.785, 0.3763790
1051.268, 0.4386730
1051.750, 0.4142360
1052.232, 0.3577520
1052.714, 0.3000220
1053.196, 0.2529330
1053.678, 0.2298400
1054.160, 0.2340400
1054.642, 0.2475710
1055.125, 0.2981050
1055.607, 0.3151080
1056.089, 0.2205700
1056.571, 0.1305930
1057.053, 0.1686360
1057.535, 0.2767170
1058.017, 0.3134850
1058.499, 0.2464950
1058.981, 0.1902380
1059.464, 0.1780960
1059.946, 0.2017980
1060.428, 0.2987060
1060.910, 0.3851600
1061.392, 0.3690090
1061.874, 0.2939980
1062.356, 0.2595250
1062.838, 0.2863490
1063.320, 0.3137840
1063.803, 0.3158090
1064.285, 0.3190820
1064.767, 0.3565220
1065.249, 0.3828850
1065.731, 0.3361010
1066.213, 0.2646510
1066.695, 0.2512490
1067.177, 0.3132170
1067.660, 0.3576110
1068.142, 0.3320790
1068.624, 0.3107160
1069.106, 0.3617380
1069.588, 0.3891260
1070.070, 0.2746450
1070.552, 9.9721998E-02
1071.034, 3.0117000E-02
1071.516, 9.4737999E-02
1071.999, 0.1527050
1072.481, 0.1004000
1072.963, 7.1666002E-02
1073.445, 0.1447430
1073.927, 0.2583380
1074.409, 0.3933840
1074.891, 0.5154400
1075.373, 0.5798190
1075.855, 0.5794070
1076.338, 0.5317900
1076.820, 0.3848090
1077.302, 0.2899530
1077.784, 0.3660650
1078.266, 0.4773020
1078.748, 0.5486420
1079.230, 0.5674060
1079.713, 0.4934820
1080.195, 0.3472820
1080.677, 0.2669540
1081.159, 0.3163640
1081.641, 0.4157240
1082.123, 0.5835980
1082.605, 0.7309600
1083.087, 0.8016340
1083.569, 0.8048180
1084.052, 0.7454590
1084.534, 0.6327380
1085.016, 0.4887310
1085.498, 0.2966200
1085.980, 0.1464210
1086.462, 3.7429001E-02
1086.944, 2.7024001E-02
1087.426, 0.2564420
1087.908, 0.5331340
1088.391, 0.6305170
1088.873, 0.5580200
1089.355, 0.4297960
1089.837, 0.2409230
1090.319, 0.1670950
1090.801, 0.4440140
1091.283, 0.6581500
1091.765, 0.4768350
1092.248, 0.1992440
1092.730, 0.1325190
1093.212, 0.2369860
1093.694, 0.3369530
1094.176, 0.3980540
1094.658, 0.4018840
1095.140, 0.2716930
1095.622, 0.1716080
1096.104, 0.1923720
1096.587, 0.2596140
1097.069, 0.3185890
1097.551, 0.3685490
1098.033, 0.4364800
1098.515, 0.5305240
1098.997, 0.5468230
1099.479, 0.3810260
1099.961, 0.2346760
1100.443, 0.1853320
1100.926, 0.1687020
1101.408, 0.1557730
1101.890, 0.1374300
1102.372, 9.4852999E-02
1102.854, 2.9389000E-02
1103.336, 2.3870000E-03
1103.818, 3.2345999E-02
1104.300, 7.2281003E-02
1104.783, 0.1227260
1105.265, 0.1541030
1105.747, 0.1537690
1106.229, 0.1230230
1106.711, 3.7028000E-02
1107.193, 8.7665997E-02
1107.675, 0.1355710
1108.157, 5.7321001E-02
1108.640, 3.0011000E-02
1109.122, 0.1698740
1109.604, 0.2442260
1110.086, 0.1342430
1110.568, 2.7560000E-03
1111.050, 4.3549999E-03
1111.532, 0.1153310
1112.014, 0.1543150
1112.496, 6.1329000E-02
1112.979, 4.0385000E-02
1113.461, 0.1771200
1113.943, 0.2803730
1114.425, 0.2816260
1114.907, 0.2583920
1115.389, 0.2812190
1115.871, 0.3125630
1116.353, 0.2493620
1116.835, 5.6017999E-02
1117.318, 1.6850000E-02
1117.800, 0.1131320
1118.282, 0.2119980
1118.764, 0.2367230
1119.246, 0.2350590
1119.728, 0.2094290
1120.210, 0.1973120
1120.692, 0.2770690
1121.175, 0.4448340
1121.657, 0.4859330
1122.139, 0.3595030
1122.621, 0.2085720
1123.103, 7.5999997E-05
1123.585, 0.1147010
1124.067, 2.9583000E-02
1124.549, 9.2818998E-02
1125.031, 6.0431000E-02
1125.514, 8.3149999E-02
1125.996, 0.1319890
1126.478, 7.3977001E-02
1126.960, 3.1808000E-02
1127.442, 0.2159720
1127.924, 0.2862310
1128.406, 0.1598570
1128.888, 2.3139999E-03
1129.370, 8.0893002E-02
1129.853, 8.6056001E-02
1130.335, 2.7829999E-02
1130.817, 9.3892001E-02
1131.299, 0.1703120
1131.781, 0.2001400
1132.263, 0.2203500
1132.745, 0.2374940
1133.227, 0.2692220
1133.710, 0.3296250
1134.192, 0.3797850
1134.674, 0.3560690
1135.156, 0.2790860
1135.638, 0.2374250
1136.120, 0.2246520
1136.602, 0.1647140
1137.084, 6.1636999E-02
1137.567, 8.8230997E-02
1138.049, 0.3072600
1138.531, 0.4670800
1139.013, 0.2945550
1139.495, 7.4689998E-03
1139.977, 1.2949000E-02
1140.459, 0.1677440
1140.941, 0.2125200
1141.423, 0.1422060
1141.906, 0.1261210
1142.388, 0.1980310
1142.870, 0.2622670
1143.352, 0.2586570
1143.834, 0.2272120
1144.316, 0.2245930
1144.798, 0.2180230
1145.280, 0.1133270
1145.762, 1.4472000E-02
1146.245, 6.2010000E-03
1146.727, 0.1602420
1147.209, 0.3145260
1147.691, 0.4171630
1148.173, 0.4754790
1148.655, 0.4733750
1149.137, 0.4558600
1149.619, 0.4902220
1150.102, 0.5088570
1150.584, 0.3753900
1151.066, 0.1851760
1151.548, 0.1687790
1152.030, 0.3433200
1152.512, 0.4453420
1152.994, 0.3033860
1153.476, 0.1834370
1153.958, 0.2473920
1154.441, 0.3417640
1154.923, 0.3778690
1155.405, 0.3747300
1155.887, 0.3629590
1156.369, 0.3404460
1156.851, 0.2724140
1157.333, 0.1148000
1157.815, 5.9921000E-02
1158.297, 0.2605340
1158.780, 0.4182640
1159.262, 0.4271570
1159.744, 0.3723180
1160.226, 0.2615180
1160.708, 0.1521080
1161.190, 0.1670670
1161.672, 0.3226030
1162.154, 0.4019530
1162.637, 0.3738680
1163.119, 0.3220930
1163.601, 0.1872220
1164.083, 0.1535600
1164.565, 0.3854600
1165.047, 0.6092670
1165.529, 0.5186690
1166.011, 0.2122680
1166.494, 5.3989001E-02
1166.976, 5.3599000E-02
1167.458, 0.1484750
1167.940, 0.3776950
1168.422, 0.4866800
1168.904, 0.3939070
1169.386, 0.3086580
1169.868, 0.3790440
1170.350, 0.4859110
1170.833, 0.4084250
1171.315, 0.1987180
1171.797, 0.1877170
1172.279, 0.3529540
1172.761, 0.4394270
1173.243, 0.4207450
1173.725, 0.3662640
1174.207, 0.3045930
1174.689, 0.2649520
1175.172, 0.2742580
1175.654, 0.3201320
1176.136, 0.3904060
1176.618, 0.4655030
1177.100, 0.4852300
1177.582, 0.4731140
1178.064, 0.5270670
1178.547, 0.6380010
1179.029, 0.6601600
1179.511, 0.5173340
1179.993, 0.3566330
1180.475, 0.2947480
1180.957, 0.2825100
1181.439, 0.2980410
1181.921, 0.3184740
1182.403, 0.2609090
1182.885, 0.1792930
1183.368, 0.2176050
1183.850, 0.3959670
1184.332, 0.5393710
1184.814, 0.5867350
1185.296, 0.5618050
1185.778, 0.4053720
1186.260, 0.2597560
1186.742, 0.1956410
1187.225, 0.1934500
1187.707, 0.2746780
1188.189, 0.4057130
1188.671, 0.4620440
1189.153, 0.4064820
1189.635, 0.3643980
1190.117, 0.3549340
1190.599, 0.3417380
1191.082, 0.3180290
1191.564, 0.2898380
1192.046, 0.2455430
1192.528, 0.2176230
1193.010, 0.2671740
1193.492, 0.3763410
1193.974, 0.3839710
1194.456, 0.2610520
1194.938, 0.1903830
1195.421, 0.1863340
1195.903, 0.2004680
1196.385, 0.2149260
1196.867, 0.2797840
1197.349, 0.4475560
1197.831, 0.6149220
1198.313, 0.5496620
1198.795, 0.3250660
1199.277, 0.3369550
1199.760, 0.5214380
1200.242, 0.5801690
1200.724, 0.4939890
1201.206, 0.4242620
1201.688, 0.4296970
1202.170, 0.4247980
1202.652, 0.3253710
1203.134, 0.2169710
1203.617, 0.2045630
1204.099, 0.2534510
1204.581, 0.3302110
1205.063, 0.4170770
1205.545, 0.5226180
1206.027, 0.6141760
1206.509, 0.5744280
1206.991, 0.3491850
1207.474, 0.1473860
1207.956, 3.9549999E-02
1208.438, 3.6959998E-02
1208.920, 0.2667880
1209.402, 0.4828350
1209.884, 0.4336140
1210.366, 0.2734140
1210.848, 0.2717970
1211.330, 0.4254240
1211.813, 0.4840550
1212.295, 0.3347890
1212.777, 0.2683350
1213.259, 0.3808230
1213.741, 0.4256440
1214.223, 0.2766540
1214.705, 0.1502900
1215.187, 0.2259460
1215.669, 0.3809070
1216.152, 0.3725330
1216.634, 0.2163170
1217.116, 0.1265340
1217.598, 0.1037040
1218.080, 0.1559300
1218.562, 0.2880240
1219.044, 0.4337760
1219.526, 0.5731150
1220.009, 0.6224850
1220.491, 0.5025510
1220.973, 0.3105090
1221.455, 0.2001340
1221.937, 0.1545330
1222.419, 0.1406690
1222.901, 0.1513570
1223.383, 0.1759010
1223.865, 0.2081270
1224.348, 0.2215910
1224.830, 0.2148710
1225.312, 0.2699280
1225.794, 0.5099640
1226.276, 0.7038180
1226.758, 0.6297270
1227.240, 0.4794450
1227.722, 0.4016350
1228.204, 0.3647600
1228.687, 0.3180460
1229.169, 0.2604980
1229.651, 0.2026180
1230.133, 0.1351470
1230.615, 0.1362650
1231.097, 0.3526960
1231.579, 0.4404570
1232.061, 0.1686910
1232.544, 3.3686001E-02
1233.026, 7.4941002E-02
1233.508, 0.2934640
1233.990, 0.4134860
1234.472, 0.4462240
1234.954, 0.4309980
1235.436, 0.3621790
1235.918, 0.2629050
1236.401, 0.1194930
1236.883, 0.1180690
1237.365, 0.1953640
1237.847, 0.3556750
1238.329, 0.4471580
1238.811, 0.4735120
1239.293, 0.2396050
1239.775, 0.3418270
1240.257, 0.3093830
1240.740, 0.2714470
1241.222, 0.4210840
1241.704, 0.2251960
1242.186, 0.3718520
1242.668, 0.3817820
1243.150, 0.4543260
1243.632, 0.3913670
1244.114, 0.3703070
1244.596, 0.4848600
1245.079, 0.5243830
1245.561, 0.4459600
1246.043, 0.5226710
1246.525, 0.3222830
1247.007, 0.3651050
1247.489, 0.5128770
1247.971, 0.4414060
1248.453, 0.5207340
1248.936, 0.5426750
1249.418, 0.3036810
1249.900, 0.5185490
1250.382, 0.5371390
1250.864, 0.2698510
1251.346, 0.1947770
1251.828, 0.2048420
1252.310, 0.2846010
1252.792, 0.4425760
1253.275, 0.6219590
1253.757, 0.5358750
1254.239, 0.2167690
1254.721, 0.1062930
1255.203, 0.1919360
1255.685, 0.1548090
1256.167, 4.6973001E-02
1256.649, 0.1032300
1257.131, 0.1490990
1257.614, 0.4264910
1258.096, 0.4255890
1258.578, 0.3306850
1259.060, 0.3503180
1259.542, 0.4125590
1260.024, 0.4508420
1260.506, 0.4548090
1260.988, 0.3845420
1261.471, 0.2730980
1261.953, 0.2723050
1262.435, 0.4589900
1262.917, 0.5812830
1263.399, 0.5628540
1263.881, 0.4916110
1264.363, 0.3086410
1264.845, 0.1797110
1265.328, 0.2117710
1265.810, 0.3104880
1266.292, 0.3694150
1266.774, 0.4044670
1267.256, 0.5015120
1267.738, 0.6818780
1268.220, 0.6668020
1268.702, 0.4483540
1269.184, 0.2958650
1269.667, 0.2572360
1270.149, 0.2501110
1270.631, 0.2113760
1271.113, 0.1866660
1271.595, 0.1469150
1272.077, 0.1006800
1272.559, 7.0830001E-03
1273.041, 4.3101002E-02
1273.523, 0.1729760
1274.006, 0.4874970
1274.488, 0.5956500
1274.970, 0.5117890
1275.452, 0.4148900
1275.934, 0.3532170
1276.416, 0.2832410
1276.898, 0.1274240
1277.380, 5.4814000E-02
1277.863, 0.1593980
1278.345, 0.2999110
1278.827, 0.4544120
1279.309, 0.5675410
1279.791, 0.4818900
1280.273, 0.2878910
1280.755, 0.1901510
1281.237, 0.1817570
1281.719, 0.1224510
1282.202, 2.9390000E-03
1282.684, 1.4695000E-02
1283.166, 0.1933100
1283.648, 0.1442260
1284.130, 0.0000000E+00
##END=



