##NAMES=Wilkinsonite
##RRUFFID=R060922
##IDEAL CHEMISTRY=Na_4_(Fe^2+^_8_Fe^3+^_4_)O_4_[Si_12_O_36_]
##LOCALITY=Warrumbungle Volcanics, New South Wales, Australia
##OWNER=RRUFF
##SOURCE=
##DESCRIPTION=Black anhedral grains found as inclusions within colorless anorthoclase
##STATUS=The identification of this mineral is confirmed by single-crystal X-ray diffraction and chemical analysis.
##URL=rruff.info/R060922
##MEASURED CHEMISTRY=Na_1.00_(Fe^2+^_1.87_Mn_0.07_Fe^3+^_0.03_)_Σ=2_(Fe^3+^_0.97_Cr_0.03_)_Σ=1_(Si_2.94_Al_0.06_)_Σ=3_O_10_ ; the dark phase is anorthoclase: (Na_0.71_K_0.29_)_Σ=1_(Al_0.95_Fe^3+^_0.05_)_Σ=1_Si_3.00_O_8_
143.0053, 0.0000000E+00
143.4874, 1.572510
143.9695, 12.11133
144.4517, 1.945557
144.9338, 11.00171
145.4159, 10.82324
145.8980, 95.79565
146.3801, 222.3972
146.8622, 335.8647
147.3444, 431.7478
147.8265, 515.8013
148.3086, 581.3408
148.7907, 639.2720
149.2728, 709.9634
149.7549, 816.9741
150.2371, 945.9556
150.7192, 1030.142
151.2013, 1049.258
151.6834, 1044.854
152.1655, 1025.028
152.6476, 996.9087
153.1298, 972.6304
153.6119, 960.8301
154.0940, 959.7007
154.5761, 956.1619
155.0582, 941.8201
155.5403, 934.8340
156.0225, 946.1938
156.5046, 968.6011
156.9867, 989.1553
157.4688, 999.4214
157.9509, 999.4883
158.4330, 991.2632
158.9152, 951.0420
159.3973, 927.0923
159.8794, 939.5933
160.3615, 978.4106
160.8436, 1021.431
161.3257, 1051.494
161.8079, 1069.175
162.2900, 1101.916
162.7721, 1164.827
163.2542, 1230.028
163.7363, 1297.825
164.2184, 1362.651
164.7006, 1413.310
165.1827, 1438.845
165.6648, 1439.286
166.1469, 1455.314
166.6290, 1504.208
167.1111, 1551.440
167.5933, 1589.503
168.0754, 1618.141
168.5575, 1638.299
169.0396, 1650.019
169.5217, 1653.209
170.0038, 1657.661
170.4860, 1661.929
170.9681, 1668.784
171.4502, 1684.694
171.9323, 1704.248
172.4144, 1715.065
172.8965, 1706.975
173.3787, 1680.065
173.8608, 1660.899
174.3429, 1669.251
174.8250, 1664.618
175.3071, 1614.902
175.7892, 1539.387
176.2714, 1485.382
176.7535, 1489.943
177.2356, 1550.972
177.7177, 1591.618
178.1998, 1615.658
178.6819, 1620.030
179.1641, 1592.179
179.6462, 1542.373
180.1283, 1493.939
180.6104, 1462.663
181.0925, 1447.516
181.5746, 1431.438
182.0567, 1416.367
182.5389, 1398.765
183.0210, 1371.069
183.5031, 1339.144
183.9852, 1319.611
184.4673, 1326.100
184.9494, 1353.284
185.4316, 1350.585
185.9137, 1294.640
186.3958, 1241.131
186.8779, 1209.174
187.3600, 1194.656
187.8421, 1187.364
188.3243, 1182.987
188.8064, 1180.035
189.2885, 1169.617
189.7706, 1149.954
190.2527, 1126.718
190.7348, 1100.113
191.2170, 1071.339
191.6991, 1040.570
192.1812, 1005.580
192.6633, 971.5747
193.1454, 961.8237
193.6275, 1015.598
194.1097, 1042.942
194.5918, 995.5811
195.0739, 902.1323
195.5560, 821.6426
196.0381, 782.0781
196.5202, 772.6245
197.0024, 762.0020
197.4845, 749.4136
197.9666, 737.1846
198.4487, 726.8745
198.9308, 717.5728
199.4129, 709.0635
199.8951, 703.4521
200.3772, 694.0747
200.8593, 649.9380
201.3414, 558.7939
201.8235, 492.4604
202.3056, 482.5771
202.7878, 508.2236
203.2699, 538.7588
203.7520, 567.8813
204.2341, 584.6870
204.7162, 558.5430
205.1983, 474.2368
205.6805, 406.4365
206.1626, 379.2261
206.6447, 378.0005
207.1268, 383.2798
207.6089, 391.2178
208.0910, 397.1445
208.5732, 390.1143
209.0553, 367.5171
209.5374, 349.6953
210.0195, 341.8901
210.5016, 341.8711
210.9837, 350.3804
211.4659, 368.3589
211.9480, 380.5044
212.4301, 362.7070
212.9122, 313.3101
213.3943, 266.5317
213.8764, 215.1187
214.3586, 175.7529
214.8407, 178.4673
215.3228, 228.8750
215.8049, 279.4736
216.2870, 270.3115
216.7691, 200.3965
217.2513, 162.6270
217.7334, 197.1953
218.2155, 250.1440
218.6976, 270.4946
219.1797, 254.7148
219.6618, 229.8696
220.1440, 215.3613
220.6261, 211.4634
221.1082, 213.6079
221.5903, 226.4092
222.0724, 240.2563
222.5546, 248.4961
223.0367, 251.7676
223.5188, 254.6196
224.0009, 263.1987
224.4830, 274.0078
224.9651, 274.2573
225.4473, 256.6064
225.9294, 233.5283
226.4115, 205.4014
226.8936, 175.9863
227.3757, 162.4355
227.8578, 180.1709
228.3400, 221.3574
228.8221, 248.1108
229.3042, 241.8647
229.7863, 242.4292
230.2684, 280.9736
230.7505, 342.0078
231.2327, 378.8110
231.7148, 364.1138
232.1969, 317.8711
232.6790, 299.6255
233.1611, 326.6235
233.6432, 346.6211
234.1254, 337.4175
234.6075, 310.6523
235.0896, 286.6621
235.5717, 272.2598
236.0538, 265.9971
236.5359, 268.0938
237.0181, 287.0117
237.5002, 292.1572
237.9823, 261.1919
238.4644, 218.7759
238.9465, 196.7139
239.4286, 203.8823
239.9108, 230.9399
240.3929, 270.4941
240.8750, 334.2222
241.3571, 367.6514
241.8392, 344.2036
242.3213, 301.0156
242.8035, 272.3110
243.2856, 263.6187
243.7677, 261.6680
244.2498, 252.9448
244.7319, 235.6763
245.2140, 220.0156
245.6962, 204.0361
246.1783, 191.0352
246.6604, 183.9365
247.1425, 182.4097
247.6246, 183.7744
248.1067, 186.9238
248.5889, 191.8105
249.0710, 189.6812
249.5531, 160.2695
250.0352, 144.4375
250.5173, 170.2920
250.9994, 226.0674
251.4816, 283.6172
251.9637, 330.1035
252.4458, 360.8066
252.9279, 339.5708
253.4100, 213.4268
253.8921, 103.6055
254.3743, 30.51514
254.8564, 7.271973
255.3385, 4.461426
255.8206, 43.56445
256.3027, 115.7080
256.7849, 154.7529
257.2670, 133.7603
257.7491, 109.9160
258.2312, 68.90430
258.7133, 33.39746
259.1954, 36.64111
259.6776, 86.16553
260.1597, 147.1079
260.6418, 160.6357
261.1239, 85.79150
261.6060, 45.28369
262.0881, 60.83398
262.5703, 90.78320
263.0524, 112.7432
263.5345, 120.6753
264.0166, 114.2632
264.4987, 90.34375
264.9808, 41.67041
265.4630, 10.80127
265.9451, 15.76074
266.4272, 19.32666
266.9093, 0.1103520
267.3914, 35.50244
267.8735, 66.86719
268.3557, 78.03027
268.8378, 69.55273
269.3199, 56.99268
269.8020, 21.80957
270.2841, 2.256348
270.7662, 16.27393
271.2484, 48.95898
271.7305, 81.13672
272.2126, 103.7324
272.6947, 113.2642
273.1768, 94.98486
273.6589, 19.22168
274.1411, 36.82227
274.6232, 64.84326
275.1053, 69.05566
275.5874, 46.83203
276.0695, 1.944336
276.5516, 58.94629
277.0338, 94.84766
277.5159, 105.8032
277.9980, 107.0322
278.4801, 97.63916
278.9622, 81.22217
279.4443, 50.37891
279.9265, 8.710938
280.4086, 20.61816
280.8907, 2.950195
281.3728, 65.34375
281.8549, 102.1016
282.3370, 86.08105
282.8192, 54.98438
283.3013, 25.60840
283.7834, 2.920898
284.2655, 35.98340
284.7476, 79.65674
285.2297, 130.3979
285.7119, 176.9604
286.1940, 227.0591
286.6761, 255.6899
287.1582, 229.6831
287.6403, 181.4009
288.1224, 158.2881
288.6046, 183.3364
289.0867, 232.1069
289.5688, 273.6440
290.0509, 308.2334
290.5330, 334.6191
291.0151, 350.8413
291.4973, 358.6616
291.9794, 357.4971
292.4615, 344.1919
292.9436, 334.4751
293.4257, 347.1475
293.9078, 376.6572
294.3900, 391.4019
294.8721, 377.1309
295.3542, 354.4731
295.8363, 344.2695
296.3184, 345.7075
296.8005, 360.9478
297.2827, 418.3374
297.7648, 482.2725
298.2469, 479.2075
298.7290, 390.5669
299.2111, 296.6606
299.6932, 271.0962
300.1754, 307.8506
300.6575, 345.3350
301.1396, 383.2749
301.6217, 415.5376
302.1038, 436.9678
302.5859, 447.9663
303.0681, 450.1694
303.5501, 440.0830
304.0323, 423.9346
304.5144, 429.4609
304.9965, 478.3706
305.4786, 520.3257
305.9607, 538.4795
306.4428, 539.5786
306.9250, 533.0439
307.4071, 521.7979
307.8892, 510.0312
308.3713, 506.4956
308.8534, 523.7241
309.3355, 525.4438
309.8177, 493.4517
310.2998, 456.5771
310.7819, 437.5908
311.2640, 440.3447
311.7461, 457.7104
312.2282, 484.3989
312.7104, 523.9097
313.1925, 548.9390
313.6746, 552.7969
314.1567, 551.5195
314.6388, 551.8423
315.1209, 552.2227
315.6031, 548.1260
316.0852, 538.0068
316.5673, 522.1445
317.0494, 501.7529
317.5315, 469.7515
318.0136, 443.0225
318.4958, 424.0571
318.9779, 411.6836
319.4600, 406.7368
319.9421, 409.4717
320.4242, 414.0635
320.9063, 410.5254
321.3885, 395.8350
321.8706, 386.6870
322.3527, 395.7202
322.8348, 402.1943
323.3169, 388.1030
323.7990, 357.4424
324.2812, 333.1548
324.7633, 337.5884
325.2454, 366.1328
325.7275, 386.8506
326.2096, 398.6758
326.6917, 407.7607
327.1739, 426.5283
327.6560, 445.3413
328.1381, 440.6938
328.6202, 389.0522
329.1023, 320.8252
329.5844, 283.7251
330.0666, 280.8799
330.5487, 280.9995
331.0308, 269.4819
331.5129, 261.0684
331.9950, 273.0264
332.4771, 311.3574
332.9593, 342.8306
333.4414, 339.2891
333.9235, 311.1382
334.4056, 291.7783
334.8877, 293.3633
335.3698, 299.0908
335.8520, 289.0063
336.3341, 264.5562
336.8162, 230.7021
337.2983, 165.2705
337.7804, 107.6592
338.2625, 100.0181
338.7447, 138.4990
339.2268, 182.3594
339.7089, 208.8115
340.1910, 221.8921
340.6731, 233.1221
341.1552, 240.4419
341.6374, 248.3657
342.1195, 265.4204
342.6016, 281.8755
343.0837, 238.3452
343.5658, 277.2285
344.0479, 297.1724
344.5301, 299.1958
345.0122, 229.5659
345.4943, 252.5107
345.9764, 238.3867
346.4585, 222.7607
346.9406, 258.7959
347.4228, 199.6987
347.9049, 249.5918
348.3870, 257.9224
348.8691, 259.6064
349.3512, 273.3574
349.8333, 323.3765
350.3155, 358.2710
350.7976, 351.8594
351.2797, 325.3296
351.7618, 311.5186
352.2439, 327.4160
352.7260, 357.1055
353.2082, 368.4106
353.6903, 355.9609
354.1724, 344.3135
354.6545, 337.0508
355.1366, 334.3984
355.6187, 338.6899
356.1009, 349.7979
356.5830, 361.2480
357.0651, 368.1538
357.5472, 371.2637
358.0293, 375.1514
358.5114, 383.0034
358.9936, 385.5083
359.4757, 373.8315
359.9578, 351.3960
360.4399, 324.8218
360.9220, 288.8110
361.4041, 254.4541
361.8863, 234.9351
362.3684, 228.6909
362.8505, 222.5347
363.3326, 209.6724
363.8147, 194.0142
364.2968, 185.1265
364.7790, 185.2925
365.2611, 185.5620
365.7432, 190.9185
366.2253, 191.9106
366.7074, 168.4502
367.1895, 117.9868
367.6717, 72.08594
368.1538, 67.77930
368.6359, 114.5674
369.1180, 139.1973
369.6001, 132.7114
370.0822, 116.6172
370.5644, 96.07227
371.0465, 73.48633
371.5286, 52.26953
372.0107, 34.64990
372.4928, 18.09521
372.9749, 7.177734
373.4571, 61.13232
373.9392, 88.50342
374.4213, 67.23584
374.9034, 32.75488
375.3855, 9.891113
375.8676, 3.592285
376.3498, 6.492188
376.8319, 17.68506
377.3140, 37.62354
377.7961, 33.93604
378.2782, 14.90674
378.7603, 58.55664
379.2425, 67.02148
379.7246, 54.71289
380.2067, 50.06055
380.6888, 71.47705
381.1709, 96.27832
381.6530, 86.60156
382.1352, 41.65088
382.6173, 6.309082
383.0994, 1.649902
383.5815, 6.782227
384.0636, 13.05664
384.5457, 15.22314
385.0279, 27.34619
385.5100, 66.15381
385.9921, 114.3843
386.4742, 143.0679
386.9563, 147.9448
387.4384, 151.6929
387.9206, 177.9248
388.4027, 225.0415
388.8848, 240.0791
389.3669, 174.9731
389.8490, 131.4087
390.3311, 169.9844
390.8133, 255.5576
391.2954, 323.5195
391.7775, 346.2051
392.2596, 342.8130
392.7417, 350.3247
393.2238, 373.5674
393.7060, 398.9775
394.1881, 431.6016
394.6702, 461.7910
395.1523, 478.6304
395.6344, 486.2271
396.1165, 500.9604
396.5987, 538.9282
397.0808, 594.5073
397.5629, 631.5200
398.0450, 642.4658
398.5271, 647.4751
399.0092, 643.9336
399.4914, 642.4673
399.9735, 659.5654
400.4556, 701.6396
400.9377, 740.8594
401.4198, 741.8496
401.9019, 710.0225
402.3841, 694.2744
402.8662, 713.3633
403.3483, 731.2383
403.8304, 704.5288
404.3125, 644.3599
404.7946, 601.4888
405.2768, 593.4639
405.7589, 604.4160
406.2410, 637.6802
406.7231, 684.0186
407.2052, 688.8662
407.6873, 612.8711
408.1695, 495.8931
408.6516, 447.2959
409.1337, 512.7520
409.6158, 556.1929
410.0979, 542.9907
410.5800, 512.0630
411.0622, 497.5200
411.5443, 504.2402
412.0264, 521.1450
412.5085, 541.1929
412.9906, 564.6558
413.4727, 561.1069
413.9549, 491.4814
414.4370, 437.5312
414.9191, 428.1113
415.4012, 438.5557
415.8833, 435.6338
416.3654, 407.1367
416.8476, 371.1401
417.3297, 351.1641
417.8118, 347.7798
418.2939, 357.7798
418.7760, 402.8711
419.2581, 435.7114
419.7403, 412.6060
420.2224, 349.4746
420.7045, 304.7251
421.1866, 315.3418
421.6687, 351.8511
422.1508, 380.7905
422.6330, 402.0249
423.1151, 402.7705
423.5972, 366.8047
424.0793, 316.3701
424.5614, 302.0908
425.0435, 339.7524
425.5257, 361.1396
426.0078, 335.2690
426.4899, 291.7861
426.9720, 253.4624
427.4541, 227.1680
427.9362, 230.6821
428.4184, 287.5859
428.9005, 394.7012
429.3826, 442.1987
429.8647, 375.8579
430.3468, 318.9546
430.8289, 287.7417
431.3111, 276.9277
431.7932, 285.2598
432.2753, 312.6270
432.7574, 348.3184
433.2395, 371.6313
433.7216, 381.4683
434.2038, 397.1992
434.6859, 429.1221
435.1680, 453.7349
435.6501, 448.2769
436.1322, 429.2661
436.6143, 431.8398
437.0965, 478.9492
437.5786, 541.4717
438.0607, 588.0132
438.5428, 619.6792
439.0249, 635.0576
439.5070, 627.7285
439.9892, 612.2842
440.4713, 612.3940
440.9534, 629.1680
441.4355, 641.1582
441.9176, 628.9941
442.3997, 618.5742
442.8819, 643.5713
443.3640, 697.1182
443.8461, 735.5923
444.3282, 727.1631
444.8103, 688.0518
445.2924, 684.6079
445.7746, 782.6094
446.2567, 829.5693
446.7388, 772.1357
447.2209, 693.2222
447.7030, 660.0693
448.1852, 680.3252
448.6673, 722.7925
449.1494, 763.4316
449.6315, 801.5220
450.1136, 831.5015
450.5957, 855.8911
451.0779, 866.6553
451.5600, 848.5986
452.0421, 821.3252
452.5242, 806.7812
453.0063, 810.1548
453.4884, 824.1729
453.9706, 852.3638
454.4527, 887.1660
454.9348, 899.3379
455.4169, 878.8589
455.8990, 860.3286
456.3811, 881.9136
456.8633, 939.7534
457.3454, 965.0151
457.8275, 937.5039
458.3096, 897.8877
458.7917, 858.0459
459.2738, 820.2549
459.7560, 783.9253
460.2381, 749.3569
460.7202, 726.5293
461.2023, 734.9111
461.6844, 791.2490
462.1665, 818.8618
462.6487, 798.0220
463.1308, 769.6626
463.6129, 751.5195
464.0950, 736.8691
464.5771, 707.8516
465.0592, 652.3711
465.5414, 591.3901
466.0235, 562.0991
466.5056, 566.7778
466.9877, 577.9043
467.4698, 602.2095
467.9519, 616.3555
468.4341, 594.7544
468.9162, 542.4556
469.3983, 493.3174
469.8804, 457.8516
470.3625, 431.6758
470.8446, 410.5015
471.3268, 394.7637
471.8089, 388.6343
472.2910, 396.2031
472.7731, 408.9238
473.2552, 408.0767
473.7373, 379.7275
474.2195, 364.4209
474.7016, 382.8276
475.1837, 397.2437
475.6658, 378.3960
476.1479, 331.9902
476.6300, 279.9590
477.1122, 234.3047
477.5943, 198.8545
478.0764, 193.6694
478.5585, 241.7266
479.0406, 259.9766
479.5227, 192.7998
480.0049, 116.5337
480.4870, 87.73145
480.9691, 105.6240
481.4512, 123.5015
481.9333, 108.3545
482.4154, 78.30273
482.8976, 65.81641
483.3797, 71.88721
483.8618, 77.64014
484.3439, 73.83057
484.8260, 63.65820
485.3081, 55.55127
485.7903, 55.13525
486.2724, 43.51318
486.7545, 6.619629
487.2366, 35.35400
487.7187, 73.35059
488.2008, 101.3101
488.6830, 101.4844
489.1651, 55.80518
489.6472, 20.55078
490.1293, 52.93799
490.6114, 12.30420
491.0935, 21.88574
491.5757, 35.59717
492.0578, 41.02490
492.5399, 48.64014
493.0220, 58.54541
493.5041, 61.91553
493.9862, 50.71240
494.4684, 28.71094
494.9505, 0.9702150
495.4326, 34.51172
495.9147, 57.52539
496.3968, 55.69336
496.8789, 36.84424
497.3611, 16.11084
497.8432, 9.026367
498.3253, 28.40283
498.8074, 42.60596
499.2895, 47.63379
499.7716, 33.39941
500.2538, 3.716797
500.7359, 21.83594
501.2180, 28.61328
501.7001, 21.79688
502.1822, 24.66846
502.6643, 42.95605
503.1465, 61.86914
503.6286, 80.68164
504.1107, 98.97217
504.5928, 114.3291
505.0749, 128.0562
505.5570, 146.7783
506.0392, 185.6782
506.5213, 228.6968
507.0034, 225.8208
507.4855, 169.8843
507.9676, 134.1719
508.4497, 157.3306
508.9319, 208.8057
509.4140, 240.0044
509.8961, 249.3545
510.3782, 251.4829
510.8603, 245.2998
511.3424, 236.9321
511.8246, 228.0957
512.3067, 221.4751
512.7888, 225.9902
513.2709, 247.8721
513.7531, 280.1147
514.2352, 301.5776
514.7173, 302.1426
515.1994, 311.6597
515.6815, 349.2666
516.1636, 379.8105
516.6458, 372.5625
517.1279, 338.7124
517.6100, 317.0034
518.0921, 332.9170
518.5742, 369.1377
519.0563, 403.8521
519.5385, 436.9321
520.0206, 441.9585
520.5027, 392.7173
520.9848, 339.1616
521.4669, 354.7451
521.9490, 438.1270
522.4312, 509.5610
522.9133, 553.5732
523.3954, 585.7886
523.8775, 624.2930
524.3596, 658.3950
524.8417, 652.9463
525.3239, 593.0859
525.8060, 522.0332
526.2881, 517.3442
526.7702, 602.2100
527.2523, 671.8613
527.7344, 724.8584
528.2166, 762.7231
528.6987, 775.4727
529.1808, 775.7480
529.6629, 784.3296
530.1450, 808.5171
530.6271, 843.5981
531.1093, 895.6460
531.5914, 956.5815
532.0735, 987.0234
532.5556, 973.4878
533.0377, 956.6997
533.5198, 975.4639
534.0020, 1026.527
534.4841, 1056.825
534.9662, 1038.622
535.4483, 1033.864
535.9304, 1076.181
536.4125, 1135.107
536.8947, 1171.377
537.3768, 1178.712
537.8589, 1181.439
538.3410, 1204.014
538.8231, 1244.921
539.3052, 1283.171
539.7874, 1314.390
540.2695, 1351.626
540.7516, 1418.994
541.2337, 1482.965
541.7158, 1502.142
542.1979, 1469.928
542.6801, 1447.823
543.1622, 1487.555
543.6443, 1549.250
544.1264, 1575.231
544.6085, 1563.923
545.0906, 1531.364
545.5728, 1479.550
546.0549, 1429.489
546.5370, 1435.938
547.0191, 1557.078
547.5012, 1642.644
547.9833, 1678.917
548.4655, 1685.593
548.9476, 1662.730
549.4297, 1619.729
549.9117, 1565.945
550.3939, 1499.668
550.8760, 1446.214
551.3581, 1466.925
551.8402, 1566.175
552.3223, 1632.607
552.8044, 1636.149
553.2866, 1618.693
553.7687, 1619.098
554.2508, 1630.153
554.7329, 1622.167
555.2150, 1574.411
555.6971, 1523.297
556.1793, 1473.159
556.6614, 1439.037
557.1435, 1456.316
557.6256, 1528.313
558.1077, 1596.986
558.5898, 1598.149
559.0720, 1532.971
559.5541, 1503.233
560.0362, 1544.198
560.5183, 1566.456
561.0004, 1527.218
561.4825, 1473.523
561.9647, 1453.171
562.4468, 1472.357
562.9289, 1495.714
563.4110, 1506.285
563.8931, 1503.242
564.3752, 1479.462
564.8574, 1435.055
565.3395, 1391.282
565.8216, 1356.012
566.3037, 1332.571
566.7858, 1328.496
567.2679, 1354.478
567.7501, 1374.987
568.2322, 1405.813
568.7143, 1416.352
569.1964, 1370.788
569.6785, 1295.789
570.1606, 1246.154
570.6428, 1248.055
571.1249, 1265.287
571.6070, 1238.875
572.0891, 1170.547
572.5712, 1124.831
573.0533, 1113.934
573.5355, 1111.606
574.0176, 1108.708
574.4997, 1100.671
574.9818, 1073.646
575.4639, 1008.951
575.9460, 954.4998
576.4282, 941.4285
576.9103, 942.3560
577.3924, 922.5750
577.8745, 880.9797
578.3566, 842.5347
578.8387, 827.4360
579.3209, 825.7832
579.8030, 797.6433
580.2851, 727.9731
580.7672, 668.6641
581.2493, 624.6423
581.7314, 596.9434
582.2136, 601.7520
582.6957, 627.5793
583.1778, 629.0586
583.6599, 575.1790
584.1420, 502.4629
584.6241, 423.7104
585.1063, 356.5605
585.5884, 359.5098
586.0705, 449.5056
586.5526, 544.2515
587.0347, 557.1497
587.5168, 485.7085
587.9990, 419.5496
588.4811, 344.9045
588.9632, 291.0022
589.4453, 275.1729
589.9274, 275.5779
590.4095, 274.1265
590.8917, 266.7358
591.3738, 254.3010
591.8559, 239.2361
592.3380, 218.9150
592.8201, 178.6484
593.3022, 118.3774
593.7844, 85.20776
594.2665, 103.5635
594.7486, 146.2737
595.2307, 175.2756
595.7128, 189.6594
596.1949, 192.9673
596.6771, 169.5378
597.1592, 150.8044
597.6413, 161.4280
598.1234, 182.9492
598.6055, 183.7283
599.0876, 154.6294
599.5698, 118.7693
600.0519, 102.0327
600.5340, 102.2041
601.0161, 105.5125
601.4982, 115.2786
601.9803, 115.6992
602.4625, 94.87061
602.9446, 62.62427
603.4267, 35.91040
603.9088, 14.37500
604.3909, 0.5651860
604.8730, 5.231201
605.3552, 5.952393
605.8373, 7.070313
606.3194, 8.321045
606.8015, 9.220459
607.2836, 9.717041
607.7657, 5.762695
608.2479, 10.65771
608.7300, 41.07544
609.2121, 71.21362
609.6942, 108.1033
610.1763, 132.6890
610.6584, 126.1707
611.1406, 104.2629
611.6227, 91.09668
612.1048, 94.52808
612.5869, 88.61011
613.0690, 50.29834
613.5511, 3.749023
614.0333, 27.08252
614.5154, 39.81543
614.9975, 32.47241
615.4796, 1.748535
615.9617, 34.64136
616.4438, 34.22559
616.9260, 18.78076
617.4081, 53.67603
617.8902, 62.47290
618.3723, 58.42334
618.8544, 41.31372
619.3365, 17.88599
619.8187, 0.7924800
620.3008, 12.75220
620.7829, 17.79688
621.2650, 6.007080
621.7471, 8.428223
622.2292, 2.167236
622.7114, 36.40454
623.1935, 64.22217
623.6756, 66.20215
624.1577, 51.69238
624.6398, 47.26221
625.1219, 62.04053
625.6041, 65.34570
626.0862, 37.74536
626.5683, 16.49316
627.0504, 22.91064
627.5325, 46.44263
628.0146, 67.07178
628.4968, 80.83618
628.9789, 84.04272
629.4610, 58.45166
629.9431, 25.16919
630.4252, 36.22754
630.9073, 92.34814
631.3895, 132.0601
631.8716, 110.7266
632.3537, 52.71704
632.8358, 33.83594
633.3179, 80.17212
