##NAMES=Wilkinsonite
##RRUFFID=R060922
##IDEAL CHEMISTRY=Na_4_(Fe^2+^_8_Fe^3+^_4_)O_4_[Si_12_O_36_]
##LOCALITY=Warrumbungle Volcanics, New South Wales, Australia
##OWNER=RRUFF
##SOURCE=
##DESCRIPTION=Black anhedral grains found as inclusions within colorless anorthoclase
##STATUS=The identification of this mineral is confirmed by single-crystal X-ray diffraction and chemical analysis.
##URL=rruff.info/R060922
##MEASURED CHEMISTRY=Na_1.00_(Fe^2+^_1.87_Mn_0.07_Fe^3+^_0.03_)_Σ=2_(Fe^3+^_0.97_Cr_0.03_)_Σ=1_(Si_2.94_Al_0.06_)_Σ=3_O_10_ ; the dark phase is anorthoclase: (Na_0.71_K_0.29_)_Σ=1_(Al_0.95_Fe^3+^_0.05_)_Σ=1_Si_3.00_O_8_
130.4138, 0.0000000E+00
130.8959, 1.196899
131.3781, 0.7390140
131.8602, 1.983887
132.3423, 7.587402
132.8244, 15.14099
133.3065, 23.70349
133.7886, 33.09424
134.2708, 43.78406
134.7529, 53.13232
135.2350, 54.58289
135.7171, 46.12134
136.1992, 37.86096
136.6814, 34.98193
137.1635, 37.28821
137.6456, 45.16187
138.1277, 60.61035
138.6098, 81.10022
139.0919, 97.32361
139.5741, 109.0934
140.0562, 116.7789
140.5383, 118.8463
141.0204, 110.1080
141.5025, 109.9620
141.9846, 124.8828
142.4668, 154.7488
142.9489, 176.0276
143.4310, 183.1038
143.9131, 186.2524
144.3952, 195.8751
144.8773, 210.3328
145.3595, 233.7260
145.8416, 269.9890
146.3237, 324.1788
146.8058, 370.5669
147.2879, 407.2910
147.7700, 436.9006
148.2522, 464.5896
148.7343, 493.5991
149.2164, 516.8243
149.6985, 531.1848
150.1806, 526.7534
150.6627, 530.2603
151.1449, 551.5813
151.6270, 581.7849
152.1091, 598.2075
152.5912, 584.2664
153.0733, 567.3796
153.5554, 559.6960
154.0376, 566.1455
154.5197, 577.3254
155.0018, 598.1758
155.4839, 625.4016
155.9660, 641.8098
156.4481, 635.7202
156.9303, 622.2622
157.4124, 611.7832
157.8945, 601.0432
158.3766, 598.7915
158.8587, 612.4473
159.3408, 641.1848
159.8230, 665.1995
160.3051, 681.6021
160.7872, 688.4321
161.2693, 684.0117
161.7514, 647.2488
162.2335, 615.5913
162.7157, 609.0842
163.1978, 630.4841
163.6799, 657.8635
164.1620, 689.5369
164.6441, 719.2402
165.1262, 737.2783
165.6084, 731.2900
166.0905, 717.8604
166.5726, 708.1992
167.0547, 704.1104
167.5368, 701.3228
168.0189, 692.5525
168.5011, 682.6436
168.9832, 682.4919
169.4653, 709.8357
169.9474, 743.9663
170.4295, 764.6028
170.9116, 766.8315
171.3938, 758.3669
171.8759, 738.4312
172.3580, 711.1543
172.8401, 690.5942
173.3222, 696.1443
173.8043, 711.2783
174.2865, 711.2310
174.7686, 683.2664
175.2507, 647.9758
175.7328, 627.7034
176.2149, 621.4963
176.6970, 620.8479
177.1792, 621.3291
177.6613, 622.7207
178.1434, 624.7837
178.6255, 628.7607
179.1076, 632.3982
179.5897, 634.6238
180.0719, 635.3679
180.5540, 628.5466
181.0361, 596.8186
181.5182, 550.5769
182.0003, 522.4180
182.4824, 536.6631
182.9646, 573.5679
183.4467, 586.2515
183.9288, 572.8613
184.4109, 552.9578
184.8930, 551.3237
185.3751, 564.3696
185.8573, 569.5349
186.3394, 548.2461
186.8215, 509.9419
187.3036, 495.5320
187.7857, 509.7021
188.2678, 526.5242
188.7500, 513.4900
189.2321, 471.8247
189.7142, 434.7698
190.1963, 421.3899
190.6784, 428.0938
191.1605, 427.7725
191.6427, 418.6631
192.1248, 404.3049
192.6069, 390.1584
193.0890, 376.2378
193.5711, 362.0769
194.0532, 346.2844
194.5354, 329.4697
195.0175, 317.8745
195.4996, 315.5630
195.9817, 316.6230
196.4638, 307.5925
196.9460, 287.4172
197.4281, 263.9800
197.9102, 237.8254
198.3923, 208.9031
198.8744, 196.1284
199.3565, 207.5347
199.8387, 232.6714
200.3208, 238.8416
200.8029, 222.7251
201.2850, 200.1150
201.7671, 181.2161
202.2492, 166.2007
202.7314, 153.1311
203.2135, 139.6721
203.6956, 127.1465
204.1777, 128.4036
204.6598, 148.9299
205.1419, 169.2427
205.6241, 170.8184
206.1062, 149.2561
206.5883, 138.3423
207.0704, 147.1775
207.5525, 170.8206
208.0346, 177.6116
208.5168, 164.8257
208.9989, 145.7502
209.4810, 130.1733
209.9631, 115.1262
210.4452, 107.2263
210.9273, 112.7017
211.4095, 131.1343
211.8916, 139.8337
212.3737, 134.6062
212.8558, 127.2129
213.3379, 131.7253
213.8200, 154.5703
214.3022, 171.3831
214.7843, 174.3647
215.2664, 161.8611
215.7485, 149.5244
216.2306, 138.7917
216.7127, 130.1548
217.1949, 122.7686
217.6770, 115.0417
218.1591, 113.4651
218.6412, 121.2744
219.1233, 139.8086
219.6054, 153.2939
220.0876, 158.6675
220.5697, 158.8655
221.0518, 159.8364
221.5339, 165.4956
222.0160, 167.8857
222.4981, 160.9893
222.9803, 139.7583
223.4624, 138.6538
223.9445, 170.6812
224.4266, 213.2712
224.9087, 227.9570
225.3908, 192.4448
225.8730, 169.7893
226.3551, 184.1831
226.8372, 249.1118
227.3193, 295.9639
227.8014, 322.0134
228.2835, 331.9609
228.7657, 331.9377
229.2478, 312.4253
229.7299, 298.6580
230.2120, 302.8242
230.6941, 336.5288
231.1762, 348.5042
231.6584, 328.2439
232.1405, 291.2688
232.6226, 268.1533
233.1047, 264.7332
233.5868, 266.1333
234.0689, 267.5188
234.5511, 269.2629
235.0332, 270.4868
235.5153, 274.5801
235.9974, 276.8457
236.4795, 265.8247
236.9616, 232.0090
237.4438, 198.8923
237.9259, 175.4001
238.4080, 162.4172
238.8901, 157.3542
239.3722, 167.3513
239.8543, 183.1292
240.3365, 181.7893
240.8186, 152.4509
241.3007, 121.7664
241.7828, 99.72705
242.2649, 86.11987
242.7470, 83.46118
243.2292, 100.4329
243.7113, 126.0403
244.1934, 130.1609
244.6755, 96.31543
245.1576, 65.14185
245.6397, 55.64722
246.1219, 80.87915
246.6040, 98.14233
247.0861, 105.8604
247.5682, 105.9822
248.0503, 103.3171
248.5324, 96.75903
249.0146, 89.15771
249.4967, 82.83032
249.9788, 82.76733
250.4609, 70.51123
250.9430, 34.48169
251.4251, 10.52368
251.9073, 23.61328
252.3894, 12.50732
252.8715, 53.14673
253.3536, 79.67188
253.8357, 92.21460
254.3178, 87.84912
254.8000, 56.92773
255.2821, 11.77588
255.7642, 11.43359
256.2463, 3.333008
256.7284, 10.28052
257.2105, 17.33569
257.6927, 15.49438
258.1748, 13.54614
258.6569, 11.63574
259.1390, 9.706543
259.6211, 6.473633
260.1032, 1.817383
260.5854, 4.277588
261.0675, 8.687744
261.5496, 50.03760
262.0317, 65.15161
262.5138, 43.71118
262.9959, 0.2382810
263.4781, 31.71143
263.9602, 52.59521
264.4423, 60.37305
264.9244, 48.91870
265.4065, 8.133301
265.8886, 12.68311
266.3708, 3.896484
266.8529, 19.85205
267.3350, 21.03125
267.8171, 10.73462
268.2992, 37.94751
268.7813, 39.80688
269.2635, 9.628662
269.7456, 13.72119
270.2277, 28.26807
270.7098, 36.52246
271.1919, 44.75439
271.6740, 55.35474
272.1562, 57.79944
272.6383, 42.17896
273.1204, 4.034424
273.6025, 19.04858
274.0846, 24.00854
274.5667, 16.53467
275.0489, 5.911377
275.5310, 8.918701
276.0131, 21.91528
276.4952, 32.59253
276.9773, 41.57935
277.4594, 36.15625
277.9416, 11.40527
278.4237, 20.49243
278.9058, 34.67700
279.3879, 27.70361
279.8700, 29.75879
280.3521, 66.23706
280.8343, 137.1782
281.3164, 166.9084
281.7985, 143.9990
282.2806, 101.9763
282.7627, 99.01904
283.2448, 137.1284
283.7270, 169.9626
284.2091, 173.0422
284.6912, 149.3289
285.1733, 131.3054
285.6554, 118.9717
286.1375, 112.9663
286.6197, 118.5474
287.1018, 135.0569
287.5839, 146.6069
288.0660, 138.3933
288.5481, 117.2632
289.0303, 120.6035
289.5124, 151.5847
289.9945, 192.2136
290.4766, 223.0547
290.9587, 244.6218
291.4409, 259.2891
291.9230, 263.9971
292.4051, 262.5947
292.8872, 266.8540
293.3693, 277.3462
293.8514, 289.0818
294.3336, 295.9988
294.8157, 299.3628
295.2978, 304.8149
295.7799, 317.0325
296.2620, 331.7820
296.7441, 339.5278
297.2263, 339.9902
297.7084, 339.1670
298.1905, 342.8960
298.6726, 349.7581
299.1547, 338.2100
299.6368, 365.8811
300.1190, 382.8069
300.6011, 389.5620
301.0832, 355.7090
301.5653, 374.2751
302.0474, 371.8240
302.5295, 368.5034
303.0117, 394.4277
303.4938, 366.4431
303.9759, 391.8875
304.4580, 395.9949
304.9401, 409.8569
305.4222, 402.5713
305.9044, 421.9653
306.3865, 454.4424
306.8686, 476.3877
307.3507, 480.5818
307.8328, 456.2026
308.3149, 481.0671
308.7971, 495.1848
309.2792, 498.7070
309.7613, 460.8640
310.2434, 476.6245
310.7255, 471.3657
311.2076, 465.2397
311.6898, 488.3577
312.1719, 457.5669
312.6540, 480.2056
313.1361, 481.5076
313.6182, 491.7932
314.1003, 481.3672
314.5825, 477.7996
315.0646, 495.3726
315.5467, 501.2292
316.0288, 488.6780
316.5109, 500.3142
316.9930, 468.7158
317.4752, 467.5618
317.9573, 454.5601
318.4394, 446.8904
318.9215, 426.4146
319.4036, 448.0898
319.8857, 459.0195
320.3679, 459.7812
320.8500, 419.3113
321.3321, 429.3579
321.8142, 417.1121
322.2963, 403.4731
322.7784, 419.7622
323.2606, 384.5193
323.7427, 403.7253
324.2248, 401.2122
324.7069, 407.0464
325.1890, 391.6394
325.6711, 384.4778
326.1533, 398.8870
326.6354, 402.2554
327.1175, 386.0730
327.5996, 393.0542
328.0817, 356.3557
328.5638, 356.2646
329.0460, 373.4290
329.5281, 335.4685
330.0102, 339.5642
330.4923, 366.5811
330.9744, 371.0291
331.4565, 332.0078
331.9387, 285.8606
332.4208, 261.0935
332.9029, 267.0259
333.3850, 277.0791
333.8671, 295.6709
334.3492, 317.3630
334.8314, 321.3442
335.3135, 300.3887
335.7956, 281.5122
336.2777, 284.8748
336.7598, 321.0713
337.2419, 332.9944
337.7241, 307.0276
338.2062, 260.3684
338.6883, 244.7732
339.1704, 268.1130
339.6525, 293.1538
340.1346, 296.6040
340.6168, 276.1328
341.0989, 272.5408
341.5810, 293.3801
342.0631, 321.2607
342.5452, 319.6157
343.0273, 286.6885
343.5095, 261.0085
343.9916, 266.5830
344.4737, 297.8782
344.9558, 313.9922
345.4379, 312.8267
345.9200, 304.2815
346.4022, 297.4741
346.8843, 292.8452
347.3664, 293.6958
347.8485, 308.9136
348.3306, 328.3884
348.8127, 322.9424
349.2949, 291.7251
349.7770, 261.3342
350.2591, 259.8130
350.7412, 278.3711
351.2233, 296.7600
351.7054, 313.8066
352.1876, 322.9136
352.6697, 311.4275
353.1518, 281.4949
353.6339, 249.6074
354.1160, 214.8989
354.5981, 189.4773
355.0803, 193.1169
355.5624, 245.6670
356.0445, 302.0183
356.5266, 326.7495
357.0087, 326.1016
357.4908, 319.2803
357.9730, 314.0715
358.4551, 308.1406
358.9372, 299.8823
359.4193, 289.3591
359.9014, 275.5444
360.3835, 249.5959
360.8657, 220.9832
361.3478, 205.9529
361.8299, 219.1196
362.3120, 239.7764
362.7941, 260.5623
363.2762, 281.6409
363.7584, 297.6633
364.2405, 306.5249
364.7226, 309.9766
365.2047, 309.8911
365.6868, 300.3674
366.1689, 293.6296
366.6511, 295.8062
367.1332, 307.4993
367.6153, 310.2759
368.0974, 290.4219
368.5795, 269.4551
369.0616, 262.2500
369.5438, 287.3262
370.0259, 299.5803
370.5080, 288.9548
370.9901, 260.9116
371.4722, 244.6899
371.9543, 248.0488
372.4365, 252.4382
372.9186, 247.5742
373.4007, 229.1865
373.8828, 213.5999
374.3649, 182.5889
374.8470, 196.9492
375.3292, 200.5720
375.8113, 194.0417
376.2934, 146.9204
376.7755, 152.2319
377.2576, 136.5386
377.7397, 119.9893
378.2219, 132.6936
378.7040, 91.50732
379.1861, 103.7781
379.6682, 94.74170
380.1503, 95.49536
380.6324, 75.13354
381.1146, 61.30908
381.5967, 68.64062
382.0788, 64.27271
382.5609, 41.52051
383.0430, 42.98267
383.5251, 22.27734
384.0073, 16.67725
384.4894, 3.199951
384.9715, 10.71826
385.4536, 19.08252
385.9357, 1.818115
386.4178, 31.15747
386.9000, 10.68799
387.3821, 11.52637
387.8642, 2.580078
388.3463, 14.75220
388.8284, 20.38599
389.3105, 4.872314
389.7927, 1.062256
390.2748, 15.64355
390.7569, 6.024658
391.2390, 39.62109
391.7211, 35.28271
392.2032, 4.953613
392.6854, 18.30298
393.1675, 21.67358
393.6496, 16.32104
394.1317, 14.12500
394.6138, 24.42969
395.0959, 32.23486
395.5781, 30.91260
396.0602, 21.30786
396.5423, 14.86597
397.0244, 16.11523
397.5065, 19.37598
397.9886, 21.33032
398.4708, 17.32959
398.9529, 17.69751
399.4350, 26.25195
399.9171, 39.20825
400.3992, 45.59302
400.8813, 38.32202
401.3635, 33.72412
401.8456, 39.18604
402.3277, 58.50684
402.8098, 72.84814
403.2919, 82.79248
403.7740, 87.14502
404.2562, 81.95850
404.7383, 63.26855
405.2204, 49.27417
405.7025, 44.48804
406.1846, 48.57837
406.6667, 60.88037
407.1489, 83.27295
407.6310, 106.0349
408.1131, 119.6807
408.5952, 124.8779
409.0773, 128.4624
409.5594, 130.4893
410.0416, 133.2644
410.5237, 147.1616
411.0058, 170.2283
411.4879, 181.5500
411.9700, 147.0942
412.4521, 95.09473
412.9343, 91.82251
413.4164, 151.7019
413.8985, 219.1804
414.3806, 236.9875
414.8628, 221.6606
415.3449, 207.0967
415.8270, 212.4255
416.3091, 222.3621
416.7912, 222.9268
417.2733, 214.1421
417.7555, 207.3457
418.2376, 204.8706
418.7197, 209.0200
419.2018, 222.4980
419.6839, 263.0195
420.1660, 293.2441
420.6482, 296.1633
421.1303, 277.6809
421.6124, 258.3989
422.0945, 234.0833
422.5766, 215.3215
423.0587, 209.3948
423.5409, 227.9390
424.0230, 234.2471
424.5051, 215.0188
424.9872, 186.9341
425.4693, 173.0276
425.9514, 179.3655
426.4336, 191.3828
426.9157, 209.5474
427.3978, 233.9905
427.8799, 243.2109
428.3620, 227.8435
428.8441, 197.9851
429.3263, 228.8308
429.8084, 249.7681
430.2905, 261.3328
430.7726, 235.4263
431.2547, 257.9214
431.7368, 261.0305
432.2190, 263.3535
432.7011, 292.6831
433.1832, 272.2646
433.6653, 301.1812
434.1474, 310.4138
434.6295, 328.6663
435.1117, 327.4126
435.5938, 335.3821
436.0759, 341.9995
436.5580, 345.5215
437.0401, 347.6685
437.5222, 347.9827
438.0044, 344.1558
438.4865, 336.9470
438.9686, 331.9700
439.4507, 334.3958
439.9328, 340.6223
440.4149, 346.8638
440.8971, 352.5063
441.3792, 357.0989
441.8613, 357.6047
442.3434, 357.2292
442.8255, 359.5491
443.3076, 372.0146
443.7898, 382.9180
444.2719, 383.9568
444.7540, 376.4854
445.2361, 367.3140
445.7182, 356.2056
446.2003, 344.4551
446.6825, 334.1497
447.1646, 326.5049
447.6467, 320.5212
448.1288, 316.4722
448.6109, 314.6345
449.0930, 309.1851
449.5752, 301.8140
450.0573, 294.7527
450.5394, 285.4563
451.0215, 271.1985
451.5036, 269.1802
451.9857, 286.5518
452.4679, 305.8848
452.9500, 290.7383
453.4321, 238.1370
453.9142, 204.1863
454.3963, 220.4973
454.8784, 269.2112
455.3606, 287.2971
455.8427, 273.4050
456.3248, 252.1555
456.8069, 243.6335
457.2890, 244.8057
457.7711, 252.3896
458.2533, 273.2092
458.7354, 282.8027
459.2175, 239.6868
459.6996, 163.1218
460.1817, 107.2368
460.6638, 119.9045
461.1460, 152.9700
461.6281, 170.2686
462.1102, 167.4319
462.5923, 159.7410
463.0744, 147.1541
463.5565, 136.2546
464.0387, 133.6096
464.5208, 153.9958
465.0029, 168.9355
465.4850, 168.7209
465.9671, 156.0186
466.4492, 145.7344
466.9314, 146.5547
467.4135, 143.0874
467.8956, 126.9167
468.3777, 87.89844
468.8598, 63.27856
469.3419, 55.82129
469.8241, 60.53711
470.3062, 75.23657
470.7883, 107.5623
471.2704, 122.4714
471.7525, 103.9380
472.2346, 60.02808
472.7168, 36.57373
473.1989, 35.04688
473.6810, 45.26953
474.1631, 69.77051
474.6452, 102.6750
475.1273, 109.1069
475.6095, 78.01929
476.0916, 39.41724
476.5737, 40.26489
477.0558, 68.46069
477.5379, 84.81763
478.0201, 54.63843
478.5022, 12.40601
478.9843, 6.731934
479.4664, 2.426758
479.9485, 13.53223
480.4306, 53.58301
480.9128, 92.27197
481.3949, 103.8538
481.8770, 59.39160
482.3591, 20.38696
482.8412, 11.99048
483.3233, 23.75879
483.8055, 31.51147
484.2876, 27.54297
484.7697, 21.59131
485.2518, 15.62964
485.7339, 8.771484
486.2160, 7.756348
486.6982, 17.82104
487.1803, 28.98169
487.6624, 31.67676
488.1445, 21.16699
488.6266, 15.58862
489.1087, 19.27295
489.5909, 28.22827
490.0730, 29.78149
490.5551, 22.41675
491.0372, 17.03564
491.5193, 23.38428
492.0014, 38.31128
492.4836, 39.47656
492.9657, 25.00415
493.4478, 7.030518
493.9299, 3.605957
494.4120, 7.750000
494.8941, 7.428467
495.3763, 0.2036130
495.8584, 7.487061
496.3405, 8.426514
496.8226, 3.754395
497.3047, 2.682617
497.7868, 11.96851
498.2690, 20.10693
498.7511, 23.73975
499.2332, 21.98706
499.7153, 18.60181
500.1974, 16.93237
500.6795, 13.50244
501.1617, 4.597412
501.6438, 21.41504
502.1259, 40.50220
502.6080, 47.41724
503.0901, 43.91553
503.5722, 37.09302
504.0544, 23.11597
504.5365, 11.08765
505.0186, 4.529785
505.5007, 3.501465
505.9828, 9.111572
506.4649, 25.04956
506.9471, 40.82812
507.4292, 38.68701
507.9113, 17.83594
508.3934, 10.04028
508.8755, 30.03027
509.3576, 61.92334
509.8398, 68.42871
510.3219, 51.46362
510.8040, 31.25635
511.2861, 24.24146
511.7682, 21.42236
512.2504, 4.366943
512.7325, 31.28125
513.2146, 59.37476
513.6967, 53.97192
514.1788, 30.81030
514.6609, 12.03320
515.1431, 15.15771
515.6252, 14.22876
516.1073, 10.54419
516.5894, 51.09033
517.0715, 73.12036
517.5536, 49.72095
518.0358, 22.42334
518.5179, 9.913330
519.0000, 17.52905
519.4821, 24.32715
519.9642, 29.39600
520.4464, 34.33960
520.9285, 42.59937
521.4106, 58.58032
521.8927, 62.67188
522.3748, 45.51953
522.8569, 17.29468
523.3391, 10.98047
523.8212, 28.04712
524.3033, 52.64990
524.7854, 79.48804
525.2675, 106.8823
525.7496, 126.5134
526.2318, 137.1550
526.7139, 147.8398
527.1960, 171.9214
527.6781, 201.5503
528.1602, 223.1016
528.6423, 231.7566
529.1245, 231.6433
529.6066, 212.9153
530.0887, 186.2708
530.5708, 181.1113
531.0529, 240.4756
531.5350, 299.6228
532.0172, 318.2617
532.4993, 285.5693
532.9814, 268.6028
533.4635, 290.8760
533.9456, 323.7932
534.4277, 345.0723
534.9099, 341.5168
535.3920, 350.8250
535.8741, 383.7139
536.3562, 426.8792
536.8383, 443.5327
537.3204, 427.3447
537.8026, 415.0032
538.2847, 408.4065
538.7668, 438.5532
539.2489, 458.7908
539.7310, 469.6533
540.2131, 443.0415
540.6953, 464.8315
541.1774, 467.2314
541.6595, 468.8391
542.1416, 497.4534
542.6237, 476.3176
543.1058, 504.5129
543.5880, 513.0247
544.0701, 530.5525
544.5522, 528.5691
545.0343, 532.6196
545.5164, 556.1948
545.9985, 568.9648
546.4807, 564.7568
546.9628, 582.8867
547.4449, 561.1169
547.9270, 574.3687
548.4091, 602.7322
548.8912, 599.5288
549.3734, 597.7341
549.8555, 610.0588
550.3376, 626.3513
550.8197, 648.8896
551.3018, 668.6445
551.7839, 682.9880
552.2661, 692.8899
552.7482, 701.4194
553.2303, 709.0752
553.7124, 713.7761
554.1945, 710.6907
554.6766, 703.4075
555.1588, 704.1006
555.6409, 713.7847
556.1230, 724.0129
556.6051, 725.6460
557.0872, 723.7161
557.5693, 726.0486
558.0515, 737.9487
558.5336, 750.2124
559.0157, 759.5288
559.4978, 765.2156
559.9799, 764.9688
560.4620, 750.3425
560.9442, 736.9626
561.4263, 731.8516
561.9084, 736.5398
562.3905, 738.0012
562.8726, 730.6858
563.3547, 725.5029
563.8369, 730.9016
564.3190, 751.3127
564.8011, 766.8672
565.2832, 775.6304
565.7653, 780.6035
566.2474, 788.5098
566.7296, 799.4785
567.2117, 803.2996
567.6938, 794.0371
568.1759, 777.4702
568.6580, 764.4766
569.1401, 755.0090
569.6223, 747.6589
570.1044, 742.8142
570.5865, 737.0908
571.0686, 711.2441
571.5507, 723.3062
572.0328, 725.9956
572.5150, 719.6233
572.9971, 672.4878
573.4792, 677.8455
573.9613, 663.1357
574.4434, 647.5728
574.9255, 661.2688
575.4077, 621.0657
575.8898, 634.3113
576.3719, 626.2307
576.8540, 627.9197
577.3361, 608.4758
577.8182, 595.5698
578.3004, 603.8125
578.7825, 600.3582
579.2646, 578.5076
579.7467, 580.8577
580.2288, 539.9880
580.7109, 537.0591
581.1931, 550.5002
581.6752, 530.7415
582.1573, 536.2256
582.6394, 533.0183
583.1215, 509.1221
583.6036, 511.8115
584.0858, 511.8206
584.5679, 505.7021
585.0500, 493.3035
585.5321, 474.5618
586.0142, 437.6228
586.4963, 403.8342
586.9785, 387.5876
587.4606, 397.0955
587.9427, 389.0894
588.4248, 340.3252
588.9069, 291.3325
589.3890, 275.4741
589.8712, 309.4824
590.3533, 331.7280
590.8354, 335.8584
591.3175, 327.9001
591.7996, 316.7898
592.2817, 304.0361
592.7639, 300.4741
593.2460, 313.6387
593.7281, 336.3743
594.2102, 358.1260
594.6923, 377.5562
595.1744, 383.6548
595.6566, 355.4541
596.1387, 317.6670
596.6208, 298.8054
597.1029, 304.8567
597.5850, 308.1057
598.0671, 296.6570
598.5493, 275.4673
599.0314, 249.3455
599.5135, 192.9353
599.9956, 164.6704
600.4777, 187.1445
600.9598, 236.1152
601.4420, 263.6582
601.9241, 264.6460
602.4062, 254.7351
602.8883, 235.9497
603.3704, 209.7825
603.8525, 178.4951
604.3347, 139.6509
604.8168, 117.0776
605.2989, 141.9570
605.7810, 195.6096
606.2631, 221.6533
606.7452, 214.4448
607.2274, 197.7773
607.7095, 193.7190
608.1916, 193.1213
608.6737, 182.7476
609.1558, 151.6262
609.6379, 120.8191
610.1201, 96.29541
610.6022, 78.62183
611.0843, 68.30933
611.5664, 72.32764
612.0485, 76.59814
612.5306, 75.69482
613.0128, 70.62817
613.4949, 76.15576
613.9770, 99.49072
614.4591, 118.4717
614.9412, 117.3003
615.4233, 95.42944
615.9055, 82.86816
616.3876, 80.99951
616.8697, 83.26709
617.3518, 86.04199
617.8339, 87.47241
618.3160, 81.43774
618.7982, 64.13232
619.2803, 44.69751
619.7624, 27.23975
620.2445, 14.37500
620.7266, 11.27417
621.2087, 34.91382
621.6909, 54.29199
622.1730, 50.76929
622.6551, 27.72412
623.1372, 17.23364
623.6193, 36.22803
624.1014, 54.52026
624.5836, 60.69897
625.0657, 53.32495
625.5478, 40.83716
626.0299, 19.34570
626.5120, 1.509277
626.9941, 3.257080
627.4763, 22.85791
627.9584, 35.37695
628.4405, 36.92993
628.9226, 31.95972
629.4047, 21.04541
629.8868, 8.174561
630.3690, 3.163574
630.8511, 17.53955
631.3332, 34.02148
631.8153, 37.94629
632.2974, 33.22852
632.7795, 33.54639
633.2617, 53.92725
633.7438, 70.89893
634.2259, 72.84058
634.7080, 57.49390
635.1901, 44.19531
635.6722, 31.17456
636.1544, 22.70532
636.6365, 24.84937
637.1186, 40.76782
637.6007, 43.22485
638.0828, 29.26733
638.5649, 7.186768
639.0471, 21.35083
639.5292, 51.27637
640.0113, 55.64038
640.4934, 15.56348
640.9755, 31.19043
641.4576, 42.11938
641.9398, 26.78467
642.4219, 7.896240
642.9040, 11.78198
643.3861, 25.97876
643.8682, 28.30957
644.3503, 19.94507
644.8325, 14.98877
645.3146, 21.41138
645.7967, 26.01782
646.2788, 21.48950
646.7609, 4.399902
647.2430, 2.068359
647.7252, 21.55933
648.2073, 40.27026
648.6894, 32.13843
649.1715, 5.3222999E-02
649.6536, 20.07935
650.1357, 21.23535
650.6179, 17.20801
651.1000, 25.06104
651.5821, 40.99512
652.0642, 56.28760
652.5463, 70.78076
653.0284, 80.38086
653.5106, 78.37622
653.9927, 68.97729
654.4748, 63.76562
654.9569, 76.71216
655.4390, 83.71973
655.9211, 69.58618
656.4033, 36.12012
656.8854, 23.08813
657.3675, 39.65918
657.8496, 60.02954
658.3317, 70.14331
658.8138, 69.71875
659.2960, 66.19409
659.7781, 58.65552
660.2602, 53.22925
660.7423, 55.62012
661.2244, 64.83740
661.7065, 79.56958
662.1887, 101.3081
662.6708, 123.0061
663.1529, 134.5508
663.6350, 143.3789
664.1171, 160.9512
664.5992, 208.0608
665.0814, 245.5682
665.5635, 255.2971
666.0456, 245.7408
666.5277, 249.2231
667.0098, 281.3083
667.4919, 299.8790
667.9741, 286.2538
668.4562, 245.8805
668.9383, 225.2977
669.4204, 225.2972
669.9025, 237.0646
670.3846, 263.2393
670.8668, 296.0447
671.3489, 310.9131
671.8310, 306.1851
672.3131, 299.3942
672.7952, 298.1813
673.2773, 305.2164
673.7595, 325.8448
674.2416, 369.9823
674.7237, 406.8074
675.2058, 417.0679
675.6879, 417.6290
676.1700, 430.2329
676.6522, 469.2675
677.1343, 496.0090
677.6164, 502.6437
678.0985, 496.7186
678.5806, 494.6844
679.0627, 496.7429
679.5449, 501.3298
680.0270, 510.3252
680.5091, 519.8010
680.9912, 516.3462
681.4733, 502.8447
681.9554, 496.8776
682.4376, 520.8279
682.9197, 548.9087
683.4018, 557.9807
683.8839, 546.5459
684.3660, 532.1204
684.8481, 508.5338
685.3303, 493.0479
685.8124, 502.8683
686.2945, 558.3181
686.7766, 573.7922
687.2587, 527.6804
687.7408, 471.0066
688.2230, 457.4956
688.7051, 489.4436
689.1872, 517.0875
689.6693, 536.6802
690.1514, 542.9008
690.6335, 515.4468
691.1157, 468.4235
691.5978, 439.4004
692.0799, 455.7986
692.5620, 477.4698
693.0441, 474.1099
693.5262, 453.3267
694.0084, 433.3809
694.4905, 416.9667
694.9726, 405.2498
695.4547, 401.9739
695.9368, 405.1492
696.4189, 401.4744
696.9011, 390.4045
697.3832, 369.8920
697.8653, 334.4297
698.3474, 290.3071
698.8295, 276.7512
699.3116, 293.9574
699.7938, 318.1829
700.2759, 332.4712
700.7580, 339.7823
701.2401, 345.1010
701.7222, 349.5825
702.2043, 354.3674
702.6865, 361.2374
703.1686, 366.7467
703.6507, 368.4617
704.1328, 366.9546
704.6149, 361.7211
705.0970, 344.1824
705.5792, 326.5889
706.0613, 327.7466
706.5434, 356.9189
707.0255, 379.1101
707.5076, 386.5942
707.9897, 382.7684
708.4719, 370.5488
708.9540, 351.2886
709.4361, 335.9435
709.9182, 328.3280
710.4003, 328.2152
710.8824, 342.8020
711.3646, 365.5887
711.8467, 373.9418
712.3288, 329.3215
712.8109, 295.0046
713.2930, 310.3700
713.7751, 376.9567
714.2573, 410.7893
714.7394, 395.5355
715.2215, 371.4816
715.7036, 356.1292
716.1857, 349.5270
716.6678, 345.7131
717.1500, 343.9866
717.6321, 348.5759
718.1142, 375.4697
718.5963, 407.7783
719.0784, 402.2837
719.5605, 348.8208
720.0427, 300.7887
720.5248, 302.0090
721.0070, 325.8506
721.4891, 347.3944
721.9712, 365.1086
722.4533, 374.3711
722.9354, 368.7887
723.4175, 358.6497
723.8997, 358.3884
724.3818, 374.3425
724.8639, 377.1144
725.3460, 358.0670
725.8281, 331.6912
726.3102, 326.0791
726.7924, 337.4037
727.2745, 344.5774
727.7566, 336.8018
728.2387, 324.3132
728.7208, 317.8344
729.2029, 316.9072
729.6851, 318.8884
730.1672, 327.0985
730.6493, 334.8899
731.1314, 341.0137
731.6135, 343.1171
732.0956, 335.9833
732.5778, 317.4695
733.0599, 297.7642
733.5420, 273.0280
734.0241, 245.6615
734.5062, 233.3237
734.9883, 238.4937
735.4705, 248.1692
735.9526, 262.9496
736.4347, 276.3229
736.9168, 271.8280
737.3989, 251.4944
737.8810, 232.3040
738.3632, 234.0670
738.8453, 238.9176
739.3274, 233.5657
739.8095, 213.2994
740.2916, 188.6510
740.7737, 150.3636
741.2559, 119.0977
741.7380, 116.8021
742.2201, 151.3229
742.7022, 169.6786
743.1843, 164.8934
743.6664, 153.3040
744.1486, 158.3325
744.6307, 173.3702
745.1128, 178.3940
745.5949, 162.6145
746.0770, 142.6964
746.5591, 127.4150
747.0413, 116.7581
747.5234, 113.4863
748.0055, 136.1562
748.4876, 143.5308
748.9697, 117.1176
749.4518, 74.44397
749.9340, 53.99353
750.4161, 61.40869
750.8982, 71.17761
751.3803, 78.79614
751.8624, 83.06458
752.3445, 85.72668
752.8267, 86.13208
753.3088, 77.44543
753.7909, 36.07568
754.2730, 0.8657230
754.7551, 13.23425
755.2372, 66.27612
755.7194, 105.3383
756.2015, 101.6458
756.6836, 89.57532
757.1657, 83.32935
757.6478, 82.46692
758.1299, 73.63989
758.6121, 53.01770
759.0942, 33.97485
759.5763, 23.20386
760.0584, 20.26514
760.5405, 25.53870
761.0226, 38.89648
761.5048, 45.91504
761.9869, 25.70923
762.4690, 1.499146
762.9511, 9.190063
763.4332, 6.321289
763.9153, 19.76733
764.3975, 17.45044
764.8796, 12.12024
765.3617, 13.64771
765.8438, 7.961914
766.3259, 32.32373
766.8080, 45.92822
767.2902, 49.35315
767.7723, 12.16187
768.2544, 27.37781
768.7365, 21.88306
769.2186, 15.19055
769.7007, 37.72949
770.1829, 6.350220
770.6650, 28.38660
771.1471, 29.07385
771.6292, 39.50635
772.1113, 28.78040
772.5934, 24.56763
773.0756, 41.48108
773.5577, 46.66931
774.0398, 33.43958
774.5219, 44.38599
775.0040, 12.08838
775.4861, 17.70227
775.9683, 39.66382
776.4504, 27.40491
776.9325, 38.64429
777.4146, 40.91028
777.8967, 2.452759
778.3788, 34.76379
778.8610, 36.44128
779.3431, 6.666748
779.8252, 36.49353
780.3073, 11.01343
780.7894, 18.74451
781.2715, 13.72522
781.7537, 10.56348
782.2358, 12.44897
782.7179, 8.647461
783.2000, 5.963135
783.6821, 24.94678
784.1642, 31.64001
784.6464, 26.84875
785.1285, 17.54919
785.6106, 3.327393
786.0927, 10.51697
786.5748, 20.41541
787.0569, 25.17676
787.5391, 21.27966
788.0212, 7.849365
788.5033, 30.33496
788.9854, 27.41907
789.4675, 6.050781
789.9496, 1.503784
790.4318, 29.99097
790.9139, 4.435547
791.3960, 10.35315
791.8781, 14.95984
792.3602, 21.05396
792.8423, 4.675659
793.3245, 9.333618
793.8066, 14.88110
794.2887, 8.789795
794.7708, 21.46057
795.2529, 1.692505
795.7350, 3.491089
796.2172, 15.03125
796.6993, 5.412720
797.1814, 2.302734
797.6635, 20.31799
798.1456, 26.60669
798.6277, 14.47839
799.1099, 26.52466
799.5920, 4.672607
800.0741, 2.038330
800.5562, 25.09412
801.0383, 13.93018
801.5204, 26.26660
802.0026, 29.63074
802.4847, 7.728516
802.9668, 25.67896
803.4489, 28.45764
803.9310, 0.2082520
804.4131, 30.72888
804.8953, 6.360596
805.3774, 1.708984
805.8595, 11.88965
806.3416, 6.570557
806.8237, 25.64478
807.3058, 21.18652
807.7880, 14.56714
808.2701, 17.13098
808.7522, 6.288330
809.2343, 1.282593
809.7164, 25.31726
810.1985, 41.16235
810.6807, 46.83215
811.1628, 11.88489
811.6449, 29.19531
812.1270, 24.82178
812.6091, 19.97717
813.0912, 44.76440
813.5734, 15.65320
814.0555, 39.96216
814.5376, 42.92688
815.0197, 55.64124
815.5018, 47.20227
815.9839, 45.27869
816.4661, 64.41260
816.9482, 71.70654
817.4303, 60.48621
817.9124, 73.40662
818.3945, 43.15149
818.8766, 62.49500
819.3588, 65.95215
819.8409, 61.56738
820.3230, 56.04993
820.8051, 47.01660
821.2872, 44.09717
821.7693, 59.04553
822.2515, 86.74951
822.7336, 98.55347
823.2157, 92.58337
823.6978, 81.29456
824.1799, 77.11377
824.6620, 72.34766
825.1442, 53.94751
825.6263, 13.70789
826.1084, 4.698730
826.5905, 36.12598
827.0726, 78.69153
827.5547, 86.50513
828.0369, 49.98901
828.5190, 35.11243
829.0011, 44.72498
829.4832, 59.95178
829.9653, 66.90686
830.4474, 66.12170
830.9296, 55.07751
831.4117, 32.45874
831.8938, 17.12622
832.3759, 25.25232
832.8580, 41.96704
833.3401, 57.78247
833.8223, 72.65247
834.3044, 81.67224
834.7865, 80.82690
835.2686, 80.65039
835.7507, 92.49146
836.2328, 116.0769
836.7150, 120.7590
837.1971, 104.4170
837.6792, 82.90723
838.1613, 61.66760
838.6434, 45.45129
839.1255, 38.65247
839.6077, 41.67798
840.0898, 55.30664
840.5719, 102.2351
841.0540, 138.9098
841.5361, 137.0394
842.0182, 87.71985
842.5004, 65.49915
842.9825, 76.56189
843.4646, 92.52185
843.9467, 86.57593
844.4288, 68.02002
844.9109, 62.57739
845.3931, 71.55859
845.8752, 82.62842
846.3573, 91.63623
846.8394, 98.55493
847.3215, 105.5609
847.8036, 113.6145
848.2858, 103.6680
848.7679, 69.30457
849.2500, 35.43018
849.7321, 15.26416
850.2142, 6.527344
850.6964, 8.022217
851.1785, 18.50488
851.6606, 31.56531
852.1427, 52.45850
852.6248, 67.07532
853.1069, 60.76257
853.5891, 31.75903
854.0712, 11.47888
854.5533, 19.59375
855.0354, 28.89917
855.5175, 23.91760
855.9996, 4.431763
856.4818, 11.01880
856.9639, 49.81299
857.4460, 79.87939
857.9281, 68.67175
858.4102, 35.51721
858.8923, 19.68726
859.3745, 20.46411
859.8566, 27.17053
860.3387, 36.05908
860.8208, 47.94128
861.3029, 65.19214
861.7850, 83.49841
862.2672, 85.89331
862.7493, 60.94629
863.2314, 42.74097
863.7135, 49.15100
864.1956, 72.12109
864.6777, 82.08032
865.1599, 80.06299
865.6420, 76.02283
866.1241, 78.49243
866.6062, 78.31250
867.0883, 65.74744
867.5704, 44.94470
868.0526, 31.58984
868.5347, 35.66296
869.0168, 40.26831
869.4989, 40.89282
869.9810, 39.81604
870.4631, 47.11279
870.9453, 63.15552
871.4274, 75.55713
871.9095, 77.60437
872.3916, 76.13281
872.8737, 81.26111
873.3558, 90.39954
873.8380, 97.30139
874.3201, 99.40906
874.8022, 99.06909
875.2843, 98.12195
875.7664, 94.86108
876.2485, 83.70520
876.7307, 61.21692
877.2128, 46.37927
877.6949, 44.40381
878.1770, 49.41382
878.6591, 53.83130
879.1412, 57.36804
879.6234, 59.28577
880.1055, 59.20398
880.5876, 57.68079
881.0697, 55.15564
881.5518, 51.29407
882.0339, 44.75940
882.5161, 29.29346
882.9982, 26.16907
883.4803, 40.22546
883.9624, 60.60120
884.4445, 76.93127
884.9266, 87.95288
885.4088, 87.68494
885.8909, 72.39307
886.3730, 58.69702
886.8551, 59.97620
887.3372, 69.54663
887.8193, 81.74219
888.3015, 102.5475
888.7836, 108.3751
889.2657, 90.60120
889.7478, 69.28076
890.2299, 61.87183
890.7120, 67.54883
891.1942, 75.49072
891.6763, 85.20251
892.1584, 94.87061
892.6405, 111.3898
893.1226, 122.0405
893.6047, 107.7202
894.0869, 62.21973
894.5690, 31.41980
895.0511, 36.40381
895.5332, 46.74036
896.0153, 50.85510
896.4974, 48.69836
896.9796, 29.29578
897.4617, 9.280640
897.9438, 30.40283
898.4259, 9.141724
898.9080, 69.62402
899.3901, 102.3669
899.8723, 107.2416
900.3544, 95.27832
900.8365, 43.44263
901.3186, 5.076660
901.8007, 4.450806
902.2828, 33.35425
902.7650, 47.62793
903.2471, 44.99390
903.7292, 46.75232
904.2113, 65.16589
904.6934, 88.81116
905.1755, 98.52930
905.6577, 97.42761
906.1398, 93.82812
906.6219, 84.70935
907.1040, 81.08850
907.5861, 96.64075
908.0682, 117.2684
908.5504, 113.1827
909.0325, 75.05933
909.5146, 52.75354
909.9967, 57.97083
910.4788, 75.66467
910.9609, 88.78967
911.4431, 95.66394
911.9252, 91.02454
912.4073, 68.93091
912.8894, 46.25256
913.3715, 27.08142
913.8536, 13.73438
914.3358, 8.433228
914.8179, 11.93799
915.3000, 23.14600
915.7821, 45.69458
916.2642, 64.83215
916.7463, 65.43677
917.2285, 50.86877
917.7106, 20.94385
918.1927, 25.45215
918.6748, 49.71863
919.1569, 1.830933
919.6390, 55.90369
920.1212, 73.82568
920.6033, 44.15674
921.0854, 36.59143
921.5675, 59.11340
922.0496, 80.68872
922.5317, 84.13281
923.0139, 72.71753
923.4960, 49.28821
923.9781, 17.41565
924.4602, 1.876343
924.9423, 9.679688
925.4244, 31.74036
925.9066, 62.79236
926.3887, 96.23889
926.8708, 99.77441
927.3529, 58.73840
927.8350, 25.22437
928.3171, 13.77917
928.7993, 17.42859
929.2814, 21.33069
929.7635, 27.09338
930.2456, 41.56274
930.7277, 77.44666
931.2098, 106.9901
931.6920, 104.9773
932.1741, 89.99829
932.6562, 92.95605
933.1383, 130.6725
933.6204, 148.1466
934.1025, 138.1857
934.5847, 115.0476
935.0668, 87.40125
935.5489, 61.08740
936.0310, 63.03979
936.5131, 102.1519
936.9952, 127.4817
937.4774, 82.49744
937.9595, 26.71326
938.4416, 13.33081
938.9237, 55.45056
939.4058, 80.44434
939.8879, 83.21606
940.3701, 82.01917
940.8522, 85.03821
941.3343, 93.83948
941.8164, 124.4773
942.2985, 171.5393
942.7806, 195.1515
943.2628, 147.8740
943.7449, 93.64478
944.2270, 63.83740
944.7091, 58.84839
945.1912, 70.68958
945.6733, 107.9008
946.1555, 136.0745
946.6376, 144.9062
947.1197, 140.6844
947.6018, 133.1923
948.0839, 122.0571
948.5660, 105.5347
949.0482, 74.71985
949.5303, 53.92151
950.0124, 63.07434
950.4945, 85.81616
950.9766, 99.91724
951.4587, 101.5338
951.9409, 102.9932
952.4230, 105.6010
952.9051, 107.0415
953.3872, 98.94592
953.8693, 89.18994
954.3514, 98.65735
954.8336, 131.6840
955.3157, 156.9541
955.7978, 151.6870
956.2799, 139.5587
956.7620, 133.3499
957.2441, 133.4958
957.7263, 131.5172
958.2084, 126.9791
958.6905, 122.9303
959.1726, 120.4309
959.6547, 119.9271
960.1368, 124.7325
960.6190, 132.6024
961.1011, 135.5985
961.5832, 117.6168
962.0653, 109.0715
962.5474, 124.7625
963.0295, 153.9325
963.5117, 179.8466
963.9938, 203.8027
964.4759, 208.2717
964.9580, 186.3287
965.4401, 153.6560
965.9222, 118.7627
966.4044, 90.24451
966.8865, 85.20618
967.3686, 120.4935
967.8507, 144.3016
968.3329, 136.5315
968.8150, 124.3300
969.2971, 127.9320
969.7792, 147.8845
970.2614, 164.4418
970.7435, 177.2954
971.2256, 180.4717
971.7077, 154.0242
972.1898, 126.5734
972.6719, 131.1119
973.1541, 165.8356
973.6362, 192.0469
974.1183, 198.4934
974.6004, 202.8711
975.0825, 211.1608
975.5646, 219.8951
976.0468, 214.1080
976.5289, 196.4630
977.0110, 189.5171
977.4931, 210.8761
977.9752, 224.5316
978.4573, 189.3195
978.9395, 133.8905
979.4216, 101.9398
979.9037, 107.4590
980.3858, 118.7800
980.8679, 136.5310
981.3500, 156.6729
981.8322, 175.1138
982.3143, 192.3422
982.7964, 212.4154
983.2785, 235.7246
983.7606, 247.3003
984.2427, 240.7880
984.7249, 217.2268
985.2070, 161.0156
985.6891, 77.53564
986.1712, 52.05530
986.6533, 98.21167
987.1354, 137.2921
987.6176, 129.2882
988.0997, 98.18884
988.5818, 83.37170
989.0639, 81.60278
989.5460, 84.01013
990.0281, 92.81970
990.5103, 98.08557
990.9924, 89.62048
991.4745, 81.28455
991.9566, 97.28149
992.4387, 140.9357
992.9208, 153.7008
993.4030, 124.9302
993.8851, 94.09546
994.3672, 112.0137
994.8493, 142.9922
995.3314, 138.1882
995.8135, 84.70129
996.2957, 59.83655
996.7778, 103.3160
997.2599, 133.2365
997.7420, 102.2905
998.2241, 28.30322
998.7062, 6.680298
999.1884, 30.72839
999.6705, 52.91382
1000.153, 44.70508
1000.635, 29.18469
1001.117, 18.15869
1001.599, 11.43787
1002.081, 9.319824
1002.563, 15.21729
1003.045, 16.16833
1003.527, 9.758301
1004.010, 0.3985600
1004.492, 9.098022
1004.974, 16.53650
1005.456, 14.21753
1005.938, 0.7514650
1006.420, 9.465088
1006.902, 3.345947
1007.384, 20.27783
1007.866, 32.50305
1008.349, 39.91406
1008.831, 36.16284
1009.313, 20.37976
1009.795, 5.119751
1010.277, 3.554321
1010.759, 7.382568
1011.241, 6.598877
1011.723, 2.719604
1012.206, 0.6779790
1012.688, 3.954346
1013.170, 4.485962
1013.652, 1.854614
1014.134, 3.268066
1014.616, 14.56250
1015.098, 29.24902
1015.580, 4.931885
1016.062, 30.03870
1016.545, 44.40930
1017.027, 48.62646
1017.509, 12.24878
1017.991, 28.30298
1018.473, 23.35376
1018.955, 17.54810
1019.437, 40.99841
1019.919, 10.55334
1020.401, 33.55066
1020.884, 35.22168
1021.366, 46.66162
1021.848, 36.96765
1022.330, 33.80774
1022.812, 51.79968
1023.294, 58.08679
1023.776, 45.97913
1024.258, 58.07117
1024.740, 26.94141
1025.223, 33.74768
1025.705, 56.92651
1026.187, 45.90698
1026.669, 58.41003
1027.151, 61.95959
1027.633, 24.80981
1028.115, 58.45422
1028.597, 61.48804
1029.080, 33.09143
1029.562, 64.32385
1030.044, 40.26965
1030.526, 41.36462
1031.008, 35.84265
1031.490, 25.59985
1031.972, 14.34851
1032.454, 16.10718
1032.937, 54.04443
1033.419, 81.18689
1033.901, 68.57666
1034.383, 38.69763
1034.865, 16.49365
1035.347, 1.656250
1035.829, 1.575806
1036.311, 7.708496
1036.793, 23.39514
1037.276, 46.39417
1037.758, 68.44568
1038.240, 79.12878
1038.722, 78.22473
1039.204, 74.39478
1039.686, 60.84521
1040.168, 59.23267
1040.650, 83.28027
1041.132, 115.8770
1041.615, 108.1063
1042.097, 70.14246
1042.579, 46.00049
1043.061, 53.51245
1043.543, 66.97192
1044.025, 74.63208
1044.507, 78.37695
1044.989, 79.25208
1045.472, 77.04431
1045.954, 84.06799
1046.436, 104.0386
1046.918, 117.3485
1047.400, 98.81958
1047.882, 70.90381
1048.364, 72.16333
1048.846, 94.76660
1049.328, 100.9149
1049.811, 45.19727
1050.293, 20.84412
1050.775, 59.53052
1051.257, 120.4094
1051.739, 120.9813
1052.221, 75.36108
1052.703, 48.89539
1053.185, 54.80566
1053.667, 70.96362
1054.150, 99.46570
1054.632, 119.5745
1055.114, 108.3145
1055.596, 63.84131
1056.078, 46.75635
1056.560, 59.98010
1057.042, 79.85828
1057.524, 97.62756
1058.007, 110.6050
1058.489, 108.1660
1058.971, 99.57629
1059.453, 105.6445
1059.935, 153.2500
1060.417, 186.0577
1060.899, 198.1788
1061.381, 196.1786
1061.864, 179.9033
1062.346, 154.6978
1062.828, 151.1522
1063.310, 171.9829
1063.792, 186.4216
1064.274, 172.5891
1064.756, 146.4910
1065.238, 109.6310
1065.720, 68.89746
1066.203, 55.34106
1066.685, 70.83154
1067.167, 94.08691
1067.649, 125.3875
1068.131, 152.1558
1068.613, 164.0863
1069.095, 159.0811
1069.577, 129.2765
1070.059, 43.84167
1070.542, 10.05298
1071.024, 47.05273
1071.506, 98.75659
1071.988, 140.3208
1072.470, 166.6581
1072.952, 140.5631
1073.434, 74.50500
1073.916, 34.63831
1074.399, 87.00183
1074.881, 133.3955
1075.363, 127.8192
1075.845, 99.65625
1076.327, 100.7281
1076.809, 131.7075
1077.291, 134.7740
1077.773, 98.98083
1078.255, 58.61145
1078.738, 42.29468
1079.220, 37.48218
1079.702, 33.30164
1080.184, 28.71155
1080.666, 30.69995
1081.148, 40.89099
1081.630, 53.05273
1082.112, 65.34021
1082.594, 77.43152
1083.077, 90.94617
1083.559, 103.5775
1084.041, 110.0175
1084.523, 106.3519
1085.005, 100.0371
1085.487, 87.81641
1085.969, 79.36841
1086.451, 84.84558
1086.934, 102.0961
1087.416, 116.7539
1087.898, 127.9429
1088.380, 129.8341
1088.862, 109.7362
1089.344, 88.67249
1089.826, 77.94617
1090.308, 75.20776
1090.791, 74.84021
1091.273, 77.10608
1091.755, 78.40002
1092.237, 78.70337
1092.719, 75.73645
1093.201, 60.05725
1093.683, 43.86389
1094.165, 44.82349
1094.647, 66.84082
1095.130, 74.60339
1095.612, 59.74536
1096.094, 45.75146
1096.576, 40.48291
1097.058, 43.62390
1097.540, 62.06396
1098.022, 88.18835
1098.504, 102.2471
1098.987, 91.79272
1099.469, 80.45325
1099.951, 70.99121
1100.433, 66.43213
1100.915, 76.23621
1101.397, 97.79907
1101.879, 78.33728
1102.361, 21.99805
1102.844, 19.49866
1103.326, 5.470093
1103.808, 36.53064
1104.290, 31.97632
1104.772, 52.21667
1105.254, 64.60950
1105.736, 57.76794
1106.218, 75.13281
1106.700, 57.53406
1107.182, 32.12976
1107.665, 24.86694
1108.147, 25.43994
1108.629, 25.80273
1109.111, 24.79895
1109.593, 11.62854
1110.075, 24.21741
1110.557, 44.98804
1111.039, 34.67297
1111.522, 7.277100
1112.004, 21.41479
1112.486, 45.55054
1112.968, 52.30042
1113.450, 30.14355
1113.932, 11.76123
1114.414, 2.264404
1114.896, 1.309448
1115.379, 13.70508
1115.861, 35.22546
1116.343, 37.53052
1116.825, 24.00635
1117.307, 14.36072
1117.789, 22.50366
1118.271, 33.05518
1118.753, 41.48206
1119.235, 46.99316
1119.718, 48.96228
1120.200, 47.55566
1120.682, 35.94385
1121.164, 12.56323
1121.646, 2.246094
1122.128, 24.82507
1122.610, 52.87012
1123.092, 37.84277
1123.574, 11.21106
1124.057, 25.22852
1124.539, 5.177734
1125.021, 35.24902
1125.503, 57.07190
1125.985, 69.81909
1126.467, 73.04248
1126.949, 66.27771
1127.431, 42.33533
1127.914, 6.792480
1128.396, 23.51501
1128.878, 10.80151
1129.360, 46.44373
1129.842, 64.70178
1130.324, 68.46790
1130.806, 57.59973
1131.288, 38.14966
1131.771, 25.97986
1132.253, 29.11829
1132.735, 34.98035
1133.217, 43.37915
1133.699, 50.33875
1134.181, 52.84839
1134.663, 51.21912
1135.145, 43.03748
1135.627, 30.80664
1136.109, 31.91675
1136.592, 81.51355
1137.074, 118.0159
1137.556, 98.53955
1138.038, 56.39197
1138.520, 34.92725
1139.002, 34.41577
1139.484, 39.74329
1139.966, 49.70496
1140.449, 63.08643
1140.931, 80.91296
1141.413, 100.0527
1141.895, 122.0560
1142.377, 144.0292
1142.859, 151.6715
1143.341, 143.2068
1143.823, 132.8455
1144.306, 124.3893
1144.788, 113.3938
1145.270, 89.07678
1145.752, 62.79431
1146.234, 49.49243
1146.716, 53.89343
1147.198, 50.49036
1147.680, 34.72009
1148.162, 25.62939
1148.645, 32.92273
1149.127, 49.49902
1149.609, 64.31677
1150.091, 79.08191
1150.573, 98.33618
1151.055, 137.4061
1151.537, 145.7935
1152.019, 108.9304
1152.501, 67.10803
1152.984, 47.77576
1153.466, 46.26074
1153.948, 53.40210
1154.430, 66.98401
1154.912, 78.76379
1155.394, 85.99976
1155.876, 89.63354
1156.358, 86.05530
1156.841, 84.39111
1157.323, 99.86108
1157.805, 126.8345
1158.287, 138.2020
1158.769, 133.5166
1159.251, 126.9617
1159.733, 123.4149
1160.215, 125.1830
1160.698, 133.2123
1161.180, 145.6223
1161.662, 148.7860
1162.144, 143.2278
1162.626, 136.0232
1163.108, 128.0875
1163.590, 121.2646
1164.072, 123.5446
1164.554, 120.9104
1165.036, 96.68091
1165.519, 98.95703
1166.001, 54.57788
1166.483, 82.28870
1166.965, 97.81763
1167.447, 87.14563
1167.929, 63.24097
1168.411, 36.67896
1168.893, 17.35071
1169.376, 16.79614
1169.858, 34.33289
1170.340, 51.69519
1170.822, 68.61328
1171.304, 86.55164
1171.786, 111.3544
1172.268, 129.2638
1172.750, 130.9531
1173.233, 121.7522
1173.715, 106.5215
1174.197, 80.02246
1174.679, 68.62317
1175.161, 74.24463
1175.643, 83.49158
1176.125, 88.23254
1176.607, 89.75879
1177.089, 88.51172
1177.572, 85.50732
1178.054, 83.60168
1178.536, 85.54297
1179.018, 82.14636
1179.500, 72.03064
1179.982, 60.15186
1180.464, 46.75269
1180.946, 34.73840
1181.428, 22.40820
1181.911, 13.11926
1182.393, 25.81921
1182.875, 81.75562
1183.357, 115.0864
1183.839, 111.7117
1184.321, 92.10742
1184.803, 77.32324
1185.285, 63.97925
1185.768, 56.56055
1186.250, 55.65820
1186.732, 58.62732
1187.214, 59.89124
1187.696, 70.06091
1188.178, 97.59399
1188.660, 126.4027
1189.142, 123.5715
1189.625, 101.0972
1190.107, 81.45312
1190.589, 67.60791
1191.071, 66.71423
1191.553, 95.69446
1192.035, 110.4841
1192.517, 87.71948
1192.999, 44.02014
1193.481, 14.15149
1193.964, 2.180908
1194.446, 4.197021
1194.928, 14.63416
1195.410, 29.58557
1195.892, 26.40088
1196.374, 31.58081
1196.856, 69.62793
1197.338, 125.0890
1197.820, 143.1425
1198.303, 130.4039
1198.785, 108.2510
1199.267, 60.42065
1199.749, 46.39087
1200.231, 103.4875
1200.713, 163.2565
1201.195, 163.7302
1201.677, 118.1121
1202.160, 82.86462
1202.642, 58.99695
1203.124, 49.97058
1203.606, 68.25342
1204.088, 87.99768
1204.570, 111.0364
1205.052, 123.4242
1205.534, 97.65332
1206.016, 46.25769
1206.499, 31.51001
1206.981, 52.47375
1207.463, 74.14136
1207.945, 82.41431
1208.427, 81.90442
1208.909, 66.74902
1209.391, 52.41589
1209.873, 69.07898
1210.355, 108.1083
1210.838, 129.9863
1211.320, 130.9874
1211.802, 124.7346
1212.284, 114.8561
1212.766, 102.6743
1213.248, 88.22925
1213.730, 72.95081
1214.212, 55.98816
1214.695, 40.24524
1215.177, 44.66003
1215.659, 75.08301
1216.141, 86.93420
1216.623, 28.70972
1217.105, 20.54724
1217.587, 26.33960
1218.069, 2.424927
1218.552, 16.57373
1219.034, 31.66492
1219.516, 47.14941
1219.998, 63.77258
1220.480, 80.99353
1220.962, 104.9155
1221.444, 121.8369
1221.926, 124.0037
1222.408, 114.8936
1222.891, 110.7595
1223.373, 107.0669
1223.855, 79.78967
1224.337, 2.359619
1224.819, 40.60754
1225.301, 29.92737
1225.783, 98.91821
1226.265, 98.32263
1226.747, 48.31750
1227.230, 44.78442
1227.712, 73.86621
1228.194, 79.63135
1228.676, 13.73767
1229.158, 21.88977
1229.640, 29.57690
1230.122, 90.07410
1230.604, 109.0687
1231.087, 94.56006
1231.569, 77.39246
1232.051, 60.13147
1232.533, 52.63831
1233.015, 61.57629
1233.497, 78.95642
1233.979, 115.3101
1234.461, 141.9156
1234.943, 124.8307
1235.426, 78.36353
1235.908, 58.63013
1236.390, 61.94580
1236.872, 71.48950
1237.354, 92.87109
1237.836, 100.7869
1238.318, 87.41711
1238.800, 67.94800
1239.282, 51.10950
1239.765, 39.85498
1240.247, 54.96777
1240.729, 87.52393
1241.211, 93.20581
1241.693, 0.2899170
1242.175, 36.41284
1242.657, 28.98145
1243.139, 113.2786
1243.622, 115.6362
1244.104, 69.27161
1244.586, 41.42578
1245.068, 37.40247
1245.550, 44.21704
1246.032, 66.65625
1246.514, 89.10742
1246.996, 114.4172
1247.479, 127.3794
1247.961, 94.77405
1248.443, 43.65942
1248.925, 23.12122
1249.407, 33.54956
1249.889, 39.92517
1250.371, 29.83386
1250.853, 29.73364
1251.335, 47.10828
1251.818, 68.95898
1252.300, 81.47058
1252.782, 86.87170
1253.264, 85.81787
1253.746, 79.13281
1254.228, 76.54626
1254.710, 78.80505
1255.192, 86.23608
1255.674, 101.7570
1256.157, 106.0018
1256.639, 87.77588
1257.121, 58.99426
1257.603, 29.26404
1258.085, 1.898315
1258.567, 6.892700
1259.049, 51.41760
1259.531, 93.34644
1260.014, 119.6252
1260.496, 139.0880
1260.978, 137.4590
1261.460, 129.3651
1261.942, 129.0312
1262.424, 142.4103
1262.906, 141.1241
1263.388, 124.0107
1263.870, 103.9464
1264.353, 81.36560
1264.835, 68.37598
1265.317, 92.44141
1265.799, 117.7473
1266.281, 106.0820
1266.763, 64.46655
1267.245, 44.64294
1267.727, 46.04187
1268.209, 60.43567
1268.692, 88.62817
1269.174, 110.8064
1269.656, 87.67883
1270.138, 55.28345
1270.620, 39.02698
1271.102, 36.81091
1271.584, 39.48499
1272.066, 46.49304
1272.549, 58.16736
1273.031, 79.51062
1273.513, 89.75708
1273.995, 68.93445
1274.477, 43.19861
1274.959, 23.38794
1275.441, 11.32410
1275.923, 17.46704
1276.406, 36.14929
1276.888, 53.09363
1277.370, 65.86987
1277.852, 69.48694
1278.334, 56.18433
1278.816, 44.56958
1279.298, 45.25220
1279.780, 53.22498
1280.262, 59.57532
1280.745, 62.22961
1281.227, 54.44177
1281.709, 23.42920
1282.191, 14.71997
1282.673, 39.73486
1283.155, 63.88403
1283.637, 68.90601
1284.119, 61.18286
1284.601, 47.51184
1285.084, 30.88354
1285.566, 15.10327
1286.048, 2.785034
1286.530, 6.036499
1287.012, 6.822144
1287.494, 27.11145
1287.976, 56.47559
1288.458, 82.69446
1288.941, 86.72400
1289.423, 80.98047
1289.905, 86.73767
1290.387, 78.91821
1290.869, 62.96252
1291.351, 66.78113
1291.833, 38.28015
1292.315, 40.22742
1292.797, 45.09900
1293.280, 22.23608
1293.762, 0.1607670
1294.244, 0.0000000E+00
##END=



