##NAMES=Yoderite
##RRUFFID=R050277
##IDEAL CHEMISTRY=(MgAl_3_)(MgAl)Al_2_O_2_(SiO_4_)_4_(OH)_2_
##LOCALITY=Mautia Hill, Kongwa, Central Province, Tanzania
##OWNER=RRUFF
##SOURCE=Marcus Origlieri
##DESCRIPTION=Blue anhedral lathlike grains
##STATUS=The identification of this mineral has been confirmed by X-ray diffraction and chemical analysis
##URL=rruff.info/R050277
##MEASURED CHEMISTRY=(Mg_1.95_Mn_0.05_)_Σ=2_(Al_5.54_Fe^3+^_0.46_)_Σ=6_Si_4.00_O_18_(OH)_2_
144.7414, 0.0000000E+00
145.2236, 4.232422
145.7057, 10.05664
146.1878, 11.98242
146.6699, 12.34961
147.1520, 8.068359
147.6341, 7.6172002E-02
148.1163, 4.357422
148.5984, 0.3535160
149.0805, 10.57227
149.5626, 22.47070
150.0447, 28.13281
150.5268, 23.47266
151.0090, 24.86133
151.4911, 37.04297
151.9732, 50.17969
152.4553, 58.08008
152.9374, 59.54883
153.4195, 57.62891
153.9017, 56.68164
154.3838, 57.10547
154.8659, 57.34570
155.3480, 56.28320
155.8301, 55.41602
156.3122, 56.72852
156.7944, 61.00195
157.2765, 66.40820
157.7586, 69.37305
158.2407, 69.27734
158.7228, 70.13672
159.2049, 74.19727
159.6871, 80.08594
160.1692, 84.53320
160.6513, 86.17578
161.1334, 86.36719
161.6155, 86.92578
162.0976, 87.72656
162.5798, 89.51172
163.0619, 93.68555
163.5440, 99.97852
164.0261, 104.7363
164.5082, 105.9609
164.9903, 105.4805
165.4725, 103.4434
165.9546, 99.35938
166.4367, 97.95312
166.9188, 107.2930
167.4009, 131.5703
167.8830, 149.4492
168.3652, 151.4941
168.8473, 148.1836
169.3294, 147.5703
169.8115, 152.3438
170.2936, 157.3457
170.7757, 150.7734
171.2579, 120.1211
171.7400, 101.3965
172.2221, 105.8965
172.7042, 119.2324
173.1863, 129.6406
173.6684, 131.8613
174.1506, 126.2793
174.6327, 114.0156
175.1148, 76.90234
175.5969, 53.90625
176.0790, 56.14648
176.5611, 71.89062
177.0433, 87.16602
177.5254, 94.87500
178.0075, 95.68945
178.4896, 92.38477
178.9717, 79.91797
179.4538, 69.59766
179.9360, 63.67188
180.4181, 61.86328
180.9002, 64.48242
181.3823, 73.17383
181.8644, 85.44141
182.3465, 89.38867
182.8287, 77.70508
183.3108, 66.33594
183.7929, 63.64844
184.2750, 68.32031
184.7571, 72.83203
185.2392, 70.73047
185.7214, 66.23242
186.2035, 71.02344
186.6856, 90.96289
187.1677, 114.5430
187.6498, 131.2090
188.1319, 140.5449
188.6141, 151.0469
189.0962, 172.9160
189.5783, 196.9805
190.0604, 209.8398
190.5425, 204.2031
191.0246, 191.0605
191.5068, 185.9492
191.9889, 191.2070
192.4710, 196.8672
192.9531, 197.3848
193.4352, 196.3887
193.9173, 198.2715
194.3995, 205.8887
194.8816, 215.9316
195.3637, 219.3301
195.8458, 208.7207
196.3279, 205.8281
196.8100, 222.3770
197.2922, 246.8926
197.7743, 266.0918
198.2564, 272.9922
198.7385, 270.1660
199.2206, 267.3164
199.7027, 263.9492
200.1849, 260.8496
200.6670, 258.0371
201.1491, 255.4531
201.6312, 253.0918
202.1133, 250.9648
202.5954, 248.0098
203.0776, 244.3848
203.5597, 243.1113
204.0418, 237.7852
204.5239, 223.7266
205.0060, 205.4062
205.4881, 189.8223
205.9703, 181.2285
206.4524, 179.2871
206.9345, 178.6348
207.4166, 185.0625
207.8987, 186.7402
208.3808, 176.4531
208.8630, 158.9102
209.3451, 144.0762
209.8272, 138.1250
210.3093, 140.0781
210.7914, 142.3613
211.2735, 145.7051
211.7557, 148.2832
212.2378, 151.5293
212.7199, 153.7637
213.2020, 148.7207
213.6841, 129.2148
214.1662, 100.6543
214.6484, 87.17383
215.1305, 97.73242
215.6126, 113.0371
216.0947, 124.2969
216.5768, 131.6992
217.0589, 136.0898
217.5410, 137.4590
218.0232, 136.3242
218.5053, 134.5645
218.9874, 132.1172
219.4695, 129.2559
219.9516, 124.6055
220.4337, 118.3730
220.9159, 116.3555
221.3980, 121.1621
221.8801, 131.8438
222.3622, 148.4102
222.8443, 174.7129
223.3264, 200.0586
223.8086, 209.8887
224.2907, 202.1875
224.7728, 198.2734
225.2549, 210.2695
225.7370, 228.7031
226.2191, 245.7949
226.7013, 259.6289
227.1834, 271.8145
227.6655, 284.6035
228.1476, 298.4512
228.6297, 310.4414
229.1118, 319.4297
229.5940, 327.0059
230.0761, 332.7168
230.5582, 335.3281
231.0403, 336.2324
231.5224, 339.0000
232.0045, 344.6074
232.4867, 349.3965
232.9688, 347.5449
233.4509, 347.9336
233.9330, 360.0137
234.4151, 385.9551
234.8972, 415.7070
235.3794, 431.5293
235.8615, 424.4492
236.3436, 425.2871
236.8257, 441.4141
237.3078, 462.0781
237.7899, 479.0996
238.2721, 490.7051
238.7542, 501.6133
239.2363, 520.5469
239.7184, 555.9648
240.2005, 581.9395
240.6826, 595.0684
241.1648, 602.7012
241.6469, 606.8574
242.1290, 608.9141
242.6111, 612.9512
243.0932, 626.0547
243.5753, 660.4219
244.0575, 678.1543
244.5396, 673.5137
245.0217, 658.2773
245.5038, 639.3145
245.9859, 618.4746
246.4680, 595.3125
246.9502, 569.4766
247.4323, 542.8320
247.9144, 506.7461
248.3965, 450.0098
248.8786, 392.2090
249.3607, 349.4785
249.8429, 323.3262
250.3250, 301.6211
250.8071, 269.1152
251.2892, 219.9707
251.7713, 182.4609
252.2534, 162.3281
252.7356, 149.2949
253.2177, 138.2988
253.6998, 127.9629
254.1819, 115.6348
254.6640, 97.79297
255.1461, 73.15820
255.6283, 53.76172
256.1104, 41.07422
256.5925, 32.77344
257.0746, 28.91797
257.5567, 29.07227
258.0388, 29.24609
258.5210, 25.70508
259.0031, 18.53320
259.4852, 13.73633
259.9673, 11.71875
260.4494, 11.92383
260.9315, 15.29883
261.4137, 21.48633
261.8958, 26.49219
262.3779, 26.85156
262.8600, 23.25977
263.3421, 21.59180
263.8242, 22.12695
264.3064, 24.21680
264.7885, 29.50781
265.2706, 37.28906
265.7527, 40.19336
266.2348, 30.32422
266.7169, 13.25977
267.1991, 5.199219
267.6812, 10.32031
268.1633, 19.82031
268.6454, 27.58398
269.1275, 33.92773
269.6096, 43.11328
270.0918, 61.92188
270.5739, 81.23633
271.0560, 85.08594
271.5381, 68.16797
272.0202, 47.58008
272.5023, 35.85547
272.9845, 31.92969
273.4666, 27.10156
273.9487, 17.30664
274.4308, 6.466797
274.9129, 1.029297
275.3951, 5.039063
275.8772, 5.564453
276.3593, 1.113281
276.8414, 13.11133
277.3235, 17.08398
277.8056, 4.669922
278.2878, 11.03711
278.7699, 17.48438
279.2520, 15.00000
279.7341, 8.847656
280.2162, 0.4218750
280.6983, 9.421875
281.1805, 15.73438
281.6626, 14.42188
282.1447, 14.22070
282.6268, 25.10742
283.1089, 43.83203
283.5910, 56.90430
284.0732, 53.17188
284.5553, 37.00781
285.0374, 25.04492
285.5195, 20.70703
286.0016, 15.82617
286.4837, 0.5351560
286.9659, 19.00000
287.4480, 29.09961
287.9301, 18.19922
288.4122, 5.800781
288.8943, 21.56836
289.3764, 27.53125
289.8586, 28.40430
290.3407, 24.03906
290.8228, 17.14648
291.3049, 11.45898
291.7870, 8.939453
292.2691, 7.816406
292.7513, 4.279297
293.2334, 2.789063
293.7155, 8.972656
294.1976, 12.59375
294.6797, 14.58398
295.1618, 15.98438
295.6440, 17.20508
296.1261, 17.06641
296.6082, 12.50000
297.0903, 1.492188
297.5724, 5.689453
298.0545, 1.548828
298.5367, 4.238281
299.0188, 4.232422
299.5009, 2.972656
299.9830, 11.13086
300.4651, 11.46680
300.9472, 2.078125
301.4294, 0.5839840
301.9115, 12.61719
302.3936, 28.07617
302.8757, 39.01953
303.3578, 45.13086
303.8399, 49.39844
304.3221, 53.90430
304.8042, 58.64453
305.2863, 64.41992
305.7684, 73.66406
306.2505, 81.43359
306.7326, 83.62695
307.2148, 82.39844
307.6969, 83.42578
308.1790, 91.89844
308.6611, 106.2969
309.1432, 116.3457
309.6253, 117.0371
310.1075, 120.7832
310.5896, 135.1055
311.0717, 154.4062
311.5538, 170.4727
312.0359, 178.9531
312.5180, 181.5781
313.0002, 181.1543
313.4823, 170.8125
313.9644, 172.1152
314.4465, 199.8867
314.9286, 236.3652
315.4107, 263.7754
315.8929, 275.7832
316.3750, 280.0762
316.8571, 290.2168
317.3392, 310.2617
317.8213, 322.5020
318.3034, 316.1445
318.7856, 305.9180
319.2677, 301.4355
319.7498, 304.1582
320.2319, 308.8672
320.7140, 310.0195
321.1961, 307.2676
321.6783, 303.8711
322.1604, 303.5312
322.6425, 299.3359
323.1246, 285.8066
323.6067, 264.6699
324.0888, 242.9844
324.5710, 226.4199
325.0531, 214.7500
325.5352, 202.5215
326.0173, 188.0059
326.4994, 175.4590
326.9815, 165.8105
327.4637, 159.4688
327.9458, 157.6699
328.4279, 162.8887
328.9100, 170.3438
329.3921, 166.4395
329.8742, 144.9863
330.3564, 125.8594
330.8385, 116.8535
331.3206, 113.3535
331.8027, 110.4512
332.2848, 106.1875
332.7669, 100.3555
333.2491, 93.01367
333.7312, 84.03906
334.2133, 78.01953
334.6954, 73.37305
335.1775, 71.44141
335.6596, 75.82422
336.1418, 86.95117
336.6239, 99.79688
337.1060, 108.5664
337.5881, 112.3125
338.0702, 117.9590
338.5523, 130.7891
339.0345, 140.2285
339.5165, 137.3223
339.9987, 125.1191
340.4808, 115.0117
340.9629, 117.5762
341.4450, 129.4629
341.9271, 132.6641
342.4092, 121.5586
342.8914, 111.5156
343.3735, 109.7852
343.8556, 113.8594
344.3377, 120.8320
344.8198, 130.7988
345.3019, 139.8242
345.7841, 140.0723
346.2662, 129.5137
346.7483, 118.8066
347.2304, 113.2305
347.7125, 109.3574
348.1946, 104.0898
348.6768, 96.64648
349.1589, 88.97461
349.6410, 83.18555
350.1231, 79.34180
350.6052, 75.70898
351.0873, 72.41211
351.5695, 68.33203
352.0516, 62.55273
352.5337, 55.30469
353.0158, 47.89453
353.4979, 41.33594
353.9800, 35.39258
354.4622, 28.58789
354.9443, 19.28125
355.4264, 12.83203
355.9085, 13.00781
356.3906, 18.36328
356.8727, 27.40234
357.3549, 43.78320
357.8370, 61.17773
358.3191, 71.64453
358.8012, 75.07227
359.2833, 71.16602
359.7654, 53.00586
360.2476, 30.38867
360.7297, 19.96289
361.2118, 27.86914
361.6939, 38.70117
362.1760, 40.58789
362.6581, 34.96680
363.1403, 29.71875
363.6224, 27.36133
364.1045, 26.32812
364.5866, 23.29297
365.0687, 17.81641
365.5508, 16.41406
366.0330, 23.70703
366.5151, 36.25000
366.9972, 49.19727
367.4793, 62.33789
367.9614, 72.27148
368.4435, 71.50977
368.9257, 62.91992
369.4078, 64.71484
369.8899, 92.46094
370.3720, 121.9219
370.8541, 132.0977
371.3362, 123.8730
371.8184, 109.3242
372.3005, 93.06641
372.7826, 76.64258
373.2647, 64.82422
373.7468, 58.72656
374.2289, 54.94336
374.7111, 52.71289
375.1932, 51.81445
375.6753, 51.87891
376.1574, 52.84961
376.6395, 54.47266
377.1216, 57.00781
377.6038, 61.74805
378.0859, 61.86133
378.5680, 52.68945
379.0501, 40.83789
379.5322, 31.38867
380.0143, 25.15625
380.4965, 22.10938
380.9786, 23.17383
381.4607, 28.43945
381.9428, 28.30273
382.4249, 18.59570
382.9070, 8.642578
383.3892, 2.791016
383.8713, 0.2753910
384.3534, 4.273438
384.8355, 11.31055
385.3176, 19.13477
385.7997, 21.14844
386.2819, 9.773438
386.7640, 1.488281
387.2461, 3.972656
387.7282, 5.835938
388.2103, 1.431641
388.6924, 8.990234
389.1746, 19.88672
389.6567, 23.98047
390.1388, 18.56445
390.6209, 17.59766
391.1030, 29.86719
391.5851, 37.84961
392.0673, 29.39062
392.5494, 10.07617
393.0315, 5.119141
393.5136, 5.171875
393.9957, 6.660156
394.4778, 10.35938
394.9600, 2.152344
395.4421, 12.04492
395.9242, 13.51953
396.4063, 12.58008
396.8884, 16.93359
397.3705, 28.77344
397.8527, 41.42773
398.3348, 43.29492
398.8169, 30.09375
399.2990, 21.78711
399.7811, 25.54492
400.2632, 29.67773
400.7454, 26.69336
401.2275, 18.51172
401.7096, 13.19531
402.1917, 17.45117
402.6738, 29.90820
403.1559, 42.93164
403.6381, 58.72461
404.1202, 70.83984
404.6023, 74.01953
405.0844, 73.54492
405.5665, 75.75195
406.0486, 82.93555
406.5308, 92.91797
407.0129, 104.0586
407.4950, 116.6543
407.9771, 125.9531
408.4592, 127.9141
408.9413, 128.7207
409.4235, 133.1113
409.9056, 141.2227
410.3877, 152.1602
410.8698, 167.0059
411.3519, 184.2910
411.8340, 200.8301
412.3162, 217.0176
412.7983, 230.7188
413.2804, 237.6367
413.7625, 241.1191
414.2446, 248.7383
414.7267, 264.1094
415.2089, 281.4629
415.6910, 297.1875
416.1731, 311.1016
416.6552, 321.8906
417.1373, 327.9258
417.6194, 332.0918
418.1016, 339.7969
418.5837, 351.1738
419.0658, 363.6699
419.5479, 374.5996
420.0300, 387.1289
420.5121, 407.2969
420.9943, 435.5840
421.4764, 462.7520
421.9585, 480.2852
422.4406, 487.6855
422.9227, 494.0254
423.4048, 500.0508
423.8870, 504.2637
424.3691, 506.8184
424.8512, 506.9570
425.3333, 502.6816
425.8154, 492.8809
426.2975, 479.7734
426.7797, 468.1719
427.2618, 456.4258
427.7439, 449.5039
428.2260, 451.4941
428.7081, 455.4180
429.1902, 456.7578
429.6724, 454.7520
430.1545, 450.2344
430.6366, 443.5723
431.1187, 434.7832
431.6008, 428.2402
432.0829, 423.9727
432.5651, 422.3789
433.0472, 428.1973
433.5293, 435.3281
434.0114, 434.2461
434.4935, 420.6484
434.9756, 402.0605
435.4578, 392.7480
435.9399, 395.4395
436.4220, 398.4609
436.9041, 400.1582
437.3862, 401.8242
437.8683, 404.7715
438.3505, 408.5840
438.8326, 411.1055
439.3147, 410.2559
439.7968, 406.7441
440.2789, 402.8750
440.7610, 397.0078
441.2432, 394.3262
441.7253, 398.2656
442.2074, 406.4160
442.6895, 417.3770
443.1716, 432.7148
443.6537, 445.5742
444.1359, 451.0898
444.6180, 449.1934
445.1001, 439.1406
445.5822, 416.1777
446.0643, 391.9844
446.5464, 380.9043
447.0286, 381.3184
447.5107, 382.6250
447.9928, 385.9785
448.4749, 386.9219
448.9570, 377.9668
449.4391, 360.0039
449.9213, 343.9082
450.4034, 336.3887
450.8855, 335.3789
451.3676, 333.9199
451.8497, 331.4551
452.3318, 328.6426
452.8140, 326.2246
453.2961, 323.9727
453.7782, 322.3633
454.2603, 321.4824
454.7424, 320.5566
455.2245, 318.8281
455.7067, 316.3613
456.1888, 311.9023
456.6709, 300.2090
457.1530, 292.0098
457.6351, 294.0391
458.1172, 302.3008
458.5994, 308.1387
459.0815, 306.7910
459.5636, 302.9434
460.0457, 309.7363
460.5278, 336.8379
461.0099, 354.6523
461.4921, 357.7246
461.9742, 355.0703
462.4563, 351.9023
462.9384, 348.8105
463.4205, 343.8438
463.9026, 333.9316
464.3848, 320.4824
464.8669, 314.1621
465.3490, 320.2988
465.8311, 323.4863
466.3132, 311.0703
466.7953, 295.2793
467.2775, 291.5566
467.7596, 305.2598
468.2417, 323.5039
468.7238, 332.7168
469.2059, 334.4395
469.6880, 341.9316
470.1702, 362.3691
470.6523, 380.1406
471.1344, 376.1270
471.6165, 355.4004
472.0986, 338.4492
472.5807, 332.8398
473.0629, 331.3066
473.5450, 327.8496
474.0271, 322.5977
474.5092, 316.8887
474.9913, 311.5957
475.4734, 306.1973
475.9556, 299.6152
476.4377, 293.4414
476.9198, 284.7832
477.4019, 269.7090
477.8840, 253.2461
478.3661, 240.6055
478.8483, 231.7012
479.3304, 221.6406
479.8125, 204.9766
480.2946, 183.8613
480.7767, 175.0488
481.2589, 193.4648
481.7410, 205.4805
482.2231, 198.4082
482.7052, 185.3340
483.1873, 183.2246
483.6694, 195.8926
484.1516, 210.5195
484.6337, 208.6094
485.1158, 186.3262
485.5979, 169.8340
486.0800, 161.2773
486.5621, 156.7949
487.0443, 158.5820
487.5264, 163.2090
488.0085, 163.2676
488.4906, 154.9102
488.9727, 143.0508
489.4548, 135.7402
489.9370, 133.5801
490.4191, 130.7363
490.9012, 123.5195
491.3833, 117.1523
491.8654, 118.5977
492.3475, 127.0605
492.8297, 131.3438
493.3118, 121.9766
493.7939, 108.2637
494.2760, 103.1797
494.7581, 106.8945
495.2402, 111.5508
495.7224, 112.7148
496.2045, 111.5137
496.6866, 112.2070
497.1687, 118.7988
497.6508, 118.5254
498.1329, 102.7285
498.6151, 82.32422
499.0972, 69.23438
499.5793, 65.11133
500.0614, 64.88867
500.5435, 64.63867
501.0256, 64.26367
501.5078, 59.44727
501.9899, 41.89844
502.4720, 29.64648
502.9541, 28.10156
503.4362, 32.74414
503.9183, 39.77930
504.4004, 47.60156
504.8825, 54.09375
505.3647, 56.70312
505.8468, 55.34375
506.3289, 50.58008
506.8110, 37.43945
507.2931, 27.10742
507.7752, 25.94727
508.2574, 30.38477
508.7395, 34.79492
509.2216, 37.92773
509.7037, 38.05469
510.1858, 29.11914
510.6679, 12.07422
511.1501, 5.662109
511.6322, 18.83398
512.1143, 37.71680
512.5964, 48.87109
513.0786, 52.96680
513.5607, 51.85742
514.0428, 38.31641
514.5249, 25.51953
515.0070, 28.82227
515.4891, 44.66211
515.9713, 55.62891
516.4534, 52.83789
516.9355, 42.38086
517.4176, 37.53516
517.8997, 41.22070
518.3818, 44.80859
518.8640, 46.62695
519.3461, 49.39648
519.8282, 58.52148
520.3103, 71.03516
520.7924, 76.03125
521.2745, 64.77734
521.7567, 42.84570
522.2388, 34.92578
522.7209, 51.04883
523.2030, 62.92188
523.6851, 66.43555
524.1672, 65.16211
524.6494, 59.33789
525.1315, 50.31055
525.6136, 43.18164
526.0957, 40.71289
526.5778, 43.35742
527.0599, 56.98047
527.5421, 88.47461
528.0242, 106.4004
528.5063, 83.61133
528.9884, 45.34961
529.4705, 26.41016
529.9526, 33.42383
530.4348, 41.39648
530.9169, 35.19141
531.3990, 22.19531
531.8811, 15.76953
532.3632, 17.59766
532.8453, 18.36719
533.3275, 9.326172
533.8096, 7.273438
534.2917, 12.92578
534.7738, 0.5781250
535.2559, 11.56055
535.7380, 23.99805
536.2202, 31.69922
536.7023, 24.09180
537.1844, 1.904297
537.6665, 17.66211
538.1486, 14.26758
538.6307, 12.42773
539.1129, 25.89453
539.5950, 14.61133
540.0771, 4.781250
540.5592, 3.142578
541.0413, 5.951172
541.5234, 9.666016
542.0056, 13.26953
542.4877, 15.76562
542.9698, 16.26367
543.4519, 14.75195
543.9340, 10.50781
544.4161, 1.396484
544.8983, 5.494141
545.3804, 1.062500
545.8625, 7.978516
546.3446, 7.857422
546.8267, 8.869141
547.3088, 24.61328
547.7910, 27.34375
548.2731, 22.26758
548.7552, 20.21484
549.2373, 23.54492
549.7194, 26.37695
550.2015, 22.16602
550.6837, 10.50781
551.1658, 4.447266
551.6479, 7.537109
552.1300, 10.82812
552.6121, 13.02148
553.0942, 13.57812
553.5764, 12.41992
554.0585, 9.412109
554.5406, 3.378906
555.0227, 8.857422
555.5048, 28.14648
555.9869, 38.46484
556.4691, 33.33398
556.9512, 27.68359
557.4333, 25.63281
557.9154, 26.58594
558.3975, 31.09570
558.8796, 39.96680
559.3618, 46.94922
559.8439, 45.49219
560.3260, 37.36133
560.8081, 28.21289
561.2902, 18.04492
561.7723, 10.62500
562.2545, 10.37695
562.7366, 15.61914
563.2187, 17.19336
563.7008, 11.08594
564.1829, 6.449219
564.6650, 7.373047
565.1472, 11.56445
565.6293, 16.53906
566.1114, 21.47070
566.5935, 25.01953
567.0756, 25.03320
567.5577, 21.46484
568.0399, 25.59570
568.5220, 43.41992
569.0041, 61.97266
569.4862, 85.80469
569.9683, 105.6445
570.4504, 108.9453
570.9326, 94.75586
571.4147, 78.14062
571.8968, 75.71094
572.3789, 84.55273
572.8610, 84.07617
573.3431, 70.68945
573.8253, 58.54688
574.3074, 55.92773
574.7895, 58.29102
575.2716, 58.44531
575.7537, 54.54492
576.2358, 54.37695
576.7180, 64.39844
577.2001, 79.25000
577.6822, 94.00977
578.1643, 107.3027
578.6464, 112.5547
579.1285, 103.4766
579.6107, 84.42773
580.0928, 74.25195
580.5749, 78.61133
581.0570, 84.73438
581.5391, 94.15625
582.0212, 103.7168
582.5034, 111.2988
582.9855, 116.6504
583.4676, 119.5723
583.9497, 118.5938
584.4318, 116.8066
584.9139, 126.3379
585.3961, 151.5117
585.8782, 173.0039
586.3602, 187.7676
586.8423, 194.9609
587.3245, 189.9648
587.8066, 174.5059
588.2887, 162.9609
588.7708, 163.4844
589.2529, 169.7285
589.7350, 174.8340
590.2172, 179.0000
590.6993, 184.9043
591.1814, 194.2793
591.6635, 203.4102
592.1456, 207.6719
592.6277, 208.1543
593.1099, 203.2441
593.5920, 189.1973
594.0741, 173.8301
594.5562, 157.7871
595.0383, 143.9980
595.5204, 137.1328
596.0026, 140.9609
596.4847, 148.7461
596.9668, 145.5176
597.4489, 128.6191
597.9310, 121.8477
598.4131, 132.7949
598.8953, 144.8730
599.3774, 153.0195
599.8595, 155.7441
600.3416, 148.8359
600.8237, 127.7168
601.3058, 107.7676
601.7880, 101.0781
602.2701, 104.2070
602.7522, 110.0059
603.2343, 118.0566
603.7164, 125.7031
604.1985, 130.9062
604.6807, 132.7871
605.1628, 129.9629
605.6449, 120.3770
606.1270, 111.4883
606.6091, 106.3340
607.0912, 100.5664
607.5734, 88.66406
608.0555, 72.07422
608.5376, 58.46094
609.0197, 53.95117
609.5018, 55.85352
609.9839, 54.28320
610.4661, 47.20508
610.9482, 43.70898
611.4303, 51.87305
611.9124, 60.40820
612.3945, 59.79688
612.8766, 50.83789
613.3588, 41.77539
613.8409, 35.42773
614.3230, 31.45312
614.8051, 29.00977
615.2872, 28.40039
615.7693, 31.89453
616.2515, 40.75781
616.7336, 51.58594
617.2157, 59.78516
617.6978, 65.05859
618.1799, 68.02148
618.6620, 69.11523
619.1442, 67.39453
619.6263, 56.96484
620.1084, 45.43750
620.5905, 45.54102
621.0726, 60.57031
621.5547, 78.58008
622.0369, 83.66992
622.5190, 76.64844
623.0011, 77.06641
623.4832, 89.20703
623.9653, 99.47852
624.4474, 100.5449
624.9296, 96.14258
625.4117, 90.43359
625.8938, 83.34570
626.3759, 77.34375
626.8580, 71.14062
627.3401, 68.08203
627.8223, 76.46484
628.3044, 93.90039
628.7865, 104.0918
629.2686, 96.78906
629.7507, 79.48633
630.2328, 71.94531
630.7150, 83.43945
631.1971, 86.09375
631.6792, 72.87109
632.1613, 58.80859
632.6434, 50.64062
633.1255, 47.41602
633.6077, 46.44336
634.0898, 46.90234
634.5719, 47.17188
635.0540, 45.63477
635.5361, 42.21094
636.0182, 35.07031
636.5004, 22.13672
636.9825, 11.21875
637.4646, 8.001953
637.9467, 11.75000
638.4288, 18.32031
638.9109, 33.48047
639.3931, 42.43945
639.8752, 34.06641
640.3573, 21.08008
640.8394, 18.83984
641.3215, 27.07812
641.8036, 33.93945
642.2858, 30.45312
642.7679, 20.00000
643.2500, 14.99805
643.7321, 18.29102
644.2142, 19.48438
644.6964, 14.43359
645.1785, 9.164063
645.6606, 6.857422
646.1427, 7.105469
646.6248, 8.351563
647.1069, 10.88281
647.5891, 12.84375
648.0712, 11.25977
648.5533, 7.636719
649.0354, 7.695313
649.5175, 13.11523
649.9996, 16.87500
650.4818, 10.97656
650.9639, 3.570313
651.4460, 8.328125
651.9281, 4.746094
652.4102, 16.38867
652.8923, 27.40430
653.3745, 33.28711
653.8566, 26.86328
654.3387, 10.31445
654.8208, 5.371094
655.3029, 12.47852
655.7850, 13.32031
656.2672, 13.41602
656.7493, 12.86914
657.2314, 9.287109
657.7135, 9.3750000E-02
658.1956, 9.601563
658.6777, 12.12695
659.1599, 9.462891
659.6420, 13.28125
660.1241, 33.47070
660.6062, 51.35547
661.0883, 54.61914
661.5704, 50.96680
662.0526, 52.90625
662.5347, 62.35938
663.0168, 70.53125
663.4989, 68.04297
663.9810, 57.11133
664.4631, 57.20508
664.9453, 76.01172
665.4274, 89.18164
665.9095, 86.24219
666.3916, 79.77930
666.8737, 75.67188
667.3558, 75.35352
667.8380, 83.03711
668.3201, 112.9805
668.8022, 140.7500
669.2843, 136.3574
669.7664, 108.7148
670.2485, 83.59180
670.7307, 68.13281
671.2128, 61.63086
671.6949, 63.99805
672.1770, 75.41797
672.6591, 83.49805
673.1412, 89.56250
673.6234, 90.52344
674.1055, 78.29688
674.5876, 66.05859
675.0697, 67.51172
675.5518, 81.44336
676.0339, 94.04102
676.5161, 95.33203
676.9982, 90.53125
677.4803, 89.07227
677.9624, 90.67773
678.4445, 90.79883
678.9266, 87.10547
679.4088, 84.40820
679.8909, 88.78906
680.3730, 100.1699
680.8551, 106.4355
681.3372, 104.7148
681.8193, 101.5352
682.3015, 94.13867
682.7836, 88.60352
683.2657, 94.26562
683.7478, 110.5664
684.2299, 126.1934
684.7120, 130.4844
685.1942, 126.7051
685.6763, 122.6055
686.1584, 118.6582
686.6405, 112.4980
687.1226, 99.72266
687.6047, 89.55664
688.0869, 96.06250
688.5690, 113.9102
689.0511, 119.8906
689.5332, 100.7949
690.0153, 80.57617
690.4974, 68.15625
690.9796, 61.99414
691.4617, 61.10547
691.9438, 64.75000
692.4259, 70.86719
692.9080, 78.16211
693.3901, 85.98047
693.8723, 91.85352
694.3544, 95.41211
694.8365, 98.12891
695.3186, 98.59375
695.8007, 99.66602
696.2828, 105.0781
696.7650, 112.4473
697.2471, 114.6523
697.7292, 107.5273
698.2113, 99.98828
698.6934, 96.62109
699.1755, 95.67773
699.6577, 94.01367
700.1398, 92.86328
700.6219, 95.44727
701.1040, 104.7832
701.5861, 117.7715
702.0682, 123.4727
702.5504, 118.8242
703.0325, 114.8926
703.5146, 112.7598
703.9967, 112.0195
704.4788, 111.0977
704.9609, 111.2461
705.4431, 110.8789
705.9252, 108.5918
706.4073, 108.6465
706.8894, 117.6699
707.3715, 130.5742
707.8536, 136.7031
708.3358, 135.4082
708.8179, 133.5859
709.3000, 135.0215
709.7821, 138.3066
710.2642, 140.9609
710.7463, 144.7871
711.2285, 144.9395
711.7106, 140.5723
712.1927, 133.7578
712.6748, 123.5938
713.1569, 111.9004
713.6390, 100.7363
714.1212, 90.54102
714.6033, 84.32227
715.0854, 85.81641
715.5675, 92.77930
716.0496, 105.3574
716.5317, 121.9336
717.0139, 120.7695
717.4960, 87.02539
717.9781, 45.76172
718.4602, 41.51367
718.9423, 87.75781
719.4244, 115.9355
719.9066, 119.5312
720.3887, 113.8809
720.8708, 96.87500
721.3529, 76.62695
721.8350, 61.90430
722.3171, 54.28125
722.7993, 49.06641
723.2814, 41.91016
723.7635, 35.23047
724.2456, 36.77930
724.7277, 44.85156
725.2098, 42.37500
725.6920, 21.07617
726.1741, 2.9297000E-02
726.6562, 4.367188
727.1383, 35.98047
727.6204, 48.28516
728.1025, 18.83789
728.5847, 6.4452998E-02
729.0668, 10.56836
729.5489, 28.08789
730.0310, 30.63086
730.5131, 20.12891
730.9952, 16.57422
731.4774, 35.71289
731.9595, 60.42188
732.4416, 65.18945
732.9237, 53.78906
733.4058, 43.64258
733.8879, 38.19141
734.3701, 34.75586
734.8522, 31.89648
735.3343, 29.28906
735.8164, 25.45898
736.2985, 13.27539
736.7806, 10.63867
737.2628, 31.10938
737.7449, 48.46289
738.2270, 39.71484
738.7091, 16.48633
739.1912, 8.244141
739.6733, 29.03711
740.1555, 50.07227
740.6376, 34.02734
741.1197, 2.939453
741.6018, 14.91406
742.0839, 1.232422
742.5660, 15.98242
743.0482, 12.82422
743.5303, 1.457031
744.0124, 1.445313
744.4945, 16.20312
744.9766, 29.68359
745.4587, 48.23242
745.9409, 59.06836
746.4230, 49.83203
746.9051, 32.34766
747.3872, 23.88086
747.8693, 27.80273
748.3514, 37.73438
748.8336, 53.91406
749.3157, 70.80469
749.7978, 81.75586
750.2799, 86.21680
750.7620, 79.44141
751.2441, 59.27344
751.7263, 36.37695
752.2084, 21.67969
752.6905, 15.15430
753.1726, 14.03320
753.6547, 27.27148
754.1368, 32.23242
754.6190, 19.95898
755.1011, 4.164063
755.5832, 9.953125
756.0653, 19.36133
756.5474, 16.03711
757.0295, 10.33984
757.5117, 35.68164
757.9938, 34.07031
758.4759, 17.68555
758.9580, 13.17578
759.4401, 22.13867
759.9222, 22.66797
760.4044, 1.363281
760.8865, 35.18359
761.3686, 38.88672
761.8507, 2.541016
762.3328, 28.60156
762.8149, 33.76367
763.2971, 29.58398
763.7792, 13.74219
764.2613, 4.781250
764.7434, 13.00391
765.2255, 8.230469
765.7076, 2.609375
766.1898, 3.802734
766.6719, 5.066406
767.1540, 2.417969
767.6361, 14.91992
768.1182, 21.93555
768.6003, 20.31445
769.0825, 15.62891
769.5646, 13.42188
770.0467, 13.63281
770.5288, 17.28125
771.0109, 24.93555
771.4930, 34.03516
771.9752, 45.91211
772.4573, 56.71094
772.9394, 63.81055
773.4215, 67.23047
773.9036, 66.73242
774.3857, 59.65234
774.8679, 52.59570
775.3500, 46.94531
775.8321, 43.63672
776.3142, 44.35547
776.7963, 48.47852
777.2784, 54.56836
777.7606, 62.15820
778.2427, 68.05859
778.7248, 65.41211
779.2069, 54.89062
779.6890, 48.17383
780.1711, 45.93555
780.6533, 47.44727
781.1354, 54.83789
781.6175, 63.21289
782.0996, 62.87500
782.5817, 50.94922
783.0638, 44.02344
783.5460, 49.22461
784.0281, 51.76562
784.5102, 43.80273
784.9923, 31.82031
785.4744, 21.69531
785.9565, 15.39844
786.4387, 15.24414
786.9208, 26.46484
787.4029, 41.75000
787.8850, 48.63281
788.3671, 48.78125
788.8492, 53.16406
789.3314, 64.85742
789.8135, 69.64258
790.2956, 53.86719
790.7777, 24.28125
791.2598, 8.792969
791.7419, 13.18945
792.2241, 21.17383
792.7062, 40.05859
793.1883, 54.37109
793.6704, 50.69922
794.1525, 40.03320
794.6346, 41.86133
795.1168, 61.59961
795.5989, 80.44336
796.0810, 89.14844
796.5631, 89.51562
797.0452, 81.17578
797.5273, 66.52148
798.0095, 47.85156
798.4916, 26.45508
798.9737, 13.12109
799.4558, 23.63281
799.9379, 54.04297
800.4200, 58.40234
800.9022, 25.59570
801.3843, 6.978516
801.8664, 25.71094
802.3485, 47.10156
802.8306, 33.19531
803.3127, 1.775391
803.7949, 14.74414
804.2770, 10.64453
804.7591, 32.55078
805.2412, 34.28320
805.7233, 36.32617
806.2054, 63.68164
806.6876, 103.8965
807.1697, 124.4746
807.6518, 112.6035
808.1339, 91.30469
808.6160, 86.21094
809.0981, 92.89453
809.5803, 96.56445
810.0624, 96.94336
810.5445, 95.42969
811.0266, 91.70117
811.5087, 89.58008
811.9908, 95.13086
812.4730, 108.3086
812.9551, 108.6602
813.4372, 83.19727
813.9193, 61.72656
814.4014, 47.88086
814.8835, 41.07227
815.3657, 39.12305
815.8478, 41.67969
816.3299, 49.95312
816.8120, 67.53516
817.2941, 81.73633
817.7762, 82.11523
818.2584, 74.00195
818.7405, 63.19336
819.2226, 52.12891
819.7047, 40.30273
820.1868, 24.19727
820.6689, 12.31836
821.1511, 19.47461
821.6332, 44.14648
822.1153, 57.68750
822.5974, 57.47852
823.0795, 58.23438
823.5616, 66.00586
824.0438, 73.43164
824.5259, 71.17969
825.0080, 61.21094
825.4901, 58.27539
825.9722, 75.69922
826.4543, 81.81250
826.9365, 52.87891
827.4186, 24.69141
827.9007, 32.45703
828.3828, 63.94336
828.8649, 84.29883
829.3470, 79.43164
829.8292, 67.44922
830.3113, 64.57812
830.7934, 67.75195
831.2755, 71.94727
831.7576, 76.32617
832.2397, 77.43359
832.7219, 73.73828
833.2040, 68.50977
833.6861, 65.84180
834.1682, 65.46289
834.6503, 63.05273
835.1324, 56.50000
835.6146, 52.74805
836.0967, 57.56836
836.5788, 60.81445
837.0609, 52.69531
837.5430, 37.81445
838.0251, 29.00195
838.5073, 30.18359
838.9894, 32.67578
839.4715, 32.69531
839.9536, 33.87305
840.4357, 41.77148
840.9178, 52.59180
841.4000, 58.84961
841.8821, 58.19922
842.3642, 53.03516
842.8463, 43.72070
843.3284, 32.53320
843.8105, 24.23438
844.2927, 18.97070
844.7748, 18.73828
845.2569, 24.47461
845.7390, 30.52734
846.2211, 31.62500
846.7032, 29.15625
847.1854, 30.25781
847.6675, 40.66016
848.1496, 41.55859
848.6317, 20.18164
849.1138, 2.197266
849.5959, 2.242188
850.0781, 11.25391
850.5602, 15.93359
851.0423, 14.34180
851.5244, 12.29492
852.0065, 12.15820
852.4886, 11.93750
852.9708, 10.25586
853.4529, 7.656250
853.9350, 4.775391
854.4171, 1.933594
854.8992, 0.1171880
855.3813, 0.6015630
855.8635, 0.7636720
856.3456, 3.875000
856.8277, 8.953125
857.3098, 8.703125
857.7919, 1.765625
858.2740, 0.5859380
858.7562, 14.27148
859.2383, 31.88281
859.7204, 30.78320
860.2025, 5.033203
860.6846, 3.566406
861.1667, 26.90625
861.6489, 43.12305
862.1310, 13.56250
862.6131, 23.73633
863.0952, 35.92969
863.5773, 26.58398
864.0594, 21.93555
864.5416, 34.44922
865.0237, 42.03906
865.5058, 26.00391
865.9879, 7.474609
866.4700, 8.968750
866.9521, 25.46484
867.4343, 41.76367
867.9164, 51.58594
868.3985, 53.16016
868.8806, 38.04492
869.3627, 15.08594
869.8448, 7.736328
870.3270, 14.91992
870.8091, 27.00586
871.2912, 41.97266
871.7733, 51.86328
872.2554, 47.97852
872.7375, 34.18750
873.2197, 29.11719
873.7018, 33.78711
874.1839, 45.49023
874.6660, 74.78906
875.1481, 96.70312
875.6302, 92.00391
876.1124, 74.72266
876.5945, 64.11523
877.0766, 61.55273
877.5587, 61.28906
878.0408, 63.23047
878.5229, 65.83984
879.0051, 68.70508
879.4872, 71.84766
879.9693, 72.57617
880.4514, 73.12500
880.9335, 83.68164
881.4156, 114.0234
881.8978, 142.3613
882.3799, 135.0156
882.8620, 111.8945
883.3441, 120.3750
883.8262, 157.4922
884.3083, 182.8906
884.7905, 178.8516
885.2726, 165.1680
885.7547, 168.4043
886.2368, 186.0918
886.7189, 193.4727
887.2010, 188.4707
887.6832, 182.5352
888.1653, 177.5156
888.6474, 173.1953
889.1295, 167.9492
889.6116, 163.4746
890.0938, 166.8145
890.5759, 183.3320
891.0580, 196.7461
891.5401, 204.9316
892.0222, 211.9922
892.5043, 219.1152
892.9865, 226.4863
893.4686, 235.2578
893.9507, 245.0059
894.4328, 251.3203
894.9149, 249.4316
895.3970, 246.5430
895.8792, 247.3262
896.3613, 250.5020
896.8434, 254.8945
897.3255, 259.9746
897.8076, 264.6914
898.2897, 268.4980
898.7719, 272.9297
899.2540, 280.1328
899.7361, 289.6055
900.2182, 302.3340
900.7003, 317.6836
901.1824, 319.9395
901.6646, 302.2969
902.1467, 287.7363
902.6288, 301.7305
903.1109, 335.5547
903.5930, 340.9531
904.0751, 300.2266
904.5573, 284.2871
905.0394, 316.6934
905.5215, 346.6016
906.0036, 341.6602
906.4857, 322.5547
906.9678, 322.2734
907.4500, 343.6680
907.9321, 358.7617
908.4142, 359.1270
908.8963, 359.1875
909.3784, 364.2969
909.8605, 370.9297
910.3427, 375.2266
910.8248, 377.8887
911.3069, 380.9297
911.7890, 383.5449
912.2711, 393.9004
912.7532, 429.9102
913.2354, 468.3301
913.7175, 476.2852
914.1996, 462.1816
914.6817, 451.8398
915.1638, 452.7129
915.6459, 455.3750
916.1280, 449.7754
916.6101, 441.7559
917.0922, 448.4238
917.5743, 469.2422
918.0565, 489.9941
918.5386, 508.0566
919.0207, 515.9570
919.5028, 509.3008
919.9849, 499.3438
920.4670, 498.1973
920.9492, 505.7695
921.4313, 520.0215
921.9134, 550.0977
922.3955, 567.1699
922.8776, 552.3750
923.3597, 534.7363
923.8419, 541.3438
924.3240, 564.0605
924.8061, 577.7207
925.2882, 576.5879
925.7703, 578.5430
926.2524, 588.8262
926.7346, 596.6191
927.2167, 591.8652
927.6988, 585.6875
928.1809, 596.5684
928.6630, 622.7930
929.1451, 638.9492
929.6273, 628.2734
930.1094, 612.3555
930.5915, 604.4199
931.0736, 600.6758
931.5557, 601.0879
932.0378, 603.9551
932.5200, 607.2715
933.0021, 609.9102
933.4842, 604.9902
933.9663, 579.4609
934.4484, 544.3867
934.9305, 529.1074
935.4127, 529.7676
935.8948, 526.0957
936.3769, 513.8320
936.8590, 500.5039
937.3411, 491.1230
937.8232, 482.5254
938.3054, 464.9297
938.7875, 436.0371
939.2696, 423.5723
939.7517, 431.8379
940.2338, 440.8770
940.7159, 445.1113
941.1981, 445.6309
941.6802, 442.9219
942.1623, 437.2539
942.6444, 431.3164
943.1265, 427.0996
943.6086, 419.0117
944.0908, 403.8184
944.5729, 388.3848
945.0550, 379.5117
945.5371, 369.8867
946.0192, 343.8789
946.5013, 301.4961
946.9835, 278.8652
947.4656, 306.4746
947.9477, 328.1680
948.4298, 314.9023
948.9119, 291.5137
949.3940, 279.8633
949.8762, 277.7578
950.3583, 273.2246
950.8404, 262.3867
951.3225, 253.4414
951.8046, 256.9629
952.2867, 260.1211
952.7689, 242.9590
953.2510, 217.8398
953.7331, 212.3398
954.2152, 227.0879
954.6973, 237.7754
955.1794, 229.1719
955.6616, 215.1504
956.1437, 219.2383
956.6258, 234.5469
957.1079, 235.5664
957.5900, 222.7070
958.0721, 209.6562
958.5543, 200.4844
959.0364, 196.2578
959.5185, 198.3652
960.0006, 205.4258
960.4827, 215.9160
960.9648, 232.2031
961.4470, 226.9434
961.9291, 190.6738
962.4112, 162.1582
962.8933, 162.7070
963.3754, 172.2344
963.8575, 163.7812
964.3397, 137.8320
964.8218, 118.2090
965.3039, 106.7637
965.7860, 98.67969
966.2681, 94.76562
966.7502, 92.93945
967.2324, 92.33398
967.7145, 92.89844
968.1966, 95.72852
968.6787, 101.6719
969.1608, 102.8711
969.6429, 98.06055
970.1251, 88.63086
970.6072, 68.13086
971.0893, 49.12891
971.5714, 43.43750
972.0535, 47.23633
972.5356, 50.11523
973.0178, 49.29492
973.4999, 47.44141
973.9820, 42.64062
974.4641, 40.54102
974.9462, 53.94531
975.4283, 67.87695
975.9105, 56.28320
976.3926, 23.05664
976.8747, 4.121094
977.3568, 11.08984
977.8389, 9.697266
978.3210, 8.232422
978.8032, 7.705078
979.2853, 11.50000
979.7674, 17.38867
980.2495, 18.36523
980.7316, 13.29688
981.2137, 7.464844
981.6959, 4.472656
982.1780, 4.275391
982.6601, 10.60156
983.1422, 19.90039
983.6243, 12.77148
984.1064, 9.857422
984.5886, 21.14648
985.0707, 10.81250
985.5528, 0.6914060
986.0349, 9.474609
986.5170, 32.26367
986.9991, 28.91797
987.4813, 3.515625
987.9634, 13.80664
988.4455, 6.173828
988.9276, 30.92969
989.4097, 51.28320
989.8918, 65.24609
990.3740, 70.71875
990.8561, 67.63086
991.3382, 52.14648
991.8203, 14.66016
992.3024, 9.695313
992.7845, 15.97852
993.2667, 9.910156
993.7488, 11.90820
994.2309, 39.63672
994.7130, 57.25977
995.1951, 63.96484
995.6772, 66.80664
996.1594, 63.25781
996.6415, 59.18555
997.1236, 55.37109
997.6057, 50.88672
998.0878, 41.18945
998.5699, 31.70117
999.0521, 35.12500
999.5342, 55.21484
1000.016, 65.90039
1000.498, 55.13477
1000.981, 43.52930
1001.463, 38.48242
1001.945, 35.75781
1002.427, 31.21484
1002.909, 26.09375
1003.391, 23.93750
1003.873, 25.96875
1004.355, 29.05469
1004.837, 36.41992
1005.320, 39.41406
1005.802, 28.82617
1006.284, 13.16406
1006.766, 1.830078
1007.248, 4.701172
1007.730, 10.35938
1008.212, 17.01953
1008.694, 19.53320
1009.177, 11.02148
1009.659, 0.7617190
1010.141, 8.232422
1010.623, 12.87695
1011.105, 17.91016
1011.587, 23.40820
1012.069, 26.37305
1012.551, 24.83789
1013.033, 24.19727
1013.516, 31.80273
1013.998, 43.27539
1014.480, 53.60352
1014.962, 60.99219
1015.444, 57.17578
1015.926, 43.39844
1016.408, 39.29688
1016.890, 58.83984
1017.372, 83.63477
1017.855, 85.44531
1018.337, 70.67188
1018.819, 56.30664
1019.301, 43.97656
1019.783, 40.77734
1020.265, 47.92383
1020.747, 53.89258
1021.229, 49.06055
1021.712, 42.64453
1022.194, 60.60352
1022.676, 97.27148
1023.158, 97.27539
1023.640, 59.58398
1024.122, 30.01367
1024.604, 21.49414
1025.086, 27.87109
1025.568, 46.51758
1026.051, 70.15430
1026.533, 78.70312
1027.015, 71.26172
1027.497, 65.12891
1027.979, 59.70117
1028.461, 63.87109
1028.943, 83.78711
1029.425, 100.3203
1029.908, 94.94531
1030.390, 74.86133
1030.872, 63.43359
1031.354, 62.08789
1031.836, 63.55859
1032.318, 69.55859
1032.800, 72.68164
1033.282, 68.97070
1033.765, 64.98633
1034.247, 66.61328
1034.729, 72.68750
1035.211, 80.05078
1035.693, 90.12695
1036.175, 98.51562
1036.657, 101.8008
1037.139, 110.3438
1037.621, 133.6543
1038.104, 155.1914
1038.586, 158.2578
1039.068, 146.9199
1039.550, 137.9688
1040.032, 130.9492
1040.514, 126.8125
1040.996, 129.0039
1041.478, 129.7246
1041.960, 126.9980
1042.443, 121.2812
1042.925, 110.3613
1043.407, 96.84766
1043.889, 92.99805
1044.371, 107.0840
1044.853, 112.3594
1045.335, 100.9727
1045.817, 88.71875
1046.300, 79.66406
1046.782, 74.68359
1047.264, 76.04102
1047.746, 82.57031
1048.228, 91.21484
1048.710, 106.8633
1049.192, 114.6133
1049.674, 100.7207
1050.156, 89.64258
1050.639, 92.94727
1051.121, 100.6562
1051.603, 103.5605
1052.085, 102.2988
1052.567, 103.5469
1053.049, 110.6875
1053.531, 112.0918
1054.013, 96.97852
1054.495, 86.37109
1054.978, 94.35547
1055.460, 105.9043
1055.942, 103.3203
1056.424, 93.68945
1056.906, 100.6738
1057.388, 135.1758
1057.870, 152.2773
1058.352, 122.4316
1058.835, 95.57812
1059.317, 97.38672
1059.799, 110.7637
1060.281, 116.1504
1060.763, 117.9004
1061.245, 129.5176
1061.727, 157.3926
1062.209, 173.1387
1062.692, 157.7695
1063.174, 140.2812
1063.656, 135.2793
1064.138, 132.7578
1064.620, 120.5312
1065.102, 103.3594
1065.584, 95.76367
1066.066, 101.4805
1066.548, 103.4121
1067.031, 88.45703
1067.513, 78.06641
1067.995, 88.63281
1068.477, 101.7715
1068.959, 96.17969
1069.441, 81.84570
1069.923, 84.93750
1070.405, 110.4980
1070.887, 126.3828
1071.370, 108.4062
1071.852, 91.80469
1072.334, 102.1113
1072.816, 113.3301
1073.298, 93.47656
1073.780, 61.59180
1074.262, 58.08594
1074.744, 88.27539
1075.227, 113.0273
1075.709, 109.4492
1076.191, 105.3203
1076.673, 120.9316
1077.155, 134.2031
1077.637, 119.3008
1078.119, 93.33789
1078.601, 88.58398
1079.083, 106.6641
1079.566, 115.2559
1080.048, 92.08984
1080.530, 75.14844
1081.012, 91.57617
1081.494, 111.9902
1081.976, 113.0352
1082.458, 104.2188
1082.940, 100.9043
1083.422, 103.9492
1083.905, 104.0352
1084.387, 95.87500
1084.869, 89.90625
1085.351, 95.10156
1085.833, 100.0508
1086.315, 94.79297
1086.797, 86.17773
1087.279, 83.03320
1087.761, 85.14648
1088.244, 86.82617
1088.726, 85.36133
1089.208, 87.59375
1089.690, 104.4492
1090.172, 116.4043
1090.654, 105.8086
1091.136, 89.31055
1091.618, 82.81836
1092.101, 86.51953
1092.583, 96.74414
1093.065, 113.6484
1093.547, 127.5156
1094.029, 140.2812
1094.511, 141.7520
1094.993, 114.0156
1095.475, 83.90039
1095.958, 77.97461
1096.440, 87.40430
1096.922, 89.20117
1097.404, 78.73438
1097.886, 75.23242
1098.368, 98.21484
1098.850, 111.0156
1099.332, 87.20703
1099.814, 61.65820
1100.297, 67.57422
1100.779, 85.37109
1101.261, 76.63672
1101.743, 40.01367
1102.225, 21.79297
1102.707, 53.30273
1103.189, 74.17578
1103.671, 59.97656
1104.153, 41.68945
1104.636, 41.38672
1105.118, 43.89453
1105.600, 25.20312
1106.082, 10.77344
1106.564, 34.01953
1107.046, 39.16992
1107.528, 32.69922
1108.010, 7.164063
1108.493, 18.71680
1108.975, 45.66211
1109.457, 62.65430
1109.939, 47.40625
1110.421, 14.67188
1110.903, 15.40625
1111.385, 71.87305
1111.867, 97.38281
1112.349, 60.93945
1112.832, 25.40430
1113.314, 2.974609
1113.796, 10.42188
1114.278, 16.98047
1114.760, 16.80469
1115.242, 5.744141
1115.724, 20.27539
1116.206, 25.53711
1116.688, 17.22852
1117.171, 36.13672
1117.653, 1.234375
1118.135, 28.78125
1118.617, 15.59570
1119.099, 10.40625
1119.581, 5.750000
1120.063, 26.65820
1120.545, 41.01953
1121.028, 23.29297
1121.510, 20.63477
1121.992, 46.37109
1122.474, 63.59961
1122.956, 52.86523
1123.438, 38.58789
1123.920, 47.40820
1124.402, 70.33789
1124.885, 72.53906
1125.367, 46.95117
1125.849, 32.72656
1126.331, 34.03516
1126.813, 32.36523
1127.295, 20.55273
1127.777, 13.13867
1128.259, 21.82227
1128.741, 39.15430
1129.224, 52.41797
1129.706, 61.40820
1130.188, 51.18359
1130.670, 17.34375
1131.152, 1.835938
1131.634, 13.02539
1132.116, 27.27930
1132.598, 33.51562
1133.080, 33.08008
1133.563, 25.16992
1134.045, 15.14062
1134.527, 30.62305
1135.009, 69.48828
1135.491, 84.19922
1135.973, 71.73242
1136.455, 58.27539
1136.937, 52.51953
1137.420, 46.81836
1137.902, 33.93164
1138.384, 20.97656
1138.866, 23.95312
1139.348, 38.66797
1139.830, 47.37500
1140.312, 51.63867
1140.794, 65.98438
1141.276, 90.12500
1141.759, 97.98047
1142.241, 74.93750
1142.723, 44.04883
1143.205, 31.59570
1143.687, 31.13672
1144.169, 33.09766
1144.651, 36.65430
1145.133, 40.39258
1145.615, 43.78516
1146.098, 43.56055
1146.580, 39.79883
1147.062, 44.39062
1147.544, 72.56836
1148.026, 99.04883
1148.508, 88.73047
1148.990, 67.56250
1149.472, 70.87500
1149.955, 88.53125
1150.437, 97.39453
1150.919, 95.06250
1151.401, 93.55078
1151.883, 98.00000
1152.365, 104.1680
1152.847, 111.6602
1153.329, 117.3184
1153.812, 117.3086
1154.294, 115.4355
1154.776, 116.3457
1155.258, 118.8516
1155.740, 117.7520
1156.222, 111.8945
1156.704, 110.8535
1157.186, 124.2461
1157.668, 134.0918
1158.151, 132.3047
1158.633, 127.7109
1159.115, 125.2891
1159.597, 123.7402
1160.079, 121.7578
1160.561, 119.2207
1161.043, 114.4434
1161.525, 103.3613
1162.007, 97.66797
1162.490, 102.9551
1162.972, 107.1992
1163.454, 104.5078
1163.936, 101.6543
1164.418, 107.9141
1164.900, 116.6152
1165.382, 108.8086
1165.864, 82.60938
1166.347, 75.62305
1166.829, 97.07812
1167.311, 106.8594
1167.793, 95.41406
1168.275, 84.41797
1168.757, 84.55469
1169.239, 89.49609
1169.721, 91.08789
1170.203, 90.91016
1170.686, 97.02148
1171.168, 109.6855
1171.650, 109.9277
1172.132, 96.82422
1172.614, 96.28516
1173.096, 116.1816
1173.578, 135.8145
1174.060, 140.5391
1174.542, 135.7422
1175.025, 132.2168
1175.507, 131.6992
1175.989, 124.9551
1176.471, 114.4492
1176.953, 112.3184
1177.435, 119.3301
1177.917, 123.1602
1178.399, 119.2930
1178.882, 120.1289
1179.364, 138.4238
1179.846, 160.1738
1180.328, 169.0020
1180.810, 169.4766
1181.292, 166.0586
1181.774, 160.5332
1182.256, 154.9160
1182.739, 149.5117
1183.221, 144.0117
1183.703, 138.4824
1184.185, 132.9707
1184.667, 123.9590
1185.149, 119.3770
1185.631, 134.4648
1186.113, 147.0293
1186.595, 123.1699
1187.078, 87.55469
1187.560, 93.46484
1188.042, 141.3281
1188.524, 168.4492
1189.006, 144.1504
1189.488, 128.2324
1189.970, 139.6016
1190.452, 149.4004
1190.934, 142.3594
1191.417, 132.6621
1191.899, 135.3359
1192.381, 144.0547
1192.863, 141.4492
1193.345, 124.9590
1193.827, 117.9551
1194.309, 124.2480
1194.791, 122.0781
1195.274, 103.5293
1195.756, 92.71484
1196.238, 103.1621
1196.720, 120.8145
1197.202, 129.5137
1197.684, 129.8281
1198.166, 122.9844
1198.648, 109.5762
1199.130, 107.5723
1199.613, 116.3086
1200.095, 110.4023
1200.577, 85.44531
1201.059, 72.21289
1201.541, 88.64648
1202.023, 115.1387
1202.505, 132.3574
1202.987, 138.8789
1203.469, 125.3438
1203.952, 101.9629
1204.434, 89.24609
1204.916, 86.80859
1205.398, 88.52734
1205.880, 91.87695
1206.362, 95.03516
1206.844, 97.69727
1207.326, 96.74414
1207.809, 89.81641
1208.291, 78.39062
1208.773, 54.63086
1209.255, 34.38086
1209.737, 44.16797
1210.219, 69.01367
1210.701, 66.92969
1211.183, 30.85547
1211.666, 15.68555
1212.148, 54.95117
1212.630, 83.32812
1213.112, 85.55664
1213.594, 78.62305
1214.076, 60.52930
1214.558, 45.13477
1215.040, 46.71094
1215.522, 59.64258
1216.005, 68.01562
1216.487, 71.19336
1216.969, 74.07031
1217.451, 77.54492
1217.933, 76.26562
1218.415, 69.04883
1218.897, 57.58984
1219.379, 41.45898
1219.861, 28.46289
1220.344, 27.68750
1220.826, 34.08594
1221.308, 33.81250
1221.790, 28.93945
1222.272, 32.27930
1222.754, 40.86328
1223.236, 34.94336
1223.718, 14.39453
1224.201, 3.000000
1224.683, 11.80664
1225.165, 21.56250
1225.647, 11.99414
1226.129, 1.642578
1226.611, 2.412109
1227.093, 2.597656
1227.575, 4.722656
1228.057, 6.304688
1228.540, 15.83984
1229.022, 30.65820
1229.504, 33.59180
1229.986, 15.12305
1230.468, 4.576172
1230.950, 21.95703
1231.432, 34.98242
1231.914, 24.39844
1232.396, 13.59766
1232.879, 21.82422
1233.361, 37.75195
1233.843, 45.47852
1234.325, 45.57422
1234.807, 40.14844
1235.289, 23.04492
1235.771, 21.47461
1236.253, 39.79102
1236.736, 60.50781
1237.218, 82.64453
1237.700, 88.02930
1238.182, 62.16992
1238.664, 30.26953
1239.146, 30.29688
1239.628, 49.58398
1240.110, 45.10352
1240.593, 22.90820
1241.075, 7.355469
1241.557, 0.3261720
1242.039, 3.761719
1242.521, 4.042969
1243.003, 4.6875000E-02
1243.485, 9.839844
1243.967, 15.43555
1244.449, 0.1699220
1244.932, 14.61133
1245.414, 2.187500
1245.896, 18.47266
1246.378, 26.52930
1246.860, 27.42773
1247.342, 35.98828
1247.824, 51.35156
1248.306, 55.05273
1248.788, 37.10742
1249.271, 23.08594
1249.753, 22.26758
1250.235, 18.47461
1250.717, 1.283203
1251.199, 13.10547
1251.681, 3.128906
1252.163, 26.91211
1252.645, 28.89453
1253.128, 12.84375
1253.610, 0.6738280
1254.092, 8.468750
1254.574, 5.982422
1255.056, 8.345703
1255.538, 20.30078
1256.020, 26.84766
1256.502, 30.66211
1256.984, 32.93945
1257.467, 32.01172
1257.949, 25.02539
1258.431, 15.96484
1258.913, 12.34766
1259.395, 11.81250
1259.877, 9.937500
1260.359, 8.205078
1260.841, 10.48633
1261.323, 16.69336
1261.806, 24.99609
1262.288, 35.58789
1262.770, 39.23047
1263.252, 20.44727
1263.734, 10.69922
1264.216, 31.33984
1264.698, 48.11523
1265.180, 45.53711
1265.663, 33.43164
1266.145, 27.01172
1266.627, 25.55859
1267.109, 27.16211
1267.591, 29.39062
1268.073, 24.72266
1268.555, 3.703125
1269.037, 0.2695310
1269.520, 25.94531
1270.002, 45.98242
1270.484, 40.30273
1270.966, 24.41992
1271.448, 10.97266
1271.930, 2.802734
1272.412, 9.369141
1272.894, 23.13281
1273.376, 21.95117
1273.859, 11.88867
1274.341, 10.10547
1274.823, 16.20312
1275.305, 24.70312
1275.787, 33.09570
1276.269, 32.58984
1276.751, 9.412109
1277.233, 1.001953
1277.715, 42.51367
1278.198, 75.82422
1278.680, 62.47656
1279.162, 34.54688
1279.644, 18.10742
1280.126, 10.98242
1280.608, 5.183594
1281.090, 4.8827998E-02
1281.572, 0.1406250
1282.055, 11.43164
1282.537, 14.41016
1283.019, 5.830078
1283.501, 0.0000000E+00
##END=



