##NAMES=Zavaritskite
##RRUFFID=R070488
##IDEAL CHEMISTRY=Bi^3+^OF
##LOCALITY=Moldava, Dubí, Krusné Hory Mts (Erzgebirge), Ústí Region, Bohemia (Böhmen; Boehmen), Czech Republic
##OWNER=RRUFF
##SOURCE=Michael Scott
##DESCRIPTION=Dark gray submetallic massive
##STATUS=The identification of this mineral is not yet confirmed.
##URL=rruff.info/R070488
156.4232, 0.0000000E+00
156.9053, 20.16394
157.3874, 36.70923
157.8695, 46.33777
158.3516, 59.06152
158.8338, 63.88660
159.3159, 62.34827
159.7980, 53.49866
160.2801, 33.52148
160.7622, 20.55371
161.2443, 12.46790
161.7265, 6.310425
162.2086, 0.8800050
162.6907, 4.988525
163.1728, 2.818848
163.6549, 8.826782
164.1370, 19.15051
164.6192, 22.50122
165.1013, 21.15686
165.5834, 20.54419
166.0655, 26.15405
166.5476, 31.77539
167.0297, 31.75122
167.5119, 20.33093
167.9940, 9.801758
168.4761, 8.459351
168.9582, 14.60144
169.4403, 21.11621
169.9224, 24.91211
170.4046, 26.53333
170.8867, 26.48730
171.3688, 22.80859
171.8509, 19.24841
172.3330, 18.27405
172.8151, 19.85730
173.2973, 24.39490
173.7794, 38.54272
174.2615, 55.26917
174.7436, 62.58972
175.2257, 42.69360
175.7078, 17.58557
176.1900, 16.34265
176.6721, 41.00696
177.1542, 66.85242
177.6363, 70.82068
178.1184, 58.39758
178.6005, 43.76599
179.0827, 31.97644
179.5648, 22.74402
180.0469, 14.62805
180.5290, 6.730591
181.0111, 3.004272
181.4932, 13.42566
181.9754, 34.43774
182.4575, 49.02234
182.9396, 40.54321
183.4217, 18.52002
183.9038, 7.505615
184.3859, 13.27588
184.8681, 25.53052
185.3502, 28.10925
185.8323, 21.75488
186.3144, 15.44214
186.7965, 14.75781
187.2786, 19.09009
187.7608, 26.87842
188.2429, 39.74829
188.7250, 53.70825
189.2071, 59.71997
189.6892, 57.67798
190.1713, 51.99060
190.6535, 44.38513
191.1356, 35.30371
191.6177, 29.32727
192.0998, 27.84436
192.5819, 30.08862
193.0640, 35.29565
193.5462, 44.27332
194.0283, 51.21436
194.5104, 46.80322
194.9925, 31.27051
195.4746, 22.81079
195.9567, 30.79700
196.4389, 51.33594
196.9210, 59.33594
197.4031, 52.53259
197.8852, 40.83606
198.3673, 34.80444
198.8494, 34.51660
199.3316, 39.78491
199.8137, 54.60962
200.2958, 78.54626
200.7779, 88.91528
201.2600, 82.77051
201.7421, 69.20923
202.2243, 61.45630
202.7064, 60.19189
203.1885, 61.23364
203.6706, 63.47449
204.1527, 67.11670
204.6348, 69.75696
205.1170, 71.35938
205.5991, 71.95569
206.0812, 71.06201
206.5633, 67.95129
207.0454, 65.88025
207.5275, 66.63721
208.0097, 70.65466
208.4918, 75.89001
208.9739, 84.28821
209.4560, 92.53284
209.9381, 89.87695
210.4202, 71.99878
210.9024, 54.71277
211.3845, 48.19617
211.8666, 55.84900
212.3487, 60.65100
212.8308, 61.15942
213.3129, 57.99207
213.7951, 52.24207
214.2772, 41.48169
214.7593, 32.77954
215.2414, 31.78467
215.7235, 41.31543
216.2056, 49.56787
216.6878, 55.52441
217.1699, 59.13330
217.6520, 58.95679
218.1341, 52.55603
218.6162, 46.32642
219.0983, 45.40564
219.5805, 51.72327
220.0626, 58.21521
220.5447, 64.39526
221.0268, 70.44177
221.5089, 75.45605
221.9910, 80.66003
222.4732, 82.57275
222.9553, 77.10889
223.4374, 60.16418
223.9195, 45.36560
224.4016, 35.20581
224.8837, 29.71948
225.3659, 26.59131
225.8480, 26.07800
226.3301, 27.64075
226.8122, 31.22754
227.2943, 38.67395
227.7764, 44.28540
228.2586, 46.37000
228.7407, 44.59167
229.2228, 43.66956
229.7049, 45.63855
230.1870, 46.49939
230.6691, 39.70178
231.1513, 15.92615
231.6334, 2.445923
232.1155, 10.17395
232.5976, 43.36902
233.0797, 63.69958
233.5618, 67.19373
234.0440, 61.27417
234.5261, 54.55786
235.0082, 43.48767
235.4903, 38.20581
235.9724, 43.72791
236.4545, 64.46924
236.9367, 76.08777
237.4188, 76.65723
237.9009, 69.68848
238.3830, 59.30725
238.8651, 40.82776
239.3472, 26.87036
239.8294, 22.18555
240.3115, 29.25818
240.7936, 36.30420
241.2757, 44.50061
241.7578, 51.95764
242.2399, 55.16504
242.7221, 50.76746
243.2042, 45.87915
243.6863, 43.43835
244.1684, 45.04626
244.6505, 43.32715
245.1326, 34.95764
245.6148, 24.97607
246.0969, 24.36487
246.5790, 41.05347
247.0611, 54.13818
247.5432, 53.81775
248.0253, 31.35754
248.5075, 21.51550
248.9896, 29.95227
249.4717, 48.47937
249.9538, 59.90283
250.4359, 61.87061
250.9180, 60.57507
251.4002, 57.82263
251.8823, 52.17908
252.3644, 49.11328
252.8465, 49.39246
253.3286, 51.94629
253.8107, 54.64099
254.2929, 58.45862
254.7750, 60.76587
255.2571, 59.47095
255.7392, 51.18689
256.2213, 49.59741
256.7035, 59.52185
257.1856, 74.15491
257.6677, 76.27515
258.1498, 60.47974
258.6319, 42.26538
259.1140, 27.64539
259.5962, 15.01086
260.0783, 11.16003
260.5604, 20.25635
261.0425, 36.33972
261.5246, 43.19629
262.0067, 37.22388
262.4889, 29.69458
262.9710, 25.05273
263.4531, 22.81763
263.9352, 26.22388
264.4173, 39.22583
264.8994, 55.93677
265.3816, 60.48523
265.8637, 48.58435
266.3458, 34.68005
266.8279, 24.56104
267.3100, 17.80383
267.7921, 17.81799
268.2743, 27.56689
268.7564, 42.38220
269.2385, 49.95898
269.7206, 48.72693
270.2027, 45.01404
270.6848, 41.85608
271.1670, 39.49329
271.6491, 35.85645
272.1312, 29.37708
272.6133, 22.87122
273.0954, 24.77881
273.5775, 38.36011
274.0597, 48.95972
274.5418, 46.16541
275.0239, 27.36243
275.5060, 19.45404
275.9881, 26.29651
276.4702, 40.43658
276.9524, 46.68280
277.4345, 43.91895
277.9166, 37.98230
278.3987, 29.26819
278.8808, 17.28162
279.3629, 14.77881
279.8451, 25.87347
280.3272, 41.56171
280.8093, 41.34418
281.2914, 22.89154
281.7735, 5.225342
282.2556, 2.205383
282.7378, 0.4098510
283.2199, 6.951538
283.7020, 18.83167
284.1841, 31.41730
284.6662, 35.77124
285.1483, 32.26166
285.6305, 27.79956
286.1126, 23.64398
286.5947, 20.02179
287.0768, 17.55402
287.5589, 16.86530
288.0410, 15.90686
288.5232, 9.155029
289.0053, 2.890686
289.4874, 10.14349
289.9695, 4.607056
290.4516, 11.14624
290.9337, 21.22040
291.4159, 24.52740
291.8980, 23.65820
292.3801, 19.85480
292.8622, 13.76770
293.3443, 10.80823
293.8264, 16.55029
294.3086, 27.58856
294.7907, 33.96735
295.2728, 34.79529
295.7549, 32.68683
296.2370, 30.56964
296.7191, 28.33667
297.2013, 25.36243
297.6834, 21.89795
298.1655, 17.51166
298.6476, 9.228699
299.1297, 3.855652
299.6118, 13.53870
300.0940, 7.498596
300.5761, 10.00500
301.0582, 25.83704
301.5403, 31.93951
302.0224, 32.80841
302.5045, 35.83826
302.9867, 41.69470
303.4688, 45.17340
303.9509, 36.49609
304.4330, 22.16675
304.9151, 15.24353
305.3972, 28.64856
305.8794, 48.36841
306.3615, 59.69904
306.8436, 62.53894
307.3257, 61.69318
307.8078, 60.21692
308.2899, 57.53186
308.7721, 52.79968
309.2542, 39.86682
309.7363, 28.84460
310.2184, 29.43976
310.7005, 40.94452
311.1826, 53.50909
311.6648, 63.99597
312.1469, 71.11743
312.6290, 73.46436
313.1111, 66.97070
313.5932, 58.70508
314.0753, 51.69983
314.5575, 46.00568
315.0396, 41.77271
315.5217, 38.74365
316.0038, 37.43353
316.4859, 38.28473
316.9680, 42.06281
317.4502, 47.93994
317.9323, 56.77582
318.4144, 67.47504
318.8965, 75.61493
319.3786, 78.88538
319.8607, 79.62811
320.3429, 79.28052
320.8250, 77.75000
321.3071, 75.74475
321.7892, 74.15143
322.2713, 72.39972
322.7534, 68.57440
323.2356, 60.64978
323.7177, 51.67786
324.1998, 43.11920
324.6819, 32.82556
325.1640, 26.98169
325.6461, 29.42682
326.1283, 36.59296
326.6104, 40.07074
327.0925, 35.68439
327.5746, 30.47998
328.0567, 26.97028
328.5388, 26.38721
329.0210, 25.12738
329.5031, 22.76849
329.9852, 19.90417
330.4673, 17.61810
330.9494, 18.00146
331.4315, 16.54578
331.9137, 11.01044
332.3958, 0.7959590
332.8779, 8.008057
333.3600, 9.255798
333.8421, 6.790344
334.3242, 3.015198
334.8064, 3.735474
335.2885, 8.445129
335.7706, 8.604797
336.2527, 3.656860
336.7348, 4.131042
337.2169, 13.18939
337.6991, 23.48877
338.1812, 26.72156
338.6633, 20.48566
339.1454, 15.62451
339.6275, 14.67975
340.1096, 17.12469
340.5918, 20.76624
341.0739, 27.42023
341.5560, 30.55957
342.0381, 19.46509
342.5202, 7.501709
343.0023, 19.45709
343.4845, 5.020203
343.9666, 24.99353
344.4487, 35.60773
344.9308, 25.42120
345.4129, 9.867737
345.8951, 2.922729
346.3772, 12.40759
346.8593, 11.41028
347.3414, 4.326355
347.8235, 25.55664
348.3056, 34.22394
348.7878, 31.13995
349.2699, 26.01947
349.7520, 26.10974
350.2341, 28.75372
350.7162, 26.37671
351.1983, 17.08160
351.6805, 6.742859
352.1626, 2.073120
352.6447, 2.226379
353.1268, 4.675232
353.6089, 8.649841
354.0910, 13.97058
354.5732, 21.92865
355.0553, 33.16693
355.5374, 41.25293
356.0195, 39.78540
356.5016, 31.62531
356.9837, 21.85590
357.4659, 8.941406
357.9480, 1.913513
358.4301, 6.543030
358.9122, 5.018982
359.3943, 0.7590940
359.8764, 6.341492
360.3586, 14.45349
360.8407, 21.53003
361.3228, 30.16156
361.8049, 34.61584
362.2870, 29.58527
362.7691, 16.72754
363.2513, 6.626892
363.7334, 4.092224
364.2155, 4.928223
364.6976, 6.355164
365.1797, 8.374573
365.6618, 10.19629
366.1440, 12.03986
366.6261, 13.62622
367.1082, 14.10138
367.5903, 12.28345
368.0724, 10.20355
368.5545, 8.709167
369.0367, 8.158203
369.5188, 7.706665
370.0009, 7.283997
370.4830, 6.998352
370.9651, 6.964783
371.4472, 6.460327
371.9294, 7.259277
372.4115, 11.03540
372.8936, 19.54913
373.3757, 21.30707
373.8578, 12.30304
374.3399, 0.4054570
374.8221, 4.960388
375.3042, 2.002563
375.7863, 2.352844
376.2684, 6.159851
376.7505, 9.705872
377.2326, 18.39331
377.7148, 35.19910
378.1969, 48.86670
378.6790, 46.14020
379.1611, 25.58411
379.6432, 11.81299
380.1253, 11.49207
380.6075, 18.53845
381.0896, 14.62183
381.5717, 1.102356
382.0538, 14.31396
382.5359, 13.97345
383.0180, 2.704895
383.5002, 7.855347
383.9823, 16.79370
384.4644, 23.52679
384.9465, 26.47278
385.4286, 26.15521
385.9107, 25.28943
386.3929, 25.47894
386.8750, 25.92896
387.3571, 24.97913
387.8392, 22.35675
388.3213, 20.10760
388.8034, 20.44592
389.2856, 22.34503
389.7677, 23.92615
390.2498, 23.41901
390.7319, 22.48157
391.2140, 23.20844
391.6961, 25.71423
392.1783, 28.60504
392.6604, 33.78339
393.1425, 37.54175
393.6246, 36.34204
394.1067, 23.70508
394.5888, 13.04419
395.0710, 11.86456
395.5531, 17.30743
396.0352, 19.81805
396.5173, 10.38306
396.9994, 1.958618
397.4815, 2.351379
397.9637, 19.16101
398.4458, 30.40936
398.9279, 30.22540
399.4100, 23.41730
399.8921, 18.21497
400.3742, 12.96173
400.8564, 9.884277
401.3385, 12.62592
401.8206, 22.38403
402.3027, 26.84564
402.7848, 21.76434
403.2669, 15.19867
403.7491, 15.52368
404.2312, 26.70935
404.7133, 35.14349
405.1954, 39.42767
405.6775, 39.03430
406.1596, 34.50513
406.6418, 24.22815
407.1239, 14.46906
407.6060, 10.85522
408.0881, 13.69275
408.5702, 13.16730
409.0523, 6.508606
409.5345, 1.290100
410.0166, 0.7892460
410.4987, 12.55640
410.9808, 24.15570
411.4629, 30.09180
411.9450, 31.64832
412.4272, 33.99432
412.9093, 37.80896
413.3914, 38.60541
413.8735, 26.84528
414.3556, 7.963013
414.8377, 3.599915
415.3199, 2.152893
415.8020, 14.50806
416.2841, 22.96283
416.7662, 28.16437
417.2483, 31.52740
417.7304, 34.96667
418.2126, 36.47632
418.6947, 33.26642
419.1768, 19.69086
419.6589, 9.586243
420.1410, 13.62817
420.6231, 26.74713
421.1053, 36.42908
421.5874, 36.57257
422.0695, 33.24603
422.5516, 28.42523
423.0337, 21.05511
423.5158, 16.66034
423.9980, 19.47028
424.4801, 24.67615
424.9622, 26.49823
425.4443, 19.88513
425.9264, 14.73596
426.4085, 12.95697
426.8907, 14.51758
427.3728, 16.18011
427.8549, 17.70801
428.3370, 19.55469
428.8191, 21.92639
429.3012, 24.40619
429.7834, 29.03375
430.2655, 37.98779
430.7476, 48.09393
431.2297, 49.62634
431.7118, 40.89062
432.1939, 30.55896
432.6761, 22.36566
433.1582, 16.75598
433.6403, 13.19507
434.1224, 11.27130
434.6045, 12.08173
435.0866, 20.44757
435.5688, 34.50519
436.0509, 42.03534
436.5330, 33.82062
437.0151, 19.46002
437.4972, 17.16986
437.9793, 26.25348
438.4615, 38.91168
438.9436, 54.06824
439.4257, 67.22839
439.9078, 70.79041
440.3899, 61.00244
440.8720, 49.72845
441.3542, 45.38843
441.8363, 45.44647
442.3184, 45.16962
442.8005, 41.88214
443.2826, 38.07922
443.7647, 34.97534
444.2469, 32.63867
444.7290, 31.54718
445.2111, 32.19568
445.6932, 34.01202
446.1753, 36.44843
446.6574, 43.04321
447.1396, 46.28241
447.6217, 41.79535
448.1038, 31.08820
448.5859, 26.44513
449.0680, 29.28217
449.5501, 36.82581
450.0323, 49.38403
450.5144, 75.10071
450.9965, 85.40686
451.4786, 73.40387
451.9607, 51.60797
452.4428, 41.57812
452.9250, 45.51111
453.4071, 53.26099
453.8892, 63.35590
454.3713, 74.87103
454.8534, 80.04596
455.3355, 78.00647
455.8177, 74.99707
456.2998, 76.75806
456.7819, 82.58246
457.2640, 89.19196
457.7461, 96.93622
458.2282, 103.7126
458.7104, 104.8868
459.1925, 101.5917
459.6746, 97.40698
460.1567, 90.06061
460.6388, 85.19257
461.1209, 92.64020
461.6031, 115.5359
462.0852, 133.7788
462.5673, 129.8658
463.0494, 114.9331
463.5316, 102.9208
464.0137, 101.1093
464.4958, 101.9771
464.9779, 104.4478
465.4600, 107.7994
465.9421, 107.6324
466.4243, 96.16266
466.9064, 85.79987
467.3885, 84.66278
467.8706, 102.7987
468.3527, 110.8630
468.8348, 104.3232
469.3170, 89.94666
469.7991, 78.12708
470.2812, 68.78870
470.7633, 62.26569
471.2454, 60.29211
471.7275, 62.63000
472.2097, 58.04987
472.6918, 43.60962
473.1739, 29.31659
473.6560, 23.65771
474.1381, 26.71271
474.6202, 30.31195
475.1024, 33.95337
475.5845, 36.63361
476.0666, 35.61047
476.5487, 31.25775
477.0308, 27.27423
477.5129, 25.18634
477.9951, 24.87598
478.4772, 27.66144
478.9593, 33.78644
479.4414, 37.28357
479.9235, 26.36523
480.4056, 11.13660
480.8878, 7.717163
481.3699, 32.07318
481.8520, 56.03058
482.3341, 61.54700
482.8162, 52.78491
483.2983, 43.24500
483.7805, 37.21497
484.2626, 32.26410
484.7447, 27.37585
485.2268, 21.44330
485.7089, 18.70807
486.1910, 24.00702
486.6732, 30.92377
487.1553, 32.14105
487.6374, 21.11517
488.1195, 14.15771
488.6016, 15.75671
489.0837, 24.02411
489.5659, 26.37671
490.0480, 20.02313
490.5301, 14.09644
491.0122, 15.20856
491.4943, 24.19934
491.9764, 28.21716
492.4586, 25.61072
492.9407, 20.91461
493.4228, 20.57416
493.9049, 24.14386
494.3870, 27.80994
494.8691, 30.85840
495.3513, 32.69891
495.8334, 30.82214
496.3155, 25.70416
496.7976, 22.06079
497.2797, 25.51367
497.7618, 31.34979
498.2440, 33.38953
498.7261, 29.34827
499.2082, 24.96716
499.6903, 25.01849
500.1724, 26.88086
500.6545, 26.30566
501.1367, 18.50000
501.6188, 11.25586
502.1009, 7.781006
502.5830, 8.102844
503.0651, 8.835388
503.5472, 11.49310
504.0294, 13.01813
504.5115, 11.36035
504.9936, 1.654358
505.4757, 1.907288
505.9578, 3.711548
506.4399, 13.59436
506.9221, 18.36279
507.4042, 16.70959
507.8863, 14.46442
508.3684, 12.75787
508.8505, 11.90137
509.3326, 15.49304
509.8148, 24.37518
510.2969, 30.71680
510.7790, 24.07214
511.2611, 8.771301
511.7432, 0.9278560
512.2253, 3.908020
512.7075, 12.10492
513.1896, 24.48859
513.6717, 37.29413
514.1538, 41.05707
514.6359, 19.31763
515.1180, 4.486206
515.6002, 8.531433
516.0823, 6.236206
516.5644, 17.38959
517.0465, 8.783875
517.5286, 3.470337
518.0107, 7.083740
518.4929, 9.271667
518.9750, 19.14600
519.4571, 11.19025
519.9392, 4.231384
520.4213, 7.845398
520.9034, 10.74884
521.3856, 26.14978
521.8677, 32.26685
522.3498, 29.40265
522.8319, 24.49628
523.3140, 17.07660
523.7961, 8.715088
524.2783, 2.232056
524.7604, 15.85059
525.2425, 15.99585
525.7246, 2.071350
526.2067, 25.56256
526.6888, 34.49023
527.1710, 30.53973
527.6531, 24.38550
528.1352, 19.10376
528.6173, 15.44781
529.0994, 14.90540
529.5815, 17.26147
530.0637, 20.70325
530.5458, 26.56439
531.0279, 31.65607
531.5100, 32.82385
531.9921, 26.82831
532.4742, 20.45166
532.9564, 14.89471
533.4385, 10.83521
533.9206, 9.275635
534.4027, 13.41193
534.8848, 16.70251
535.3669, 17.44788
535.8491, 16.00415
536.3312, 14.97791
536.8133, 14.17822
537.2954, 14.03931
537.7775, 14.92999
538.2596, 17.07526
538.7418, 19.88708
539.2239, 24.56311
539.7060, 27.40765
540.1881, 19.35095
540.6702, 1.645142
541.1523, 5.016968
541.6345, 10.43152
542.1166, 34.50763
542.5987, 40.95874
543.0808, 32.19611
543.5629, 22.08203
544.0450, 18.44183
544.5272, 18.25244
545.0093, 18.25720
545.4914, 18.04590
545.9735, 19.01447
546.4556, 24.41992
546.9377, 30.31525
547.4199, 32.66516
547.9020, 27.47839
548.3841, 22.01379
548.8662, 16.41205
549.3483, 11.52075
549.8304, 9.952332
550.3126, 14.95746
550.7947, 19.14160
551.2768, 19.80969
551.7589, 16.71649
552.2410, 15.44287
552.7231, 16.63892
553.2053, 18.20007
553.6874, 18.11414
554.1695, 16.39453
554.6516, 15.09882
555.1337, 14.34851
555.6158, 14.42578
556.0980, 16.41925
556.5801, 19.81775
557.0622, 22.50092
557.5443, 23.59357
558.0264, 23.38654
558.5085, 20.93842
558.9907, 16.73877
559.4728, 1.470520
559.9549, 18.04993
560.4370, 27.47021
560.9191, 30.11591
561.4012, 5.698303
561.8834, 16.22595
562.3655, 12.74835
562.8476, 8.695923
563.3297, 24.10895
563.8118, 3.624512
564.2939, 18.75854
564.7761, 19.67328
565.2582, 27.09497
565.7403, 20.69092
566.2224, 19.25635
566.7045, 32.06335
567.1866, 36.20099
567.6688, 27.91150
568.1509, 35.74255
568.6330, 14.75885
569.1151, 19.05896
569.5972, 34.26752
570.0793, 26.67688
570.5615, 34.76611
571.0436, 36.88373
571.5257, 11.87134
572.0078, 34.05225
572.4899, 35.82684
572.9720, 16.49121
573.4542, 36.68896
573.9363, 20.37976
574.4184, 17.22449
574.9005, 23.96814
575.3826, 20.28882
575.8647, 32.70221
576.3469, 29.71918
576.8290, 25.33466
577.3111, 27.06122
577.7932, 11.32587
578.2753, 27.53064
578.7574, 22.11804
579.2396, 27.61438
579.7217, 35.58252
580.2038, 24.61536
580.6859, 33.69281
581.1680, 11.68481
581.6501, 15.68652
582.1323, 16.82001
582.6144, 33.79462
583.0965, 14.35229
583.5786, 2.289001
584.0607, 9.920898
584.5428, 8.049072
585.0250, 3.384827
585.5071, 6.2804997E-02
585.9892, 3.454468
586.4713, 8.698303
586.9534, 20.08630
587.4355, 25.94025
587.9177, 16.45105
588.3998, 0.3341670
588.8819, 8.057007
589.3640, 0.9746700
589.8461, 8.093933
590.3282, 8.681641
590.8104, 3.973877
591.2925, 3.706055
591.7746, 10.02264
592.2567, 15.22400
592.7388, 13.82263
593.2209, 6.030640
593.7031, 2.243652
594.1852, 3.419983
594.6673, 6.378418
595.1494, 7.991821
595.6315, 8.764282
596.1136, 9.849243
596.5958, 11.40277
597.0779, 13.57239
597.5600, 18.90625
598.0421, 24.93286
598.5242, 26.20367
599.0063, 11.77234
599.4885, 0.2647710
599.9706, 2.876709
600.4527, 18.71222
600.9348, 28.28912
601.4169, 22.70239
601.8990, 15.37354
602.3812, 12.55817
602.8633, 16.12726
603.3454, 17.05060
603.8275, 14.42004
604.3096, 10.50946
604.7917, 7.095764
605.2739, 4.107910
605.7560, 4.573792
606.2381, 9.987122
606.7202, 17.43604
607.2023, 22.75360
607.6844, 25.99634
608.1666, 27.60052
608.6487, 25.90094
609.1308, 23.88348
609.6129, 25.92670
610.0950, 31.32196
610.5771, 34.32788
611.0593, 30.03265
611.5414, 24.01361
612.0235, 19.41492
612.5056, 15.86322
612.9877, 16.02252
613.4698, 24.80273
613.9520, 34.50403
614.4341, 38.25659
614.9162, 33.81433
615.3983, 28.63062
615.8804, 22.64703
616.3625, 17.13916
616.8447, 15.91132
617.3268, 19.08551
617.8089, 21.55511
618.2910, 20.13623
618.7731, 17.10339
619.2552, 17.33679
619.7374, 20.65393
620.2195, 25.67719
620.7016, 36.60498
621.1837, 45.88715
621.6658, 44.03741
622.1479, 28.69684
622.6301, 13.18280
623.1122, 1.183960
623.5943, 11.02551
624.0764, 13.35889
624.5585, 0.4078370
625.0406, 11.32623
625.5228, 18.90845
626.0049, 23.11316
626.4870, 23.30988
626.9691, 17.96936
627.4512, 13.42023
627.9333, 11.54608
628.4155, 11.65344
628.8976, 10.78375
629.3797, 8.929443
629.8618, 8.673645
630.3439, 13.99744
630.8260, 21.22595
631.3082, 22.59229
631.7903, 17.68304
632.2724, 13.50238
632.7545, 17.11462
633.2366, 22.83679
633.7188, 24.99701
634.2009, 20.51038
634.6830, 16.45465
635.1651, 14.66577
635.6472, 14.41473
636.1293, 14.58075
636.6115, 14.61090
637.0936, 16.10229
637.5757, 20.15887
638.0578, 25.52466
638.5399, 27.88586
639.0220, 26.26550
639.5042, 25.09766
639.9863, 27.98590
640.4684, 32.77429
640.9505, 29.73962
641.4326, 18.96301
641.9147, 9.944824
642.3969, 13.89795
642.8790, 22.95831
643.3611, 26.28326
643.8432, 21.23059
644.3253, 16.77063
644.8074, 16.85034
645.2896, 20.06104
645.7717, 25.02264
646.2538, 39.51996
646.7359, 44.21350
647.2180, 32.82623
647.7001, 14.15594
648.1823, 6.178894
648.6644, 12.34210
649.1465, 19.25000
649.6286, 25.09253
650.1107, 28.53894
650.5928, 22.43890
651.0750, 6.975708
651.5571, 5.793152
652.0392, 7.325073
652.5213, 1.889587
653.0034, 4.997864
653.4855, 12.96478
653.9677, 18.86475
654.4498, 18.52423
654.9319, 16.35596
655.4140, 16.25903
655.8961, 19.71436
656.3782, 23.04376
656.8604, 27.25690
657.3425, 29.79834
657.8246, 28.05737
658.3067, 18.33319
658.7888, 12.13043
659.2709, 11.81958
659.7531, 14.57141
660.2352, 13.79260
660.7173, 9.358826
661.1994, 6.891052
661.6815, 9.739807
662.1636, 14.80109
662.6458, 13.87054
663.1279, 8.523682
663.6100, 7.409668
664.0921, 23.20898
664.5742, 40.33478
665.0563, 44.92059
665.5385, 35.77344
666.0206, 25.17731
666.5027, 11.61554
666.9848, 1.975586
667.4669, 2.609558
667.9490, 20.08990
668.4312, 29.68146
668.9133, 28.72357
669.3954, 23.23798
669.8775, 19.31213
670.3596, 17.63080
670.8417, 15.43671
671.3239, 10.64539
671.8060, 7.261658
672.2881, 18.02338
672.7702, 37.63635
673.2523, 47.74274
673.7344, 30.69458
674.2166, 9.875610
674.6987, 7.058899
675.1808, 17.48389
675.6629, 24.68573
676.1450, 16.87061
676.6271, 9.642334
677.1093, 11.81866
677.5914, 24.25586
678.0735, 29.39789
678.5556, 23.47949
679.0377, 15.78082
679.5198, 11.04114
680.0020, 9.306519
680.4841, 10.72498
680.9662, 15.66699
681.4483, 19.99738
681.9304, 20.19720
682.4125, 18.13806
682.8947, 14.62604
683.3768, 8.693115
683.8589, 5.022766
684.3410, 9.578247
684.8231, 18.15393
685.3052, 24.85077
685.7874, 26.32306
686.2695, 27.25610
686.7516, 30.03101
687.2337, 33.07440
687.7158, 32.03638
688.1979, 23.68414
688.6801, 17.54889
689.1622, 17.22498
689.6443, 20.89465
690.1264, 18.47021
690.6085, 9.325806
691.0906, 3.218262
691.5728, 9.221130
692.0549, 21.27264
692.5370, 26.43390
693.0191, 24.75397
693.5012, 22.51691
693.9833, 26.83862
694.4655, 30.68713
694.9476, 26.28680
695.4297, 9.269409
695.9118, 2.048096
696.3939, 0.9902340
696.8760, 8.895569
697.3582, 13.35510
697.8403, 12.24847
698.3224, 13.85455
698.8045, 19.25952
699.2866, 26.41364
699.7687, 34.02216
700.2509, 41.78052
700.7330, 44.15033
701.2151, 38.68213
701.6972, 29.27094
702.1793, 18.49121
702.6614, 7.886597
703.1436, 1.636230
703.6257, 5.193970
704.1078, 10.10675
704.5899, 9.990479
705.0720, 6.752075
705.5541, 8.901672
706.0363, 27.67975
706.5184, 41.60339
707.0005, 42.69000
707.4826, 31.68115
707.9647, 25.06824
708.4468, 23.76349
708.9290, 23.30475
709.4111, 20.24475
709.8932, 15.50360
710.3753, 12.01501
710.8574, 9.747375
711.3395, 8.127258
711.8217, 6.634216
712.3038, 5.694702
712.7859, 5.131042
713.2680, 3.945740
713.7501, 7.000732
714.2322, 22.39825
714.7144, 39.78284
715.1965, 48.29468
715.6786, 42.30627
716.1607, 37.03687
716.6428, 33.25476
717.1249, 30.01685
717.6071, 25.41742
718.0892, 19.25006
718.5713, 15.15894
719.0534, 14.28021
719.5355, 15.20392
720.0176, 16.84961
720.4998, 18.52765
720.9819, 18.23944
721.4640, 10.98145
721.9461, 5.165405
722.4282, 9.929565
722.9103, 21.48218
723.3925, 26.15759
723.8746, 12.87537
724.3567, 0.4322510
724.8388, 5.689209
725.3209, 5.817505
725.8030, 3.812500
726.2852, 1.497803
726.7673, 4.691833
727.2494, 9.1980003E-02
727.7315, 9.879822
728.2136, 12.78131
728.6957, 8.665833
729.1779, 0.3952640
729.6600, 14.27338
730.1421, 29.32458
730.6242, 37.23737
731.1063, 36.37390
731.5884, 34.18121
732.0706, 33.29529
732.5527, 32.47150
733.0348, 30.66235
733.5169, 27.10730
733.9990, 24.01416
734.4811, 20.67523
734.9633, 18.85553
735.4454, 22.66022
735.9275, 31.93158
736.4096, 34.06256
736.8917, 25.02948
737.3738, 14.57355
737.8560, 17.38086
738.3381, 27.71924
738.8202, 33.29565
739.3023, 24.39166
739.7844, 16.98761
740.2665, 22.53723
740.7487, 35.10498
741.2308, 42.43481
741.7129, 37.75433
742.1950, 33.95935
742.6771, 34.27509
743.1592, 36.79120
743.6414, 34.38062
744.1235, 26.23804
744.6056, 18.93542
745.0877, 14.39215
745.5698, 13.14581
746.0519, 18.84009
746.5341, 29.49445
747.0162, 36.27148
747.4983, 27.73633
747.9804, 18.22266
748.4625, 20.30719
748.9446, 33.43524
749.4268, 43.23456
749.9089, 46.20892
750.3910, 45.39362
750.8731, 40.42627
751.3552, 30.21820
751.8373, 26.18280
752.3195, 30.95416
752.8016, 33.97113
753.2837, 22.76160
753.7658, 2.873230
754.2479, 1.930115
754.7300, 9.755615
755.2122, 23.88831
755.6943, 31.13080
756.1764, 34.00592
756.6585, 33.72784
757.1406, 28.23932
757.6227, 28.54376
758.1049, 47.30811
758.5870, 66.50903
759.0691, 71.20874
759.5512, 54.40033
760.0333, 41.73755
760.5154, 34.21582
760.9976, 30.53162
761.4797, 29.85449
761.9618, 31.84912
762.4439, 35.17151
762.9260, 40.42633
763.4081, 44.17340
763.8903, 40.80811
764.3724, 34.30585
764.8545, 30.75146
765.3366, 37.53461
765.8187, 40.30853
766.3008, 28.27136
766.7830, 11.93335
767.2651, 9.907288
767.7472, 29.60986
768.2293, 46.02423
768.7114, 55.35620
769.1935, 58.92450
769.6757, 58.38556
770.1578, 54.01935
770.6399, 48.19110
771.1220, 40.70129
771.6041, 33.45825
772.0862, 28.00952
772.5684, 24.57129
773.0505, 23.75940
773.5326, 30.59009
774.0147, 35.12476
774.4968, 31.16217
774.9789, 21.41248
775.4611, 17.92584
775.9432, 24.24713
776.4253, 28.23132
776.9074, 24.35431
777.3895, 15.70593
777.8716, 14.21021
778.3538, 19.47461
778.8359, 26.32159
779.3180, 35.54364
779.8001, 42.27063
780.2822, 38.01978
780.7643, 25.01929
781.2465, 16.53503
781.7286, 23.74744
782.2107, 31.40710
782.6928, 31.02936
783.1749, 23.21808
783.6570, 17.90796
784.1392, 15.48157
784.6213, 14.86945
785.1034, 16.53223
785.5855, 19.21869
786.0676, 18.82214
786.5497, 15.82666
787.0319, 13.84235
787.5140, 16.58191
787.9961, 19.97614
788.4782, 18.42010
788.9603, 11.37280
789.4424, 7.448669
789.9246, 13.82135
790.4067, 20.82092
790.8888, 22.66864
791.3709, 18.46106
791.8530, 14.52332
792.3351, 9.945923
792.8173, 8.120850
793.2994, 15.54675
793.7815, 28.65753
794.2636, 28.87323
794.7457, 14.66754
795.2278, 1.346313
795.7100, 2.592102
796.1921, 9.910339
796.6742, 15.64752
797.1563, 19.08704
797.6384, 18.54907
798.1205, 8.253479
798.6027, 1.998901
799.0848, 5.792358
799.5669, 2.128723
800.0490, 5.435547
800.5311, 18.99048
801.0132, 29.24976
801.4954, 23.03180
801.9775, 5.934753
802.4596, 5.513550
802.9417, 9.203430
803.4238, 7.694458
803.9059, 1.793213
804.3881, 13.04279
804.8702, 19.82343
805.3523, 19.66620
805.8344, 17.88739
806.3165, 15.16528
806.7986, 11.03149
807.2808, 3.784180
807.7629, 7.541077
808.2450, 12.41687
808.7271, 9.240051
809.2092, 2.975708
809.6913, 1.861877
810.1735, 5.306519
810.6556, 6.992676
811.1377, 6.007813
811.6198, 6.357910
812.1019, 13.42218
812.5840, 21.46063
813.0662, 23.60577
813.5483, 12.39178
814.0304, 6.573669
814.5125, 8.335022
814.9946, 12.28430
815.4767, 10.75122
815.9589, 4.280640
816.4410, 4.639709
816.9231, 15.14514
817.4052, 25.36700
817.8873, 21.30737
818.3694, 10.65497
818.8516, 4.720764
819.3337, 8.179810
819.8158, 12.64441
820.2979, 17.77441
820.7800, 21.24457
821.2621, 20.16351
821.7443, 11.98761
822.2264, 5.738892
822.7085, 0.6566160
823.1906, 0.5936280
823.6727, 17.60602
824.1548, 45.14630
824.6370, 56.24500
825.1191, 41.94617
825.6012, 22.78363
826.0833, 12.36432
826.5654, 8.107849
827.0475, 6.892639
827.5297, 9.195190
828.0118, 12.94983
828.4939, 20.21558
828.9760, 26.86841
829.4581, 26.91754
829.9402, 19.31512
830.4224, 17.10419
830.9045, 22.91968
831.3866, 29.62866
831.8687, 26.47357
832.3508, 18.20123
832.8329, 14.85223
833.3151, 20.82764
833.7972, 25.41443
834.2794, 19.55792
834.7615, 11.46051
835.2436, 10.55316
835.7257, 24.06995
836.2078, 30.16974
836.6899, 26.25946
837.1721, 18.62219
837.6542, 14.26801
838.1363, 12.74854
838.6184, 10.80475
839.1005, 7.661987
839.5826, 5.883606
840.0648, 8.868835
840.5469, 14.13660
841.0290, 18.98267
841.5111, 23.60687
841.9932, 25.98944
842.4753, 22.95471
842.9575, 19.71820
843.4396, 20.36115
843.9217, 25.10773
844.4038, 34.15967
844.8859, 49.15704
845.3680, 61.20813
845.8502, 56.73163
846.3323, 43.24799
846.8144, 36.49823
847.2965, 40.07672
847.7786, 43.53345
848.2607, 39.85022
848.7429, 34.22729
849.2250, 30.64197
849.7071, 28.21466
850.1892, 32.14844
850.6713, 45.79706
851.1534, 59.20215
851.6356, 62.36334
852.1177, 57.07965
852.5998, 54.63336
853.0819, 55.84961
853.5640, 58.37421
854.0461, 62.50073
854.5283, 65.62988
855.0104, 63.49225
855.4925, 53.60779
855.9746, 50.21899
856.4567, 63.97308
856.9388, 76.24908
857.4210, 73.85077
857.9031, 54.51996
858.3852, 56.43280
858.8673, 81.96405
859.3494, 108.2518
859.8315, 115.5349
860.3137, 111.6940
860.7958, 106.8517
861.2779, 102.4217
861.7600, 104.9320
862.2421, 123.4170
862.7242, 142.6816
863.2064, 152.1880
863.6885, 151.5945
864.1706, 157.4177
864.6527, 171.6499
865.1348, 186.1193
865.6169, 196.1050
866.0991, 202.2510
866.5812, 206.5023
867.0633, 209.0573
867.5454, 212.1245
868.0275, 217.8064
868.5096, 223.9767
868.9918, 230.4659
869.4739, 236.1707
869.9560, 237.0120
870.4381, 231.4123
870.9202, 224.1491
871.4023, 215.2261
871.8845, 206.0502
872.3666, 205.2107
872.8487, 211.8246
873.3308, 212.5832
873.8129, 195.8851
874.2950, 173.9402
874.7772, 160.0682
875.2593, 151.7062
875.7414, 141.9193
876.2235, 123.8649
876.7056, 109.6508
877.1877, 103.1173
877.6699, 101.6671
878.1520, 98.73517
878.6341, 94.14874
879.1162, 90.11932
879.5983, 87.07410
880.0804, 85.26593
880.5626, 88.59119
881.0447, 93.54169
881.5268, 91.36688
882.0089, 68.16022
882.4910, 49.43744
882.9731, 47.60132
883.4553, 53.86761
883.9374, 55.34668
884.4195, 50.45233
884.9016, 46.19287
885.3837, 43.41284
885.8658, 41.50226
886.3480, 40.54608
886.8301, 39.76202
887.3122, 36.72510
887.7943, 30.27118
888.2764, 23.98199
888.7585, 18.46936
889.2407, 15.56158
889.7228, 17.46082
890.2049, 29.06677
890.6870, 30.97742
891.1691, 19.40411
891.6512, 6.440613
892.1334, 4.520569
892.6155, 11.37531
893.0976, 16.66608
893.5797, 19.45514
894.0618, 21.89813
894.5439, 28.02673
895.0261, 32.81067
895.5082, 30.43085
895.9903, 18.65460
896.4724, 12.54028
896.9545, 16.28674
897.4366, 20.65747
897.9188, 20.64111
898.4009, 16.97113
898.8830, 15.94751
899.3651, 17.48199
899.8472, 18.88727
900.3293, 17.55383
900.8115, 16.86401
901.2936, 18.72601
901.7757, 22.49835
902.2578, 23.27301
902.7399, 15.96069
903.2220, 9.679932
903.7042, 6.072205
904.1863, 5.285767
904.6684, 9.437012
905.1505, 18.34485
905.6326, 25.64478
906.1147, 29.43231
906.5969, 29.40491
907.0790, 21.18396
907.5611, 9.326538
908.0432, 3.341553
908.5253, 14.22528
909.0074, 21.47076
909.4896, 19.48779
909.9717, 13.13623
910.4538, 9.264526
910.9359, 7.970093
911.4180, 8.467834
911.9001, 11.24261
912.3823, 13.59528
912.8644, 11.03540
913.3465, 6.372559
913.8286, 3.877563
914.3107, 4.689270
914.7928, 7.175415
915.2750, 12.36646
915.7571, 17.92865
916.2392, 22.62964
916.7213, 27.18384
917.2034, 26.41125
917.6855, 19.72815
918.1677, 11.44220
918.6498, 1.746399
919.1319, 5.539063
919.6140, 1.017578
920.0961, 15.25726
920.5782, 25.73950
921.0604, 16.38452
921.5425, 5.659058
922.0246, 3.373779
922.5067, 8.674316
922.9888, 8.997253
923.4709, 3.307861
923.9531, 0.5301510
924.4352, 3.562866
924.9173, 9.971619
925.3994, 6.859741
925.8815, 2.643311
926.3636, 8.925781
926.8458, 4.766357
927.3279, 2.3193000E-02
927.8100, 0.2728880
928.2921, 0.7207030
928.7742, 4.738281
929.2563, 18.89886
929.7385, 26.83514
930.2206, 24.59747
930.7027, 17.61639
931.1848, 11.08673
931.6669, 6.133362
932.1490, 5.370056
932.6312, 11.36047
933.1133, 16.78052
933.5954, 19.06189
934.0775, 19.30145
934.5596, 17.91614
935.0417, 13.47516
935.5239, 15.24451
936.0060, 24.87128
936.4881, 32.64301
936.9702, 27.93439
937.4523, 16.18634
937.9344, 4.666077
938.4166, 5.739380
938.8987, 10.57153
939.3808, 2.645142
939.8629, 6.355530
940.3450, 10.26300
940.8271, 9.771729
941.3093, 12.52222
941.7914, 18.91522
942.2735, 26.27527
942.7556, 35.57831
943.2377, 42.94336
943.7198, 39.85693
944.2020, 29.27124
944.6841, 19.08948
945.1662, 12.74219
945.6483, 6.910706
946.1304, 0.9354250
946.6125, 7.941101
947.0947, 8.993042
947.5768, 3.358398
948.0589, 2.165771
948.5410, 6.830322
949.0231, 10.34460
949.5052, 11.83179
949.9874, 12.18170
950.4695, 13.08563
950.9516, 15.52155
951.4337, 16.01038
951.9158, 9.685852
952.3979, 4.562439
952.8801, 6.449280
953.3622, 16.02222
953.8443, 20.76190
954.3264, 20.46759
954.8085, 19.56213
955.2906, 20.91241
955.7728, 23.50928
956.2549, 30.56195
956.7370, 39.87018
957.2191, 39.39948
957.7012, 6.601624
958.1833, 13.33820
958.6655, 3.833801
959.1476, 23.81989
959.6297, 35.51971
960.1118, 32.07367
960.5939, 30.66388
961.0760, 38.79572
961.5582, 46.70129
962.0403, 42.52142
962.5224, 32.19800
963.0045, 24.33514
963.4866, 23.14160
963.9688, 20.46930
964.4509, 14.86395
964.9330, 10.20905
965.4151, 10.41492
965.8972, 15.06207
966.3793, 20.75720
966.8615, 27.36774
967.3436, 32.85297
967.8257, 36.29401
968.3078, 37.50629
968.7899, 35.54572
969.2720, 30.33124
969.7542, 26.33258
970.2363, 24.03619
970.7184, 22.26001
971.2005, 20.31134
971.6826, 18.72467
972.1647, 18.97839
972.6469, 20.97333
973.1290, 24.35657
973.6111, 31.28314
974.0932, 36.75000
974.5753, 38.03491
975.0574, 35.98871
975.5396, 31.52826
976.0217, 22.22357
976.5038, 18.12915
976.9859, 20.64990
977.4680, 26.20538
977.9501, 30.04926
978.4323, 31.31671
978.9144, 32.55695
979.3965, 34.13263
979.8786, 33.31732
980.3607, 25.60852
980.8428, 18.02643
981.3250, 14.56390
981.8071, 15.05786
982.2892, 17.52325
982.7713, 22.18628
983.2534, 26.48724
983.7355, 29.88452
984.2177, 31.18732
984.6998, 26.45844
985.1819, 17.54382
985.6640, 12.89636
986.1461, 20.88446
986.6282, 26.17542
987.1104, 24.35583
987.5925, 19.60956
988.0746, 18.17926
988.5567, 19.92987
989.0388, 20.96307
989.5209, 20.66351
990.0031, 19.86908
990.4852, 19.29486
990.9673, 18.69513
991.4494, 17.53821
991.9315, 15.46857
992.4136, 15.08508
992.8958, 17.43115
993.3779, 19.77832
993.8600, 20.65924
994.3421, 20.51434
994.8242, 21.24872
995.3063, 22.64905
995.7885, 23.58270
996.2706, 22.31158
996.7527, 20.87354
997.2348, 22.79626
997.7169, 25.46143
998.1990, 22.60339
998.6812, 10.67902
999.1633, 5.054016
999.6454, 8.207031
1000.128, 16.21765
1000.610, 29.57904
1001.092, 42.80200
1001.574, 42.68982
1002.056, 25.50061
1002.538, 11.28400
1003.020, 10.26227
1003.502, 12.34412
1003.984, 11.87958
1004.467, 8.838135
1004.949, 7.927673
1005.431, 9.626953
1005.913, 11.70575
1006.395, 12.80133
1006.877, 13.35944
1007.359, 12.38037
1007.841, 11.40472
1008.323, 13.87897
1008.806, 26.09222
1009.288, 33.86633
1009.770, 34.24854
1010.252, 32.31604
1010.734, 38.06256
1011.216, 48.01044
1011.698, 42.50433
1012.180, 17.76190
1012.663, 2.463806
1013.145, 4.701721
1013.627, 17.45538
1014.109, 16.63055
1014.591, 1.710327
1015.073, 2.169922
1015.555, 22.08484
1016.037, 39.83435
1016.519, 49.84161
1017.002, 51.63293
1017.484, 37.49127
1017.966, 15.01398
1018.448, 1.881226
1018.930, 18.22144
1019.412, 27.41003
1019.894, 15.00629
1020.376, 2.479980
1020.859, 7.075806
1021.341, 1.129639
1021.823, 10.78357
1022.305, 21.29596
1022.787, 29.53607
1023.269, 32.49493
1023.751, 32.29993
1024.233, 29.16315
1024.715, 23.49255
1025.198, 22.81580
1025.680, 30.80988
1026.162, 36.15082
1026.644, 34.31812
1027.126, 28.55182
1027.608, 26.05377
1028.090, 25.68799
1028.572, 23.44684
1029.054, 14.20392
1029.537, 10.51111
1030.019, 25.51373
1030.501, 43.22473
1030.983, 47.85535
1031.465, 36.51166
1031.947, 30.03833
1032.429, 28.94281
1032.911, 28.87915
1033.394, 29.10931
1033.876, 26.87103
1034.358, 14.32007
1034.840, 5.143982
1035.322, 12.95984
1035.804, 5.277893
1036.286, 19.12268
1036.768, 21.92749
1037.250, 18.69519
1037.733, 18.82397
1038.215, 21.18622
1038.697, 20.72260
1039.179, 15.14697
1039.661, 11.91199
1040.143, 22.73328
1040.625, 32.07410
1041.107, 23.75818
1041.589, 4.850769
1042.072, 12.41418
1042.554, 3.725830
1043.036, 20.08044
1043.518, 20.37488
1044.000, 15.03333
1044.482, 18.66272
1044.964, 27.97601
1045.446, 34.83752
1045.929, 35.61432
1046.411, 35.14661
1046.893, 34.10156
1047.375, 31.91302
1047.857, 26.52789
1048.339, 19.30658
1048.821, 18.29279
1049.303, 25.59241
1049.786, 32.87921
1050.268, 37.07257
1050.750, 37.23169
1051.232, 30.16748
1051.714, 17.14087
1052.196, 11.53802
1052.678, 14.77533
1053.160, 16.37976
1053.642, 11.34521
1054.125, 5.795532
1054.607, 10.50189
1055.089, 19.39813
1055.571, 22.14685
1056.053, 10.75916
1056.535, 4.654907
1057.017, 6.883240
1057.499, 12.11908
1057.981, 16.46283
1058.464, 20.28522
1058.946, 27.19043
1059.428, 36.33820
1059.910, 40.88696
1060.392, 32.28186
1060.874, 23.08539
1061.356, 19.92969
1061.838, 20.66309
1062.321, 20.81757
1062.803, 20.33197
1063.285, 19.31934
1063.767, 17.40009
1064.249, 16.88190
1064.731, 22.23212
1065.213, 29.26410
1065.695, 32.89081
1066.177, 32.21033
1066.660, 31.65027
1067.142, 32.24335
1067.624, 30.56567
1068.106, 23.60614
1068.588, 15.10254
1069.070, 15.58014
1069.552, 22.37354
1070.034, 27.08636
1070.516, 25.80505
1070.999, 23.14038
1071.481, 18.34448
1071.963, 14.26892
1072.445, 13.63507
1072.927, 16.67407
1073.409, 21.00696
1073.891, 26.64716
1074.373, 31.44385
1074.856, 32.61334
1075.338, 33.40619
1075.820, 38.64478
1076.302, 46.13501
1076.784, 46.54224
1077.266, 35.01758
1077.748, 29.85675
1078.230, 36.17242
1078.713, 43.28900
1079.195, 35.32135
1079.677, 19.05743
1080.159, 7.418030
1080.641, 2.238464
1081.123, 1.092651
1081.605, 6.127197
1082.087, 11.99597
1082.569, 17.59406
1083.052, 22.26141
1083.534, 21.52441
1084.016, 16.77576
1084.498, 16.11267
1084.980, 24.69232
1085.462, 34.50421
1085.944, 42.40454
1086.426, 47.77747
1086.909, 50.43018
1087.391, 50.79749
1087.873, 45.05164
1088.355, 32.34436
1088.837, 22.11157
1089.319, 23.25360
1089.801, 29.00537
1090.283, 33.98132
1090.766, 37.20215
1091.248, 35.39679
1091.730, 22.28528
1092.212, 16.01367
1092.694, 20.27649
1093.176, 27.59033
1093.658, 28.45966
1094.140, 25.54724
1094.622, 28.92145
1095.104, 40.01117
1095.587, 45.48297
1096.069, 35.23218
1096.551, 22.97626
1097.033, 13.15704
1097.515, 5.877258
1097.997, 1.173340
1098.479, 0.7836910
1098.961, 2.034241
1099.444, 12.30737
1099.926, 20.31598
1100.408, 16.46680
1100.890, 10.10162
1101.372, 11.97516
1101.854, 23.83722
1102.336, 31.46790
1102.818, 34.93610
1103.301, 34.53735
1103.783, 29.96722
1104.265, 22.07269
1104.747, 6.890625
1105.229, 10.02112
1105.711, 15.98743
1106.193, 0.8341060
1106.675, 11.64771
1107.157, 14.52161
1107.640, 12.46765
1108.122, 3.500549
1108.604, 6.569641
1109.086, 2.485474
1109.568, 14.95337
1110.050, 30.39233
1110.532, 37.82635
1111.014, 42.17169
1111.496, 45.11383
1111.979, 45.67822
1112.461, 40.21179
1112.943, 30.14148
1113.425, 24.29236
1113.907, 24.69592
1114.389, 25.01874
1114.871, 20.64246
1115.353, 15.32159
1115.836, 10.91962
1116.318, 7.663574
1116.800, 7.578552
1117.282, 10.73712
1117.764, 15.86334
1118.246, 21.89398
1118.728, 27.11816
1119.210, 29.45587
1119.693, 29.68201
1120.175, 28.23071
1120.657, 24.01678
1121.139, 23.61914
1121.621, 28.35669
1122.103, 30.89099
1122.585, 24.86798
1123.067, 14.56244
1123.549, 3.548645
1124.031, 6.395325
1124.514, 10.51123
1124.996, 6.733154
1125.478, 3.676880
1125.960, 24.81635
1126.442, 43.79419
1126.924, 43.38977
1127.406, 30.80286
1127.888, 25.13196
1128.371, 26.71606
1128.853, 27.29657
1129.335, 20.90228
1129.817, 15.65570
1130.299, 12.89819
1130.781, 13.53448
1131.263, 22.93109
1131.745, 38.22992
1132.228, 42.36005
1132.710, 31.05835
1133.192, 21.35498
1133.674, 28.06085
1134.156, 36.43506
1134.638, 37.12164
1135.120, 31.34064
1135.602, 25.27026
1136.084, 18.98096
1136.567, 18.33154
1137.049, 28.01324
1137.531, 36.87250
1138.013, 33.00208
1138.495, 24.32605
1138.977, 20.22491
1139.459, 22.01215
1139.941, 19.59448
1140.423, 11.92365
1140.906, 7.628052
1141.388, 15.27173
1141.870, 24.72058
1142.352, 21.28040
1142.834, 11.26373
1143.316, 6.442505
1143.798, 11.09351
1144.280, 17.37866
1144.763, 25.97815
1145.245, 33.72375
1145.727, 38.16626
1146.209, 39.78241
1146.691, 39.46692
1147.173, 37.42810
1147.655, 33.41785
1148.137, 23.59283
1148.620, 17.59125
1149.102, 17.35577
1149.584, 19.47229
1150.066, 19.95831
1150.548, 19.56500
1151.030, 19.60211
1151.512, 20.29718
1151.994, 23.33167
1152.476, 34.82635
1152.958, 41.68658
1153.441, 38.37006
1153.923, 29.92944
1154.405, 26.10315
1154.887, 26.42767
1155.369, 30.19531
1155.851, 38.04382
1156.333, 42.58264
1156.815, 34.82135
1157.298, 28.12573
1157.780, 31.73132
1158.262, 42.00024
1158.744, 40.03296
1159.226, 27.60028
1159.708, 21.16144
1160.190, 27.61731
1160.672, 36.68188
1161.155, 47.13434
1161.637, 52.01428
1162.119, 42.54108
1162.601, 18.97137
1163.083, 9.608337
1163.565, 14.57819
1164.047, 19.59448
1164.529, 12.73444
1165.011, 6.765869
1165.494, 16.71130
1165.976, 31.48083
1166.458, 34.79626
1166.940, 23.08661
1167.422, 18.33112
1167.904, 20.99194
1168.386, 23.95941
1168.868, 23.19830
1169.350, 19.77710
1169.833, 11.75256
1170.315, 2.419617
1170.797, 0.3405760
1171.279, 5.541260
1171.761, 12.64624
1172.243, 20.97418
1172.725, 28.02173
1173.207, 34.62231
1173.690, 36.63794
1174.172, 23.31531
1174.654, 0.5490110
1175.136, 10.56213
1175.618, 1.950684
1176.100, 10.48450
1176.582, 10.32196
1177.064, 9.517761
1177.547, 21.15405
1178.029, 36.23285
1178.511, 41.80048
1178.993, 36.96362
1179.475, 28.06586
1179.957, 8.905334
1180.439, 2.836365
1180.921, 19.21527
1181.403, 41.92236
1181.885, 46.50195
1182.368, 39.19128
1182.850, 29.33368
1183.332, 17.87701
1183.814, 13.10541
1184.296, 21.78003
1184.778, 27.14941
1185.260, 22.40802
1185.742, 13.04633
1186.225, 9.562439
1186.707, 10.47168
1187.189, 13.41455
1187.671, 18.85040
1188.153, 21.51770
1188.635, 17.64215
1189.117, 15.30969
1189.599, 19.29529
1190.082, 26.55469
1190.564, 29.05933
1191.046, 27.86707
1191.528, 25.55957
1192.010, 22.57251
1192.492, 19.16351
1192.974, 14.59918
1193.456, 10.64478
1193.938, 6.275208
1194.421, 4.039001
1194.903, 19.84570
1195.385, 46.70410
1195.867, 60.86438
1196.349, 42.35248
1196.831, 26.14722
1197.313, 19.16998
1197.795, 18.12091
1198.277, 23.66583
1198.760, 33.23254
1199.242, 33.11066
1199.724, 25.23114
1200.206, 18.16785
1200.688, 12.61096
1201.170, 11.11633
1201.652, 17.03912
1202.134, 23.19843
1202.617, 21.83954
1203.099, 14.33325
1203.581, 5.996643
1204.063, 2.499939
1204.545, 7.766479
1205.027, 6.186279
1205.509, 3.813599
1205.991, 3.264465
1206.474, 1.855957
1206.956, 6.059326
1207.438, 18.18231
1207.920, 23.13184
1208.402, 20.47974
1208.884, 16.11066
1209.366, 9.016541
1209.848, 5.954895
1210.330, 10.09747
1210.813, 17.94385
1211.295, 24.85706
1211.777, 30.30023
1212.259, 29.64093
1212.741, 22.67322
1213.223, 18.79529
1213.705, 28.61108
1214.187, 35.19470
1214.669, 30.43506
1215.152, 20.92517
1215.634, 20.87610
1216.116, 27.88953
1216.598, 32.29462
1217.080, 32.50031
1217.562, 32.39050
1218.044, 32.98676
1218.526, 35.14923
1219.009, 41.69598
1219.491, 47.49127
1219.973, 35.12549
1220.455, 11.67987
1220.937, 6.509094
1221.419, 27.47388
1221.901, 44.96503
1222.383, 47.56891
1222.865, 43.56274
1223.348, 34.37354
1223.830, 23.23926
1224.312, 19.00348
1224.794, 20.36761
1225.276, 23.41956
1225.758, 27.91571
1226.240, 30.72784
1226.722, 26.91974
1227.204, 25.95660
1227.687, 33.89935
1228.169, 45.58228
1228.651, 44.72089
1229.133, 35.08771
1229.615, 27.28339
1230.097, 23.87671
1230.579, 24.01611
1231.061, 30.73688
1231.544, 36.25153
1232.026, 37.34198
1232.508, 34.37671
1232.990, 24.89569
1233.472, 12.49304
1233.954, 8.385437
1234.436, 20.50098
1234.918, 26.17255
1235.401, 15.92712
1235.883, 7.483948
1236.365, 10.66626
1236.847, 21.05310
1237.329, 25.94318
1237.811, 26.13141
1238.293, 21.32837
1238.775, 5.312988
1239.257, 0.1525270
1239.740, 12.49304
1240.222, 25.53003
1240.704, 28.44141
1241.186, 25.78900
1241.668, 28.28729
1242.150, 33.47437
1242.632, 35.78345
1243.114, 31.52777
1243.596, 29.06531
1244.079, 30.10229
1244.561, 29.28931
1245.043, 20.27216
1245.525, 9.584534
1246.007, 10.24982
1246.489, 17.99072
1246.971, 23.82324
1247.453, 26.62610
1247.936, 23.98260
1248.418, 13.82831
1248.900, 5.948730
1249.382, 7.587585
1249.864, 15.13519
1250.346, 27.04187
1250.828, 40.18854
1251.310, 47.86774
1251.792, 48.04700
1252.275, 46.34906
1252.757, 43.03351
1253.239, 37.98645
1253.721, 27.84271
1254.203, 18.90192
1254.685, 18.63086
1255.167, 23.05920
1255.649, 24.50610
1256.131, 22.81976
1256.614, 15.13940
1257.096, 0.4830320
1257.578, 6.910645
1258.060, 12.75647
1258.542, 33.94763
1259.024, 31.65051
1259.506, 18.71844
1259.988, 19.49432
1260.471, 36.82367
1260.953, 43.17657
1261.435, 37.89777
1261.917, 34.05817
1262.399, 44.48431
1262.881, 45.66650
1263.363, 45.51038
1263.845, 39.54700
1264.328, 31.92639
1264.810, 22.58374
1265.292, 12.73608
1265.774, 4.406738
1266.256, 9.3506001E-02
1266.738, 6.122314
1267.220, 7.540649
1267.702, 0.0000000E+00
##END=



