##NAMES=Zincolibethenite
##RRUFFID=R150008
##IDEAL CHEMISTRY=Cu^2+^Zn^2+^P^5+^O_4_(OH)
##LOCALITY=Skorpion mine, Rosh Pinah, Namibia
##OWNER=RRUFF
##SOURCE=Marcus Origlieri
##DESCRIPTION=Irregular bright blue-green crystals, associated with colorless, prismatic hemimorphite.
##STATUS=The identification of this mineral has been confirmed only by single crystal X-ray diffraction.
##URL=rruff.info/R150008
101.2023, 0.0000000E+00
101.6844, 0.3012700
102.1665, 2.3682000E-02
102.6486, 9.9854000E-02
103.1307, 0.5632930
103.6128, 1.689392
104.0950, 2.226624
104.5771, 2.416382
105.0592, 1.482178
105.5413, 0.1593020
106.0234, 0.4655760
106.5055, 3.974854
106.9877, 8.820068
107.4698, 12.60815
107.9519, 16.26324
108.4340, 18.50574
108.9161, 18.75208
109.3982, 17.26892
109.8804, 14.55548
110.3625, 10.51434
110.8446, 4.556396
111.3267, 1.859009
111.8088, 2.052551
112.2909, 2.052368
112.7731, 2.729492
113.2552, 4.090454
113.7373, 5.789429
114.2194, 7.171082
114.7015, 7.500549
115.1836, 7.994873
115.6658, 8.929993
116.1479, 9.857910
116.6300, 10.54224
117.1121, 10.76788
117.5942, 10.53699
118.0763, 9.966919
118.5584, 8.990784
119.0406, 7.941589
119.5227, 6.934753
120.0048, 5.900757
120.4869, 4.490112
120.9690, 1.888916
121.4511, 0.6840820
121.9333, 0.8842160
122.4154, 2.204895
122.8975, 6.129761
123.3796, 9.057800
123.8617, 10.93280
124.3438, 11.84430
124.8260, 11.23547
125.3081, 10.01880
125.7902, 8.614624
126.2723, 6.906189
126.7544, 5.199402
127.2365, 4.416077
127.7187, 4.921387
128.2008, 5.872986
128.6829, 6.847565
129.1650, 7.881683
129.6471, 9.816254
130.1292, 12.88184
130.6114, 16.36792
131.0935, 18.56952
131.5756, 17.25839
132.0577, 15.71814
132.5398, 15.19769
133.0219, 15.40897
133.5041, 16.10034
133.9862, 16.75562
134.4683, 17.10800
134.9504, 17.23178
135.4325, 16.64569
135.9146, 16.31509
136.3968, 16.81354
136.8789, 18.20340
137.3610, 20.05978
137.8431, 21.93570
138.3252, 23.82852
138.8073, 25.24796
139.2895, 25.42746
139.7716, 25.44089
140.2537, 26.79910
140.7358, 30.07907
141.2179, 33.76227
141.7000, 36.00021
142.1821, 36.93826
142.6643, 36.95258
143.1464, 35.92374
143.6285, 34.00555
144.1106, 31.70767
144.5927, 28.75937
145.0748, 25.83701
145.5570, 23.48602
146.0391, 21.66290
146.5212, 20.10474
147.0033, 18.80487
147.4854, 17.84445
147.9675, 16.31207
148.4497, 12.95670
148.9318, 9.560822
149.4139, 7.074524
149.8960, 5.705811
150.3781, 5.117828
150.8602, 4.938568
151.3424, 5.583954
151.8245, 5.678955
152.3066, 4.823975
152.7887, 3.636749
153.2708, 2.534912
153.7529, 1.693268
154.2351, 1.064972
154.7172, 0.5431820
155.1993, 0.1537780
155.6814, 0.1277770
156.1635, 2.8320000E-02
156.6456, 9.6344002E-02
157.1278, 0.2513730
157.6099, 1.348450
158.0920, 2.961304
158.5741, 4.083313
159.0562, 3.428711
159.5383, 2.891876
160.0205, 2.949493
160.5026, 3.311340
160.9847, 3.253723
161.4668, 2.235626
161.9489, 0.5376890
162.4310, 0.5284730
162.9131, 0.4674990
163.3953, 0.2923580
163.8774, 0.7983700
164.3595, 1.902252
164.8416, 2.607605
165.3237, 1.764862
165.8058, 0.2200620
166.2880, 5.9386998E-02
166.7701, 1.984680
167.2522, 4.700958
167.7343, 6.250641
168.2164, 6.476440
168.6985, 6.192749
169.1807, 5.250153
169.6628, 4.240387
170.1449, 3.978424
170.6270, 5.039917
171.1091, 6.900116
171.5912, 8.418243
172.0734, 9.701416
172.5555, 10.33557
173.0376, 9.717224
173.5197, 8.556610
174.0018, 7.882996
174.4839, 8.400879
174.9661, 9.887634
175.4482, 11.01822
175.9303, 11.74487
176.4124, 12.10510
176.8945, 11.93381
177.3766, 11.42297
177.8588, 10.90015
178.3409, 10.60516
178.8230, 10.51678
179.3051, 10.22302
179.7872, 9.910278
180.2693, 9.534210
180.7515, 8.722626
181.2336, 7.651184
181.7157, 6.813293
182.1978, 6.674652
182.6799, 7.328369
183.1620, 7.644653
183.6441, 7.254333
184.1263, 6.918854
184.6084, 7.175964
185.0905, 7.942230
185.5726, 8.605164
186.0547, 8.493256
186.5368, 7.444366
187.0190, 7.211975
187.5011, 8.810303
187.9832, 10.48755
188.4653, 10.60938
188.9474, 9.065765
189.4296, 7.539520
189.9117, 7.873810
190.3938, 10.03110
190.8759, 11.71585
191.3580, 12.39551
191.8401, 12.62039
192.3223, 13.04599
192.8044, 13.79486
193.2865, 14.47760
193.7686, 14.37723
194.2507, 13.79617
194.7328, 13.81812
195.2150, 15.21399
195.6971, 17.37430
196.1792, 19.06363
196.6613, 20.02063
197.1434, 20.86276
197.6255, 22.27676
198.1077, 23.99649
198.5898, 25.27240
199.0719, 25.33963
199.5540, 24.53152
200.0361, 24.40509
200.5182, 25.40704
201.0004, 26.56818
201.4825, 27.21866
201.9646, 27.56784
202.4467, 28.15280
202.9288, 29.46964
203.4109, 31.46619
203.8930, 33.22052
204.3752, 34.63736
204.8573, 35.88708
205.3394, 37.18387
205.8215, 38.38797
206.3036, 39.13977
206.7857, 38.94412
207.2679, 37.71558
207.7500, 37.31036
208.2321, 38.63446
208.7142, 40.02448
209.1963, 40.97345
209.6784, 41.53412
210.1606, 42.04370
210.6427, 42.86844
211.1248, 44.11282
211.6069, 44.65216
212.0890, 44.07968
212.5711, 43.25803
213.0533, 42.53503
213.5354, 41.88214
214.0175, 41.05283
214.4996, 39.74792
214.9817, 37.79654
215.4638, 36.31589
215.9460, 35.42111
216.4281, 34.72336
216.9102, 34.27328
217.3923, 33.97525
217.8744, 33.56830
218.3565, 32.82611
218.8387, 31.73477
219.3208, 30.64615
219.8029, 29.83331
220.2850, 28.84311
220.7671, 27.14459
221.2492, 24.81851
221.7314, 22.59698
222.2135, 21.10654
222.6956, 20.40408
223.1777, 19.66122
223.6598, 18.90359
224.1419, 18.06335
224.6240, 17.04395
225.1062, 15.83051
225.5883, 14.78122
226.0704, 14.27576
226.5525, 14.24835
227.0346, 14.04517
227.5167, 13.49902
227.9989, 12.84875
228.4810, 12.32968
228.9631, 11.96188
229.4452, 11.62454
229.9273, 11.21808
230.4094, 10.77042
230.8916, 10.36639
231.3737, 9.969208
231.8558, 9.647644
232.3379, 9.577881
232.8200, 9.817413
233.3021, 9.925629
233.7843, 9.350067
234.2664, 8.503906
234.7485, 8.069855
235.2306, 8.566254
235.7127, 9.251465
236.1948, 8.845734
236.6770, 6.956818
237.1591, 5.610413
237.6412, 6.595306
238.1233, 8.476746
238.6054, 9.655151
239.0875, 9.416931
239.5697, 8.587402
240.0518, 8.614166
240.5339, 9.875031
241.0160, 10.79657
241.4981, 10.43939
241.9802, 9.596039
242.4624, 9.002869
242.9445, 8.937592
243.4266, 9.131958
243.9087, 9.051208
244.3908, 8.452240
244.8729, 8.246063
245.3550, 9.097839
245.8372, 10.21375
246.3193, 10.92450
246.8014, 10.99478
247.2835, 10.64261
247.7656, 10.19128
248.2477, 9.539886
248.7299, 9.066925
249.2120, 9.168610
249.6941, 9.256989
250.1762, 8.624817
250.6583, 7.099792
251.1404, 5.532806
251.6226, 5.602783
252.1047, 8.659180
252.5868, 10.24402
253.0689, 9.228546
253.5510, 7.354095
254.0331, 5.608337
254.5153, 4.322540
254.9974, 3.502869
255.4795, 3.197998
255.9616, 3.611206
256.4437, 4.149261
256.9258, 5.217865
257.4080, 6.084106
257.8901, 6.115906
258.3722, 5.280212
258.8543, 4.159210
259.3364, 3.513580
259.8185, 3.419373
260.3007, 3.680908
260.7828, 4.564484
261.2649, 5.532562
261.7470, 6.363800
262.2291, 6.968140
262.7112, 7.244202
263.1934, 7.017700
263.6755, 6.059326
264.1576, 5.455109
264.6397, 5.147400
265.1218, 5.168976
265.6039, 5.821991
266.0861, 6.927338
266.5682, 7.816437
267.0503, 7.763794
267.5324, 6.547150
268.0145, 5.875641
268.4966, 5.746552
268.9788, 6.046448
269.4609, 6.876160
269.9430, 8.097290
270.4251, 9.349884
270.9072, 10.31671
271.3893, 10.96722
271.8715, 11.99994
272.3536, 13.83673
272.8357, 15.57764
273.3178, 16.82800
273.7999, 17.66064
274.2820, 18.30130
274.7642, 18.86301
275.2463, 19.37061
275.7284, 20.13248
276.2105, 20.98434
276.6926, 22.18054
277.1747, 24.01575
277.6568, 26.28201
278.1389, 28.52521
278.6211, 30.51697
279.1032, 32.27496
279.5853, 33.86374
280.0674, 34.53580
280.5495, 35.93097
281.0316, 39.27057
281.5138, 43.51834
281.9959, 46.70929
282.4780, 47.89374
282.9601, 47.89447
283.4422, 48.81744
283.9243, 51.19028
284.4065, 53.33633
284.8886, 54.74957
285.3707, 55.77878
285.8528, 56.91736
286.3349, 58.32733
286.8170, 59.89355
287.2992, 61.39911
287.7813, 62.70651
288.2634, 64.38495
288.7455, 66.87442
289.2276, 69.63641
289.7097, 72.15842
290.1919, 74.34436
290.6740, 75.92670
291.1561, 76.36990
291.6382, 75.48145
292.1203, 74.90842
292.6024, 75.29718
293.0846, 75.80219
293.5667, 75.62198
294.0488, 74.64529
294.5309, 73.17160
295.0130, 71.44464
295.4951, 69.44046
295.9773, 67.14957
296.4594, 64.22977
296.9415, 61.25531
297.4236, 58.80936
297.9057, 56.86566
298.3878, 54.72528
298.8700, 51.77103
299.3521, 48.16928
299.8342, 45.07339
300.3163, 42.85904
300.7984, 40.81885
301.2805, 38.47571
301.7627, 35.91422
302.2448, 33.52463
302.7269, 31.56927
303.2090, 29.87793
303.6911, 27.90097
304.1732, 25.48648
304.6554, 23.05652
305.1375, 20.73215
305.6196, 18.53113
306.1017, 16.48746
306.5838, 14.60535
307.0659, 12.91745
307.5481, 11.49402
308.0302, 10.26865
308.5123, 9.393707
308.9944, 9.194794
309.4765, 9.326111
309.9586, 9.228668
310.4408, 8.765167
310.9229, 7.993500
311.4050, 6.814240
311.8871, 5.182007
312.3692, 3.943512
312.8513, 3.495453
313.3335, 3.411194
313.8156, 3.148254
314.2977, 2.627136
314.7798, 2.237610
315.2619, 2.578552
315.7440, 3.508392
316.2262, 3.695007
316.7083, 2.559631
317.1904, 1.121582
317.6725, 0.1184390
318.1546, 0.4862980
318.6367, 0.8718570
319.1188, 1.079315
319.6010, 1.093964
320.0831, 1.012543
320.5652, 0.6818240
321.0473, 0.4000850
321.5294, 0.4132690
322.0115, 0.6559750
322.4937, 0.8106380
322.9758, 0.7013550
323.4579, 0.4387510
323.9400, 0.2874150
324.4221, 0.1784360
324.9042, 0.2903140
325.3864, 0.9779660
325.8685, 1.889679
326.3506, 2.311584
326.8327, 1.963501
327.3148, 1.256378
327.7969, 0.8322450
328.2791, 0.7557070
328.7612, 0.5483700
329.2433, 6.7901999E-02
329.7254, 0.8377080
330.2075, 1.377014
330.6896, 1.542145
331.1718, 1.561188
331.6539, 1.796997
332.1360, 2.273041
332.6181, 2.290741
333.1002, 0.9465030
333.5823, 0.1939700
334.0645, 0.4043270
334.5466, 2.554657
335.0287, 4.534546
335.5108, 5.131165
335.9929, 4.463959
336.4750, 3.848511
336.9572, 3.000427
337.4393, 2.479675
337.9214, 2.714661
338.4035, 3.458069
338.8856, 4.130432
339.3677, 4.466278
339.8499, 4.682068
340.3320, 5.025574
340.8141, 5.256927
341.2962, 5.621307
341.7783, 6.390442
342.2604, 7.273376
342.7426, 7.852417
343.2247, 8.033386
343.7068, 8.115265
344.1889, 8.343903
344.6710, 8.708466
345.1531, 8.988373
345.6353, 9.172607
346.1174, 9.302765
346.5995, 9.421875
347.0816, 9.524658
347.5637, 9.534332
348.0458, 9.365173
348.5280, 9.007629
349.0101, 8.894318
349.4922, 9.471710
349.9743, 9.798767
350.4564, 9.288910
350.9385, 8.213440
351.4207, 7.189209
351.9028, 6.566284
352.3849, 6.293701
352.8670, 6.165619
353.3491, 6.099792
353.8312, 6.280792
354.3134, 7.183167
354.7955, 8.169952
355.2776, 8.403503
355.7597, 7.623993
356.2418, 6.407837
356.7239, 5.562622
357.2061, 5.130249
357.6882, 4.878113
358.1703, 4.922180
358.6524, 5.051636
359.1345, 5.173248
359.6166, 5.248352
360.0987, 5.221954
360.5808, 5.030243
361.0630, 4.678894
361.5451, 4.625488
362.0272, 5.242096
362.5093, 5.578064
362.9914, 5.132599
363.4735, 4.237976
363.9557, 3.536835
364.4378, 3.430481
364.9199, 3.785553
365.4020, 4.023987
365.8841, 4.015472
366.3662, 4.061401
366.8484, 4.297241
367.3305, 4.554352
367.8126, 4.713623
368.2947, 4.725494
368.7768, 4.535645
369.2589, 3.914917
369.7411, 2.420593
370.2232, 1.741089
370.7053, 3.095306
371.1874, 4.255798
371.6695, 3.653809
372.1516, 1.559540
372.6338, 0.4148860
373.1159, 0.6838990
373.5980, 0.6830140
374.0801, 1.272217
374.5622, 0.2216190
375.0443, 0.5704350
375.5265, 0.2947690
376.0086, 0.5795590
376.4907, 1.344086
376.9728, 1.674683
377.4549, 1.680145
377.9370, 1.485077
378.4192, 0.8764950
378.9013, 0.7158510
379.3834, 1.857025
379.8655, 3.139954
380.3476, 3.564209
380.8297, 2.951080
381.3119, 2.115448
381.7940, 1.865356
382.2761, 2.190704
382.7582, 2.564453
383.2403, 3.165833
383.7224, 3.428101
384.2046, 2.841461
384.6867, 1.652374
385.1688, 0.6256710
385.6509, 0.2922970
386.1330, 0.3580930
386.6151, 6.3110001E-02
387.0973, 0.7864990
387.5794, 1.265167
388.0615, 0.4414060
388.5436, 0.9874270
389.0257, 2.059753
389.5078, 2.537140
389.9900, 2.728699
390.4721, 2.939423
390.9542, 3.126038
391.4363, 2.916809
391.9184, 1.949341
392.4005, 0.8803410
392.8827, 0.7029110
393.3648, 1.475739
393.8469, 2.152954
394.3290, 2.238495
394.8111, 2.006500
395.2932, 1.993011
395.7754, 2.316010
396.2575, 2.356232
396.7396, 1.182037
397.2217, 0.9790650
397.7038, 1.754608
398.1859, 0.3314510
398.6681, 2.619507
399.1501, 3.414703
399.6323, 2.926239
400.1144, 1.884247
400.5965, 0.4280090
401.0786, 0.9856260
401.5607, 0.8174740
402.0428, 2.296356
402.5250, 4.349457
403.0071, 3.898987
403.4892, 2.370758
403.9713, 1.328217
404.4534, 1.144348
404.9355, 1.338043
405.4177, 1.329651
405.8998, 0.9954530
406.3819, 1.141785
406.8640, 2.389587
407.3461, 3.466675
407.8282, 3.581696
408.3104, 2.998291
408.7925, 2.468231
409.2746, 2.458801
409.7567, 2.863556
410.2388, 3.190186
410.7209, 3.527374
411.2031, 3.649780
411.6852, 3.612579
412.1673, 3.319885
412.6494, 2.411011
413.1315, 0.9064030
413.6136, 0.4258420
414.0958, 0.3897710
414.5779, 1.520111
415.0600, 2.767212
415.5421, 2.947571
416.0242, 2.813843
416.5063, 2.628113
416.9885, 2.354187
417.4706, 1.775116
417.9527, 0.5819400
418.4348, 0.8656310
418.9169, 1.284332
419.3990, 0.3055420
419.8812, 0.9150090
420.3633, 2.536743
420.8454, 3.947998
421.3275, 4.382416
421.8096, 3.629395
422.2917, 2.648987
422.7739, 2.434906
423.2560, 2.951233
423.7381, 3.460114
424.2202, 3.859344
424.7023, 4.218109
425.1844, 4.556000
425.6666, 4.890625
426.1487, 5.295990
426.6308, 6.157501
427.1129, 6.944122
427.5950, 6.598450
428.0771, 5.036865
428.5593, 3.799347
429.0414, 3.866119
429.5235, 4.709808
430.0056, 5.089874
430.4877, 4.810669
430.9698, 4.375641
431.4520, 3.878937
431.9341, 3.446533
432.4162, 3.501648
432.8983, 4.198761
433.3804, 5.065369
433.8625, 5.548309
434.3447, 5.572174
434.8268, 5.373962
435.3089, 4.627014
435.7910, 3.939728
436.2731, 3.824066
436.7552, 4.143768
437.2374, 4.358398
437.7195, 4.099731
438.2016, 3.545868
438.6837, 3.394958
439.1658, 4.257385
439.6479, 4.741455
440.1301, 4.301239
440.6122, 3.704620
441.0943, 3.775055
441.5764, 4.621765
442.0585, 5.656067
442.5406, 6.198730
443.0227, 6.170288
443.5049, 6.178253
443.9870, 6.214233
444.4691, 6.312622
444.9512, 6.622101
445.4333, 6.956635
445.9154, 7.022736
446.3976, 6.608429
446.8797, 5.941681
447.3618, 5.617981
447.8439, 5.646454
448.3260, 5.991516
448.8081, 7.254822
449.2903, 8.384369
449.7724, 8.489899
450.2545, 7.628326
450.7366, 6.822998
451.2187, 6.984497
451.7008, 7.899109
452.1830, 8.661652
452.6651, 9.259796
453.1472, 9.563019
453.6293, 9.309418
454.1114, 8.753387
454.5935, 8.173401
455.0757, 7.385681
455.5578, 6.788452
456.0399, 6.976135
456.5220, 7.721405
457.0041, 8.445221
457.4862, 9.070313
457.9684, 9.437378
458.4505, 9.059601
458.9326, 7.871674
459.4147, 7.277191
459.8968, 8.030090
460.3789, 9.167603
460.8611, 10.03586
461.3432, 10.58789
461.8253, 10.91943
462.3074, 11.05823
462.7895, 11.03326
463.2716, 10.89380
463.7538, 10.30142
464.2359, 10.03757
464.7180, 10.57324
465.2001, 11.27301
465.6822, 11.38888
466.1643, 10.82816
466.6465, 10.18527
467.1286, 10.12662
467.6107, 10.74609
468.0928, 11.01749
468.5749, 10.46750
469.0570, 10.06720
469.5392, 10.16263
470.0213, 10.54709
470.5034, 10.93604
470.9855, 11.19550
471.4676, 11.25058
471.9497, 11.05185
472.4319, 10.57480
472.9140, 10.30545
473.3961, 10.61569
473.8782, 10.88654
474.3603, 10.71646
474.8424, 10.17328
475.3246, 9.601471
475.8067, 9.164703
476.2888, 8.766327
476.7709, 8.418579
477.2530, 8.246857
477.7351, 7.978271
478.2173, 7.352051
478.6994, 6.546112
479.1815, 5.799408
479.6636, 5.027863
480.1457, 4.637024
480.6278, 5.165009
481.1100, 6.134735
481.5920, 6.715668
482.0742, 6.762726
482.5563, 6.408295
483.0384, 5.687683
483.5205, 4.602295
484.0026, 3.608765
484.4847, 2.385193
484.9669, 1.590607
485.4490, 1.878265
485.9311, 2.692993
486.4132, 3.041382
486.8953, 2.561096
487.3774, 1.654541
487.8596, 0.9586790
488.3417, 0.4846190
488.8238, 0.1946720
489.3059, 5.7250999E-02
489.7880, 2.4017001E-02
490.2701, 0.5052190
490.7523, 1.421082
491.2344, 2.588593
491.7165, 4.033264
492.1986, 5.364929
492.6807, 5.315826
493.1628, 3.226624
493.6450, 1.585022
494.1271, 0.9257810
494.6092, 0.8984380
495.0913, 1.660492
495.5734, 3.050690
496.0555, 4.085510
496.5377, 3.862518
497.0198, 2.787659
497.5019, 1.878448
497.9840, 1.123444
498.4661, 0.6870420
498.9482, 0.7638850
499.4304, 1.197479
499.9125, 1.700073
500.3946, 2.360016
500.8767, 2.840973
501.3588, 2.932831
501.8409, 2.748291
502.3231, 2.431915
502.8052, 2.011383
503.2873, 1.634918
503.7694, 1.472595
504.2515, 1.532440
504.7336, 1.423096
505.2158, 0.7007140
505.6979, 0.3207700
506.1800, 1.091064
506.6621, 2.282196
507.1442, 2.711243
507.6263, 1.972198
508.1085, 0.6918330
508.5906, 0.2091980
509.0727, 0.7222900
509.5548, 0.8925780
510.0369, 0.2763060
510.5190, 0.2376560
511.0012, 0.1503910
511.4833, 0.2665710
511.9654, 0.4673610
512.4475, 0.1673890
512.9296, 0.4352870
513.4117, 1.107880
513.8939, 1.920074
514.3760, 2.234161
514.8581, 1.417938
515.3402, 0.5579220
515.8223, 0.7132570
516.3044, 1.726425
516.7866, 2.496552
517.2687, 2.520203
517.7508, 2.077347
518.2329, 1.295822
518.7150, 0.2377620
519.1971, 0.3669430
519.6793, 6.4438000E-02
520.1614, 0.7670290
520.6435, 1.289993
521.1256, 1.469177
521.6077, 1.533005
522.0898, 1.572098
522.5720, 1.473373
523.0541, 0.9562380
523.5362, 0.1394500
524.0183, 0.4210510
524.5004, 0.2909390
524.9825, 0.3854680
525.4647, 0.8708800
525.9468, 1.080582
526.4289, 1.199432
526.9110, 1.218689
527.3931, 1.178833
527.8752, 1.125656
528.3574, 1.055893
528.8395, 0.9083100
529.3216, 0.5460360
529.8037, 4.6218999E-02
530.2858, 0.1260530
530.7679, 5.6244001E-02
531.2501, 0.5093540
531.7322, 1.505783
532.2143, 2.608994
532.6964, 3.335739
533.1785, 3.568710
533.6606, 3.739822
534.1428, 4.121094
534.6249, 4.693451
535.1070, 5.393829
535.5891, 6.169449
536.0712, 6.604736
536.5533, 6.288361
537.0355, 5.420303
537.5176, 5.234375
537.9997, 6.235794
538.4818, 7.255463
538.9639, 7.903854
539.4460, 8.385391
539.9282, 9.107193
540.4103, 10.12593
540.8924, 11.04042
541.3745, 11.32123
541.8566, 10.89079
542.3387, 10.65530
542.8209, 10.72188
543.3029, 10.88702
543.7850, 11.31302
544.2672, 11.71896
544.7493, 11.65369
545.2314, 11.03256
545.7135, 10.48604
546.1956, 10.93498
546.6777, 12.25435
547.1599, 12.87294
547.6420, 12.46486
548.1241, 11.88290
548.6062, 11.66618
549.0883, 11.62019
549.5704, 11.41251
550.0526, 10.89154
550.5347, 10.41461
551.0168, 10.27864
551.4989, 10.33336
551.9810, 10.27695
552.4631, 10.04646
552.9453, 9.691727
553.4274, 9.228561
553.9095, 8.654068
554.3916, 8.210251
554.8737, 7.585007
555.3558, 7.434952
555.8380, 8.297928
556.3201, 9.571747
556.8022, 10.61473
557.2843, 11.22345
557.7664, 11.38852
558.2485, 10.88713
558.7307, 9.660461
559.2128, 9.572876
559.6949, 11.71219
560.1770, 13.43665
560.6591, 13.59422
561.1412, 13.01727
561.6234, 12.74426
562.1055, 13.06392
562.5876, 13.37637
563.0697, 13.10344
563.5518, 12.39720
564.0339, 11.69493
564.5161, 10.99043
564.9982, 10.56606
565.4803, 10.65842
565.9624, 11.22031
566.4445, 11.91490
566.9266, 12.92647
567.4088, 13.77898
567.8909, 14.57881
568.3730, 15.03380
568.8551, 14.58350
569.3372, 13.24409
569.8193, 11.76747
570.3015, 10.81990
570.7836, 10.40068
571.2657, 10.70750
571.7478, 12.96510
572.2299, 14.28188
572.7120, 13.46037
573.1942, 12.01686
573.6763, 11.47749
574.1584, 12.00772
574.6405, 12.50848
575.1226, 11.94543
575.6047, 10.54671
576.0869, 9.118912
576.5690, 7.517868
577.0511, 6.525955
577.5332, 7.036209
578.0153, 8.119385
578.4974, 8.191986
578.9796, 6.969238
579.4617, 5.913223
579.9438, 5.690781
580.4259, 5.854736
580.9080, 6.066025
581.3901, 6.213867
581.8723, 5.926224
582.3544, 4.907959
582.8365, 3.460587
583.3186, 2.596207
583.8007, 2.795822
584.2828, 2.868652
584.7650, 2.744827
585.2471, 2.539932
585.7292, 2.314407
586.2113, 2.076965
586.6934, 1.804321
587.1755, 1.454041
587.6577, 1.112396
588.1398, 1.021591
588.6219, 1.232925
589.1040, 1.375778
589.5861, 1.394043
590.0682, 1.271378
590.5504, 0.9848480
591.0325, 0.5500180
591.5146, 6.3431002E-02
591.9967, 0.7919310
592.4788, 1.393753
592.9609, 0.8728940
593.4431, 0.3675990
593.9252, 1.066116
594.4073, 0.7423100
594.8894, 3.2471001E-02
595.3715, 0.4899750
595.8536, 0.5892940
596.3358, 0.5398710
596.8179, 6.0821999E-02
597.3000, 0.2351070
597.7821, 0.1795350
598.2642, 0.7991640
598.7463, 0.8099210
599.2285, 4.6691999E-02
599.7106, 1.118393
600.1927, 1.604462
600.6748, 1.525925
601.1569, 1.418152
601.6390, 1.224152
602.1212, 1.168991
602.6033, 1.550308
603.0854, 2.102493
603.5675, 2.418854
604.0496, 2.425949
604.5317, 2.293472
605.0139, 1.775894
605.4960, 1.306564
605.9781, 1.795929
606.4602, 3.219406
606.9423, 4.318085
607.4244, 4.098587
607.9066, 2.921799
608.3887, 2.425613
608.8708, 3.268967
609.3529, 3.876923
609.8350, 4.182205
610.3171, 4.249985
610.7993, 3.965530
611.2814, 3.467560
611.7635, 3.146271
612.2456, 3.282104
612.7277, 3.679565
613.2098, 4.008148
613.6920, 4.280823
614.1741, 4.345505
614.6562, 3.994766
615.1383, 3.646835
615.6204, 3.824509
616.1025, 4.425873
616.5847, 4.836044
617.0668, 4.686874
617.5489, 4.550308
618.0310, 4.942078
618.5131, 5.618805
618.9952, 5.961060
619.4774, 5.835022
619.9595, 5.460342
620.4416, 5.041885
620.9237, 4.546097
621.4058, 4.383881
621.8879, 4.653351
622.3701, 5.173401
622.8522, 6.493988
623.3343, 7.712738
623.8164, 7.623383
624.2985, 6.111649
624.7806, 4.648300
625.2628, 4.686600
625.7448, 5.649658
626.2269, 5.969971
626.7090, 5.575806
627.1912, 4.963364
627.6733, 4.107605
628.1554, 3.435120
628.6375, 3.936768
629.1196, 5.897202
629.6017, 7.324280
630.0839, 7.766220
630.5660, 7.664780
631.0481, 7.102203
631.5302, 6.343964
632.0123, 5.816650
632.4944, 5.716461
632.9766, 6.037933
633.4587, 6.957642
633.9408, 8.746613
634.4229, 9.725510
634.9050, 9.245148
635.3871, 8.746445
635.8693, 8.895599
636.3514, 9.421997
636.8335, 9.944534
637.3156, 10.39218
637.7977, 10.73851
638.2798, 10.87611
638.7620, 10.92477
639.2441, 11.16335
639.7262, 11.61301
640.2083, 12.01176
640.6904, 12.22194
641.1725, 12.21922
641.6547, 11.91826
642.1368, 10.83354
642.6189, 10.18394
643.1010, 10.46175
643.5831, 10.71565
644.0652, 10.27740
644.5474, 9.335159
645.0295, 8.479309
645.5116, 7.997757
645.9937, 7.716110
646.4758, 7.305679
646.9579, 6.769333
647.4401, 6.551178
647.9222, 7.033417
648.4043, 7.163742
648.8864, 5.644257
649.3685, 3.115860
649.8506, 1.614746
650.3328, 1.973984
650.8149, 2.433136
651.2970, 2.197357
651.7791, 1.705933
652.2612, 1.498093
652.7433, 1.665863
653.2255, 2.114182
653.7076, 2.778290
654.1897, 3.567810
654.6718, 3.978394
655.1539, 3.881165
655.6360, 3.622070
656.1182, 2.884201
656.6003, 2.309784
657.0824, 2.522156
657.5645, 3.219101
658.0466, 3.548035
658.5287, 2.969055
659.0109, 2.263550
659.4930, 2.358292
659.9751, 2.908051
660.4572, 2.846863
660.9393, 1.918106
661.4214, 0.9459080
661.9036, 0.6477510
662.3857, 0.9765780
662.8678, 1.386429
663.3499, 2.180817
663.8320, 2.657227
664.3141, 2.645706
664.7963, 2.383759
665.2784, 1.907028
665.7605, 1.338760
666.2426, 0.9968720
666.7247, 1.141830
667.2068, 1.513870
667.6890, 1.660950
668.1711, 1.587250
668.6532, 1.357590
669.1353, 0.8523250
669.6174, 0.5261990
670.0995, 0.9637760
670.5817, 2.063080
671.0638, 2.725693
671.5459, 2.699341
672.0280, 2.522873
672.5101, 2.114456
672.9922, 1.786987
673.4744, 2.165817
673.9565, 3.103210
674.4386, 3.528214
674.9207, 2.479385
675.4028, 0.5570680
675.8849, 0.1704560
676.3671, 0.6127320
676.8492, 1.174927
677.3313, 0.9623110
677.8134, 0.6832280
678.2955, 1.060287
678.7776, 1.866333
679.2598, 2.263214
679.7419, 1.711319
680.2240, 1.155472
680.7061, 1.252731
681.1882, 1.666733
681.6703, 1.892426
682.1525, 1.836319
682.6346, 1.638977
683.1167, 1.407745
683.5988, 1.138779
684.0809, 0.8046720
684.5630, 0.3800200
685.0452, 5.1041000E-02
685.5273, 0.6313320
686.0094, 1.075104
686.4915, 1.259705
686.9736, 1.169266
687.4557, 0.7537840
687.9379, 0.1815190
688.4200, 1.132843
688.9021, 1.747086
689.3842, 2.030746
689.8663, 1.857330
690.3484, 1.243118
690.8306, 0.6272740
691.3127, 0.3368990
691.7948, 0.3374940
692.2769, 0.4537660
692.7590, 0.7477720
693.2411, 1.067047
693.7233, 1.580292
694.2054, 1.958221
694.6875, 1.859955
695.1696, 1.471008
695.6517, 1.309753
696.1339, 1.686096
696.6160, 2.108978
697.0981, 1.920761
697.5802, 1.322556
698.0623, 1.046616
698.5444, 1.244888
699.0266, 1.384232
699.5087, 1.024704
699.9908, 0.3570860
700.4729, 0.1236880
700.9550, 0.8475340
701.4371, 1.203003
701.9193, 0.6042790
702.4014, 0.1582340
702.8835, 0.8889010
703.3656, 2.252869
703.8477, 2.949844
704.3298, 2.368530
704.8120, 1.443146
705.2941, 1.423492
705.7762, 2.091553
706.2583, 2.327744
706.7404, 1.975342
707.2225, 1.573715
707.7046, 1.440872
708.1867, 1.465240
708.6688, 1.352280
709.1509, 1.070999
709.6331, 0.7369840
710.1152, 4.2647999E-02
710.5973, 0.4864350
711.0794, 0.3284150
711.5615, 1.681686
712.0436, 2.183578
712.5258, 1.346939
713.0079, 0.1442720
713.4900, 0.3484340
713.9721, 0.2266540
714.4542, 5.3374998E-02
714.9363, 0.5355680
715.4185, 0.7962950
715.9006, 0.5569920
716.3827, 7.6508000E-02
716.8648, 0.2315980
717.3469, 0.3600620
717.8290, 0.3849640
718.3112, 0.2326510
718.7933, 6.1294999E-02
719.2754, 3.4224998E-02
719.7575, 9.9593997E-02
720.2396, 0.2258150
720.7217, 0.4251860
721.2039, 0.6270750
721.6860, 0.7442320
722.1681, 0.8097530
722.6502, 0.9930570
723.1323, 1.325623
723.6144, 1.490997
724.0966, 1.274384
724.5787, 1.031784
725.0608, 1.272552
725.5429, 1.983521
726.0250, 2.403275
726.5071, 2.193069
726.9893, 2.045670
727.4714, 2.539917
727.9535, 3.045044
728.4356, 2.588470
728.9177, 1.264435
729.3998, 0.1701660
729.8820, 8.5418999E-02
730.3641, 0.6702730
730.8462, 1.234055
731.3283, 1.781418
731.8104, 2.117401
732.2925, 2.209167
732.7747, 2.059250
733.2568, 1.496201
733.7389, 0.6437840
734.2210, 0.3316190
734.7031, 1.036682
735.1852, 1.461868
735.6674, 0.9984280
736.1495, 0.4367370
736.6316, 0.5309750
737.1137, 1.099228
737.5958, 1.476563
738.0779, 1.326813
738.5601, 0.9120480
739.0422, 0.5156710
739.5243, 0.1613460
740.0064, 0.1210630
740.4885, 0.4638060
740.9706, 0.9328460
741.4528, 1.524841
741.9349, 2.053650
742.4170, 2.000168
742.8991, 1.075394
743.3812, 0.5498660
743.8633, 1.007614
744.3455, 1.424316
744.8276, 1.240067
745.3097, 0.7029270
745.7918, 0.1071930
746.2739, 0.4586330
746.7560, 0.7029880
747.2382, 8.8577002E-02
747.7203, 1.038254
748.2024, 1.580612
748.6845, 1.525436
749.1666, 1.307617
749.6487, 1.026871
750.1309, 0.7780610
750.6130, 0.6812590
751.0951, 0.7429500
751.5772, 0.7636870
752.0593, 0.6820830
752.5414, 0.6339870
753.0236, 0.7807310
753.5057, 0.8731840
753.9878, 0.4807280
754.4699, 0.2282260
754.9520, 0.5106350
755.4341, 0.1611480
755.9163, 1.223282
756.3984, 2.109177
756.8805, 2.736618
757.3626, 2.523300
757.8447, 1.306808
758.3268, 0.2467800
758.8090, 0.1875920
759.2911, 0.9183200
759.7732, 1.802109
760.2553, 3.336456
760.7374, 4.108963
761.2195, 3.780960
761.7017, 3.090500
762.1838, 1.988007
762.6659, 0.9022060
763.1480, 0.5181880
763.6301, 1.047226
764.1122, 1.774643
764.5944, 2.289032
765.0765, 2.606430
765.5586, 2.624298
766.0407, 2.425354
766.5228, 2.508469
767.0049, 3.087982
767.4871, 3.694626
767.9692, 3.621048
768.4513, 2.807053
768.9334, 2.650558
769.4155, 3.585648
769.8976, 4.354111
770.3798, 4.666672
770.8619, 4.721436
771.3440, 4.551086
771.8261, 4.251328
772.3082, 4.059341
772.7903, 4.238297
773.2725, 4.273056
773.7546, 3.688477
774.2367, 2.777634
774.7188, 1.865417
775.2009, 1.083801
775.6830, 0.6711430
776.1652, 0.8083650
776.6473, 1.337677
777.1294, 1.980331
777.6115, 2.827469
778.0936, 3.125076
778.5757, 2.547134
779.0579, 1.928864
779.5400, 1.837585
780.0221, 1.936646
780.5042, 1.533340
780.9863, 0.3752750
781.4684, 0.1339260
781.9506, 1.124573
782.4327, 2.353149
782.9148, 2.224945
783.3969, 1.329315
783.8790, 0.7374270
784.3611, 0.7158050
784.8433, 0.7715610
785.3254, 0.4199980
785.8075, 0.1817320
786.2896, 0.7584990
786.7717, 1.321121
787.2538, 0.6867980
787.7360, 1.945267
788.2181, 4.260620
788.7002, 3.749924
789.1823, 0.8796540
789.6644, 0.3577880
790.1465, 1.733688
790.6286, 2.934509
791.1107, 2.223297
791.5928, 1.191284
792.0750, 0.7632140
792.5571, 0.8479920
793.0392, 1.047806
793.5213, 1.218796
794.0034, 1.506348
794.4855, 2.144150
794.9677, 2.941833
795.4498, 3.513596
795.9319, 3.874313
796.4140, 4.352615
796.8961, 5.119980
797.3782, 5.670898
797.8604, 5.152725
798.3425, 3.472702
798.8246, 2.968750
799.3067, 4.346588
799.7888, 5.617004
800.2709, 6.331451
800.7531, 6.726135
801.2352, 6.968323
801.7173, 7.036209
802.1994, 6.765930
802.6815, 5.679703
803.1636, 4.884186
803.6458, 5.175446
804.1279, 5.926773
804.6100, 6.619400
805.0921, 7.111465
805.5742, 7.115097
806.0563, 6.459946
806.5385, 5.555588
807.0206, 5.041901
807.5027, 4.896500
807.9848, 4.807785
808.4669, 4.746750
808.9490, 4.857635
809.4312, 5.319122
809.9133, 5.831711
810.3954, 5.953598
810.8775, 5.642761
811.3596, 5.160034
811.8417, 3.991760
812.3239, 3.304031
812.8060, 3.939072
813.2881, 4.836624
813.7702, 4.690872
814.2523, 3.727386
814.7344, 3.472382
815.2166, 5.108261
815.6987, 6.838943
816.1808, 6.455872
816.6629, 4.830078
817.1450, 3.850464
817.6271, 3.718765
818.1093, 3.840149
818.5914, 3.875732
819.0735, 3.967499
819.5556, 4.480774
820.0377, 5.564377
820.5198, 6.114944
821.0020, 6.052979
821.4841, 5.590286
821.9662, 4.212265
822.4483, 2.892410
822.9304, 2.928238
823.4125, 4.270615
823.8947, 5.197968
824.3768, 4.931564
824.8589, 4.714539
825.3410, 5.473282
825.8231, 6.317368
826.3052, 5.982819
826.7874, 4.686951
827.2695, 3.757339
827.7516, 3.967621
828.2337, 4.705215
828.7158, 5.189224
829.1979, 5.458862
829.6801, 5.714767
830.1622, 5.974869
830.6443, 5.954239
831.1264, 5.436661
831.6085, 4.777649
832.0906, 4.557938
832.5728, 4.821701
833.0549, 5.212540
833.5370, 6.017181
834.0191, 6.521301
834.5012, 6.535233
834.9833, 6.230362
835.4655, 5.422455
835.9476, 4.344299
836.4297, 4.013290
836.9118, 5.180725
837.3939, 6.445724
837.8760, 7.290741
838.3582, 7.666016
838.8403, 7.155716
839.3224, 6.107986
839.8045, 5.644348
840.2866, 6.295258
840.7687, 7.308899
841.2509, 7.708237
841.7330, 7.565567
842.2151, 7.198395
842.6972, 6.587677
843.1793, 6.146790
843.6614, 5.965515
844.1436, 6.210251
844.6257, 7.313263
845.1078, 9.148788
845.5899, 9.983337
846.0720, 9.027206
846.5541, 8.183472
847.0363, 7.633392
847.5184, 7.191498
848.0005, 6.553833
848.4826, 5.970764
848.9647, 6.219299
849.4468, 7.630203
849.9290, 8.732452
850.4111, 8.390289
850.8932, 7.634933
851.3753, 7.508835
851.8574, 7.855103
852.3395, 8.214905
852.8217, 8.416977
853.3038, 8.407013
853.7859, 8.021652
854.2680, 7.478668
854.7501, 7.608047
855.2322, 8.409531
855.7144, 8.785873
856.1965, 8.450256
856.6786, 7.966919
857.1607, 7.767075
857.6428, 7.731277
858.1249, 7.461380
858.6071, 6.765961
859.0892, 6.232819
859.5713, 6.041183
860.0534, 5.872620
860.5355, 5.336563
861.0176, 4.801483
861.4998, 4.920135
861.9819, 5.778198
862.4640, 6.511658
862.9461, 6.722824
863.4282, 6.667160
863.9103, 6.259384
864.3925, 5.841599
864.8746, 5.890747
865.3567, 6.262787
865.8388, 6.336578
866.3209, 5.747589
866.8030, 4.930481
867.2852, 4.414734
867.7673, 4.206833
868.2494, 4.559311
868.7315, 5.496841
869.2136, 6.158066
869.6957, 6.127289
870.1779, 5.830109
870.6600, 5.844971
871.1421, 6.175476
871.6242, 6.295578
872.1063, 5.949661
872.5884, 5.842331
873.0705, 6.605759
873.5526, 7.155060
874.0347, 6.529129
874.5168, 5.224365
874.9990, 4.487778
875.4811, 4.675446
875.9632, 4.966599
876.4453, 5.189987
876.9274, 5.368103
877.4095, 5.280060
877.8917, 5.072327
878.3738, 5.090942
878.8559, 5.358826
879.3380, 5.461960
879.8201, 4.950851
880.3022, 4.240372
880.7844, 4.171738
881.2665, 4.500870
881.7486, 4.167465
882.2307, 3.054672
882.7128, 2.210526
883.1949, 2.328339
883.6771, 2.998489
884.1592, 3.409683
884.6413, 3.556519
885.1234, 3.466263
885.6055, 3.060974
886.0876, 2.586105
886.5698, 1.951752
887.0519, 1.462463
887.5340, 1.614609
888.0161, 2.344986
888.4982, 2.668976
888.9803, 2.106628
889.4625, 1.775955
889.9446, 2.208054
890.4267, 2.611847
890.9088, 2.264679
891.3909, 1.525925
891.8730, 1.194489
892.3552, 1.501282
892.8373, 1.874588
893.3194, 1.944229
893.8015, 1.905655
894.2836, 1.852615
894.7657, 1.885788
895.2479, 2.347382
895.7300, 3.204285
896.2121, 3.857803
896.6942, 3.872925
897.1763, 3.369995
897.6584, 2.325745
898.1406, 0.8564150
898.6227, 0.1576840
899.1048, 0.3756710
899.5869, 1.017471
900.0690, 2.043076
900.5511, 2.802094
901.0333, 2.146210
901.5154, 3.9214998E-02
901.9975, 0.9951320
902.4796, 0.1128080
902.9617, 0.8910980
903.4438, 0.4661710
903.9260, 5.6610000E-03
904.4081, 0.6848300
904.8902, 1.898712
905.3723, 1.953644
905.8544, 0.1087490
906.3365, 1.277267
906.8187, 1.436371
907.3008, 1.183441
907.7829, 0.8226470
908.2650, 0.4423980
908.7471, 8.5297003E-02
909.2292, 0.2251280
909.7114, 0.4251560
910.1935, 0.3729710
910.6756, 0.3575130
911.1577, 0.8827510
911.6398, 1.568604
912.1219, 1.595642
912.6041, 1.027084
913.0862, 0.5889280
913.5683, 0.6255950
914.0504, 0.8062440
914.5325, 0.6560210
915.0146, 0.2557070
915.4968, 0.1289670
915.9789, 0.2938840
916.4610, 0.1472930
916.9431, 0.5658570
917.4252, 1.117111
917.9073, 0.8073730
918.3895, 5.1819000E-02
918.8716, 0.2624050
919.3537, 0.6873930
919.8358, 0.9434970
920.3179, 0.2216030
920.8000, 1.035660
921.2822, 0.3149410
921.7643, 0.7949830
922.2464, 0.9192350
922.7285, 9.5490001E-02
923.2106, 0.3183900
923.6927, 0.2247160
924.1749, 0.7124790
924.6570, 0.9817050
925.1391, 0.9837650
925.6212, 0.5584410
926.1033, 0.1307980
926.5854, 0.8576660
927.0676, 1.568481
927.5497, 1.903992
928.0318, 1.242432
928.5139, 0.4358670
928.9960, 0.4766240
929.4781, 0.9762120
929.9603, 1.085617
930.4424, 0.7401280
930.9245, 0.5205540
931.4066, 0.7982940
931.8887, 1.375565
932.3708, 2.293243
932.8530, 3.256393
933.3351, 2.620499
933.8172, 0.4363560
934.2993, 0.8822630
934.7814, 0.3838040
935.2635, 0.7381900
935.7457, 1.218430
936.2278, 1.162476
936.7099, 1.184158
937.1920, 1.292068
937.6741, 1.429321
938.1563, 1.557892
938.6384, 1.796066
939.1205, 2.308212
939.6026, 2.892868
940.0847, 3.192963
940.5668, 3.177689
941.0490, 3.060440
941.5311, 2.646133
942.0132, 2.401459
942.4953, 2.692734
942.9774, 2.934052
943.4595, 2.416885
943.9417, 1.540070
944.4238, 1.420898
944.9059, 2.481995
945.3880, 3.506836
945.8701, 4.325424
946.3522, 4.698868
946.8344, 3.925232
947.3165, 2.906738
947.7986, 2.982101
948.2807, 4.154419
948.7628, 5.320190
949.2449, 5.930908
949.7271, 6.228546
950.2092, 6.294464
950.6913, 6.286438
951.1734, 6.327866
951.6555, 6.525436
952.1376, 7.299850
952.6198, 8.724930
953.1019, 9.980270
953.5840, 10.17827
954.0661, 9.781326
954.5482, 9.801041
955.0303, 10.23851
955.5124, 11.20091
955.9945, 12.70581
956.4766, 14.27727
956.9587, 15.69946
957.4409, 16.85841
957.9230, 17.45404
958.4051, 17.51053
958.8872, 18.31970
959.3693, 20.12318
959.8514, 21.51012
960.3336, 22.15462
960.8157, 22.75056
961.2978, 23.85170
961.7799, 25.30322
962.2620, 26.67171
962.7441, 27.69257
963.2263, 29.42303
963.7084, 32.86459
964.1905, 35.55424
964.6726, 36.34467
965.1547, 36.72878
965.6368, 37.85214
966.1190, 39.67969
966.6011, 41.89619
967.0832, 44.79982
967.5653, 47.37865
968.0474, 49.32790
968.5295, 50.99765
969.0117, 52.38191
969.4938, 53.71838
969.9759, 55.31839
970.4580, 57.18961
970.9401, 59.03119
971.4222, 60.69028
971.9044, 62.31091
972.3865, 64.15565
972.8686, 65.87427
973.3507, 67.17586
973.8328, 68.00931
974.3149, 68.34616
974.7971, 68.13705
975.2792, 67.34000
975.7613, 65.65042
976.2434, 63.79437
976.7255, 62.93709
977.2076, 62.41907
977.6898, 60.89693
978.1719, 58.43214
978.6540, 55.88652
979.1361, 53.68584
979.6182, 51.28883
980.1003, 47.86696
980.5825, 43.96880
981.0646, 41.45537
981.5467, 40.11981
982.0288, 38.63792
982.5109, 36.76976
982.9930, 34.62303
983.4752, 32.27736
983.9573, 29.79507
984.4394, 27.11850
984.9215, 24.24385
985.4036, 22.03772
985.8857, 20.61804
986.3679, 19.09935
986.8500, 17.06975
987.3321, 15.49477
987.8142, 15.34766
988.2963, 16.08145
988.7784, 15.95258
989.2606, 14.70789
989.7427, 13.45312
990.2248, 11.91771
990.7069, 10.92047
991.1890, 11.09297
991.6711, 11.48447
992.1533, 11.08377
992.6354, 10.11595
993.1175, 9.374146
993.5996, 9.162140
994.0817, 8.550247
994.5638, 6.895264
995.0460, 5.588394
995.5281, 5.500809
996.0102, 5.798553
996.4923, 5.515671
996.9744, 4.709732
997.4565, 4.186478
997.9387, 4.257065
998.4208, 4.354736
998.9029, 4.434784
999.3850, 4.398209
999.8671, 4.073563
1000.349, 3.650528
1000.831, 3.355209
1001.313, 3.234085
1001.796, 3.328461
1002.278, 4.020416
1002.760, 4.390686
1003.242, 3.438599
1003.724, 2.467148
1004.206, 2.981827
1004.688, 4.338425
1005.170, 5.055832
1005.653, 4.821442
1006.135, 4.588089
1006.617, 5.038834
1007.099, 5.629288
1007.581, 5.868042
1008.063, 5.913116
1008.545, 5.961411
1009.027, 6.026611
1009.509, 6.065933
1009.992, 6.065262
1010.474, 6.038483
1010.956, 5.887421
1011.438, 5.840302
1011.920, 6.434479
1012.402, 7.347778
1012.884, 7.889023
1013.366, 7.997482
1013.849, 7.809708
1014.331, 7.414566
1014.813, 7.332397
1015.295, 8.238342
1015.777, 9.715256
1016.259, 10.81508
1016.741, 11.54921
1017.223, 11.95114
1017.705, 12.02545
1018.188, 11.67078
1018.670, 10.80949
1019.152, 9.952103
1019.634, 9.894653
1020.116, 10.42342
1020.598, 10.47285
1021.080, 10.08699
1021.562, 9.625259
1022.044, 9.066284
1022.527, 8.747726
1023.009, 8.938324
1023.491, 9.187714
1023.973, 8.668503
1024.455, 7.440598
1024.937, 6.977417
1025.419, 7.352737
1025.901, 7.745255
1026.384, 7.997299
1026.866, 8.309128
1027.348, 8.879807
1027.830, 9.464294
1028.312, 9.474258
1028.794, 8.838608
1029.276, 8.380234
1029.758, 8.210266
1030.240, 7.871613
1030.723, 7.113678
1031.205, 6.589951
1031.687, 6.878677
1032.169, 7.495911
1032.651, 7.348160
1033.133, 6.226471
1033.615, 6.194321
1034.097, 8.126999
1034.579, 9.167816
1035.062, 8.137192
1035.544, 7.082657
1036.026, 7.518387
1036.508, 8.748947
1036.990, 9.341812
1037.472, 9.237320
1037.954, 8.923279
1038.436, 7.915924
1038.919, 7.289108
1039.401, 7.450653
1039.883, 7.801605
1040.365, 8.018372
1040.847, 8.137192
1041.329, 8.229721
1041.811, 8.323563
1042.293, 8.411926
1042.776, 8.335938
1043.258, 8.284149
1043.740, 8.336578
1044.222, 8.435425
1044.704, 8.774002
1045.186, 9.063431
1045.668, 8.524704
1046.150, 6.876984
1046.632, 6.107025
1047.115, 7.429916
1047.597, 8.266678
1048.079, 7.487183
1048.561, 6.504578
1049.043, 6.392838
1049.525, 6.746887
1050.007, 6.673111
1050.489, 6.024719
1050.971, 5.560333
1051.454, 5.700256
1051.936, 5.670792
1052.418, 4.975174
1052.900, 4.288834
1053.382, 4.222412
1053.864, 4.472687
1054.346, 4.423981
1054.828, 3.981186
1055.311, 3.596817
1055.793, 3.428619
1056.275, 3.293182
1056.757, 3.114975
1057.239, 2.947098
1057.721, 3.067139
1058.203, 3.123566
1058.685, 2.253296
1059.167, 0.3715210
1059.650, 0.7376710
1060.132, 9.5670000E-03
1060.614, 0.9487920
1061.096, 1.583923
1061.578, 2.048828
1062.060, 2.548325
1062.542, 2.907501
1063.024, 2.726776
1063.506, 1.989609
1063.989, 1.321045
1064.471, 0.9332890
1064.953, 0.6691890
1065.435, 0.3276980
1065.917, 0.2184450
1066.399, 0.9293980
1066.881, 1.855423
1067.363, 1.818710
1067.846, 0.8288730
1068.328, 0.5110930
1068.810, 2.379013
1069.292, 3.432602
1069.774, 1.293839
1070.256, 1.106949
1070.738, 1.705811
1071.220, 1.078766
1071.703, 0.1419220
1072.185, 1.607162
1072.667, 2.318726
1073.149, 1.601273
1073.631, 0.7975770
1074.113, 0.4370120
1074.595, 0.3128050
1075.077, 0.3397370
1075.559, 0.4694060
1076.042, 0.7640230
1076.524, 1.131683
1077.006, 1.205093
1077.488, 0.8021240
1077.970, 0.2871250
1078.452, 0.4938660
1078.934, 0.9677580
1079.416, 0.3636630
1079.898, 0.4978490
1080.380, 0.5364840
1080.863, 0.1116490
1081.345, 0.5992430
1081.827, 0.6897740
1082.309, 0.4859920
1082.791, 0.3371280
1083.273, 1.009323
1083.755, 1.027008
1084.237, 0.6880800
1084.720, 6.9945998E-02
1085.202, 0.5820920
1085.684, 0.7676240
1086.166, 0.3172910
1086.648, 0.2103120
1087.130, 0.8131710
1087.612, 1.141953
1088.094, 0.7742460
1088.577, 0.2599180
1089.059, 0.1305390
1089.541, 0.2617650
1090.023, 0.2895660
1090.505, 0.1362610
1090.987, 5.4671999E-02
1091.469, 5.8120999E-02
1091.951, 0.2696990
1092.433, 1.019791
1092.916, 1.729279
1093.398, 2.050110
1093.880, 1.963211
1094.362, 1.247742
1094.844, 4.1473001E-02
1095.326, 0.7061920
1095.808, 0.1835630
1096.290, 0.9436800
1096.772, 0.8117220
1097.255, 0.6139220
1097.737, 1.167145
1098.219, 1.788849
1098.701, 1.307327
1099.183, 0.1307530
1099.665, 0.8919980
1100.147, 0.3206020
1100.629, 0.2072600
1101.112, 0.4369050
1101.594, 0.5002440
1102.076, 0.3021090
1102.558, 8.8988997E-02
1103.040, 0.1800840
1103.522, 0.4888760
1104.004, 0.6154940
1104.486, 0.4038540
1104.969, 0.3265840
1105.451, 0.3176730
1105.933, 0.6431430
1106.415, 1.978806
1106.897, 3.155807
1107.379, 2.909470
1107.861, 1.847244
1108.343, 1.576263
1108.825, 2.403503
1109.307, 2.906342
1109.790, 2.788300
1110.272, 2.582993
1110.754, 2.245941
1111.236, 2.010025
1111.718, 2.249863
1112.200, 2.571060
1112.682, 2.132690
1113.164, 0.8542480
1113.647, 0.3948970
1114.129, 1.511688
1114.611, 2.192902
1115.093, 2.046906
1115.575, 1.798233
1116.057, 1.697281
1116.539, 1.701309
1117.021, 1.850754
1117.504, 2.055878
1117.986, 1.868393
1118.468, 0.6984100
1118.950, 0.5150760
1119.432, 2.034607
1119.914, 3.108475
1120.396, 2.838028
1120.878, 2.275269
1121.360, 2.319000
1121.843, 2.761353
1122.325, 2.987793
1122.807, 2.958725
1123.289, 2.935974
1123.771, 2.876846
1124.253, 2.996033
1124.735, 3.394897
1125.217, 3.816055
1125.699, 4.125458
1126.182, 4.296188
1126.664, 4.242462
1127.146, 3.980972
1127.628, 3.880585
1128.110, 3.916061
1128.592, 3.734131
1129.074, 3.323334
1129.556, 3.063492
1130.039, 3.050934
1130.521, 3.256393
1131.003, 3.719543
1131.485, 4.265213
1131.967, 4.157288
1132.449, 3.449127
1132.931, 3.240997
1133.413, 3.569534
1133.896, 3.245819
1134.378, 1.910782
1134.860, 1.143036
1135.342, 2.284225
1135.824, 4.103729
1136.306, 4.223068
1136.788, 3.093872
1137.270, 2.484756
1137.752, 2.322311
1138.234, 2.130859
1138.717, 1.846313
1139.199, 1.825424
1139.681, 2.290298
1140.163, 2.558334
1140.645, 1.531937
1141.127, 8.6623996E-02
1141.609, 8.9706004E-02
1142.091, 0.5892490
1142.574, 1.476700
1143.056, 2.287430
1143.538, 2.536789
1144.020, 2.168274
1144.502, 1.785675
1144.984, 1.793945
1145.466, 1.956406
1145.948, 2.175842
1146.431, 2.284180
1146.913, 1.870316
1147.395, 1.277740
1147.877, 1.295807
1148.359, 1.839859
1148.841, 1.935822
1149.323, 1.083115
1149.805, 0.3166050
1150.287, 0.4447020
1150.770, 0.7112270
1151.252, 0.3385310
1151.734, 3.4479999E-03
1152.216, 0.7907410
1152.698, 2.131775
1153.180, 2.564178
1153.662, 1.885391
1154.144, 1.133789
1154.626, 0.4529110
1155.109, 6.5598004E-02
1155.591, 0.3759310
1156.073, 0.6787410
1156.555, 0.2236790
1157.037, 0.4105070
1157.519, 0.4217220
1158.001, 0.2183530
1158.483, 0.7448270
1158.966, 0.9394230
1159.448, 1.253891
1159.930, 1.917999
1160.412, 2.423920
1160.894, 2.758331
1161.376, 2.776886
1161.858, 2.069748
1162.340, 1.115295
1162.822, 1.170502
1163.305, 2.408051
1163.787, 2.830414
1164.269, 2.096008
1164.751, 1.530487
1165.233, 1.314484
1165.715, 1.359283
1166.197, 1.652924
1166.679, 2.000397
1167.161, 2.157135
1167.644, 2.142334
1168.126, 2.234756
1168.608, 2.473526
1169.090, 2.283936
1169.572, 1.618805
1170.054, 1.258484
1170.536, 1.428787
1171.018, 1.759781
1171.500, 2.010162
1171.983, 2.220261
1172.465, 2.490891
1172.947, 2.769775
1173.429, 2.829178
1173.911, 2.739243
1174.393, 2.848053
1174.875, 3.113968
1175.357, 3.054779
1175.840, 2.513962
1176.322, 1.938522
1176.804, 1.695999
1177.286, 1.616211
1177.768, 1.503265
1178.250, 1.391220
1178.732, 1.282303
1179.214, 1.236404
1179.697, 1.453445
1180.179, 1.866455
1180.661, 2.050797
1181.143, 1.793762
1181.625, 1.612549
1182.107, 2.052048
1182.589, 2.365738
1183.071, 1.766449
1183.553, 1.090515
1184.036, 1.335449
1184.518, 2.019135
1185.000, 2.082245
1185.482, 1.434708
1185.964, 1.263947
1186.446, 2.310379
1186.928, 3.090958
1187.410, 3.298355
1187.892, 3.259232
1188.375, 2.980484
1188.857, 2.637863
1189.339, 2.361816
1189.821, 2.157883
1190.303, 2.061829
1190.785, 2.105438
1191.267, 2.030869
1191.749, 1.698593
1192.232, 1.672012
1192.714, 2.170776
1193.196, 2.584122
1193.678, 2.552536
1194.160, 2.425064
1194.642, 2.656372
1195.124, 3.118484
1195.606, 3.302353
1196.089, 3.216568
1196.571, 2.992599
1197.053, 2.663925
1197.535, 2.864456
1198.017, 3.717133
1198.499, 4.462067
1198.981, 4.617981
1199.463, 4.418930
1199.945, 4.056122
1200.427, 3.682724
1200.910, 3.727661
1201.392, 3.977448
1201.874, 4.025070
1202.356, 3.820129
1202.838, 3.265472
1203.320, 2.396896
1203.802, 1.837891
1204.284, 2.018814
1204.767, 2.384796
1205.249, 2.559662
1205.731, 2.695526
1206.213, 2.969238
1206.695, 3.237411
1207.177, 3.308151
1207.659, 3.218231
1208.141, 3.114395
1208.624, 3.024445
1209.106, 2.927689
1209.588, 2.915237
1210.070, 2.760559
1210.552, 1.756119
1211.034, 1.357147
1211.516, 3.442062
1211.998, 5.461990
1212.480, 4.367096
1212.963, 1.166748
1213.445, 0.2100980
1213.927, 0.6304020
1214.409, 1.332138
1214.891, 1.913025
1215.373, 2.107986
1215.855, 1.792465
1216.337, 1.646988
1216.819, 2.111099
1217.302, 2.530365
1217.784, 2.036118
1218.266, 0.9661250
1218.748, 0.2289120
1219.230, 0.1349490
1219.712, 0.2734530
1220.194, 1.288300
1220.676, 2.127853
1221.159, 2.552475
1221.641, 2.291718
1222.123, 1.175003
1222.605, 2.1790000E-02
1223.087, 0.5621800
1223.569, 0.7292480
1224.051, 0.8398280
1224.533, 0.7833860
1225.016, 0.2013550
1225.498, 0.5727390
1225.980, 0.7487030
1226.462, 0.3415370
1226.944, 0.3681340
1227.426, 1.490967
1227.908, 2.142715
1228.390, 1.074402
1228.872, 0.3259430
1229.354, 1.256989
1229.837, 2.345047
1230.319, 2.215942
1230.801, 1.507431
1231.283, 1.497559
1231.765, 2.151566
1232.247, 2.175385
1232.729, 1.245163
1233.211, 0.6972660
1233.694, 0.6072080
1234.176, 0.9178010
1234.658, 1.762024
1235.140, 2.244659
1235.622, 1.608871
1236.104, 0.5962370
1236.586, 0.5064090
1237.068, 1.075592
1237.551, 1.212524
1238.033, 0.9938200
1238.515, 0.6195070
1238.997, 0.2203220
1239.479, 0.3921200
1239.961, 1.179535
1240.443, 1.560928
1240.925, 0.7807310
1241.407, 4.1457999E-02
1241.890, 0.2472690
1242.372, 0.9343570
1242.854, 1.642654
1243.336, 2.079910
1243.818, 1.606628
1244.300, 0.7182920
1244.782, 0.5873720
1245.264, 1.336563
1245.746, 1.806137
1246.229, 1.586731
1246.711, 1.271164
1247.193, 0.7845610
1247.675, 0.4516910
1248.157, 0.3576660
1248.639, 0.4915160
1249.121, 0.9918060
1249.603, 1.483154
1250.085, 1.452179
1250.568, 0.8918610
1251.050, 0.7159270
1251.532, 0.9528810
1252.014, 1.273132
1252.496, 1.640137
1252.978, 2.146683
1253.460, 2.727097
1253.942, 2.861115
1254.425, 2.037338
1254.907, 1.063461
1255.389, 1.219452
1255.871, 1.882355
1256.353, 2.114105
1256.835, 2.145721
1257.317, 2.463623
1257.799, 2.935501
1258.281, 3.073486
1258.764, 2.777130
1259.246, 2.056610
1259.728, 0.6950530
1260.210, 0.1420590
1260.692, 0.5232540
1261.174, 1.184525
1261.656, 1.033646
1262.138, 0.6942900
1262.620, 0.7647400
1263.103, 1.012299
1263.585, 0.8827510
1264.067, 0.5971370
1264.549, 0.6542210
1265.031, 1.231873
1265.513, 1.399475
1265.995, 1.002869
1266.477, 0.7043610
1266.960, 0.6820370
1267.442, 0.7279660
1267.924, 0.6445310
1268.406, 0.6320500
1268.888, 1.012115
1269.370, 1.592117
1269.852, 2.096085
1270.334, 2.426025
1270.817, 2.184219
1271.299, 1.547562
1271.781, 0.9594880
1272.263, 0.5235750
1272.745, 0.1370390
1273.227, 6.4406998E-02
1273.709, 8.5129000E-02
1274.191, 0.1509250
1274.673, 0.5135650
1275.156, 1.280060
1275.638, 1.761673
1276.120, 1.084534
1276.602, 0.2073360
1277.084, 0.3671110
1277.566, 1.240982
1278.048, 1.657990
1278.530, 1.586685
1279.012, 1.253677
1279.495, 0.3554990
1279.977, 0.2512820
1280.459, 1.217102
1280.941, 1.959915
1281.423, 2.002060
1281.905, 1.786453
1282.387, 1.667862
1282.869, 1.517059
1283.352, 0.9816130
1283.834, 0.3051150
1284.316, 5.4469998E-03
1284.798, 0.0000000E+00
##END=



