##NAMES=Zinnwaldite
##RRUFFID=R040138
##IDEAL CHEMISTRY=K(Al,Fe,Li)_3_(Si,Al)_4_O_10_(OH)F
##LOCALITY=TÃ¸rdal, Telemark, Norway
##OWNER=RRUFF
##SOURCE=University of Arizona Mineral Museum
##DESCRIPTION=Dark green mica book, polytype 1M
##STATUS=The identification of this mineral has been confirmed by X-ray diffraction and chemical analysis
##URL=rruff.info/R040138
##MEASURED CHEMISTRY=(K_0.96_Na_0.04_)(Al_0.35_Fe^2+^_0.29_Li_0.27_Mg_0.04_Mn_0.03_Ti_0.02_)_3_(Si_0.66_Al_0.34_)_4_O_10_((OH)_0.64_F_0.36_)_2_
162.9636, 0.0000000E+00
163.4457, 3.183228
163.9278, 0.8479000
164.4099, 3.049316
164.8920, 12.11584
165.3741, 28.24719
165.8563, 42.59180
166.3384, 46.47302
166.8205, 45.00623
167.3026, 47.00513
167.7847, 58.78857
168.2668, 75.34497
168.7490, 85.07214
169.2311, 84.90027
169.7132, 84.75952
170.1953, 92.02161
170.6774, 102.5255
171.1595, 109.5129
171.6417, 108.5160
172.1238, 102.5706
172.6059, 99.28113
173.0880, 99.49597
173.5701, 100.7781
174.0522, 103.2867
174.5344, 105.8252
175.0165, 106.5344
175.4986, 104.3497
175.9807, 99.95618
176.4628, 93.43652
176.9449, 79.07788
177.4271, 73.81775
177.9092, 91.40503
178.3913, 118.7168
178.8734, 137.4487
179.3555, 137.1350
179.8376, 124.1172
180.3197, 117.4966
180.8019, 121.2721
181.2840, 124.5952
181.7661, 122.5818
182.2482, 118.5857
182.7303, 116.6965
183.2124, 118.9259
183.6946, 124.4664
184.1767, 131.3906
184.6588, 141.2952
185.1409, 149.6012
185.6230, 155.5751
186.1051, 159.4122
186.5873, 161.1155
187.0694, 160.4797
187.5515, 158.2760
188.0336, 156.5830
188.5157, 156.5667
188.9978, 159.0452
189.4800, 156.5752
189.9621, 153.3412
190.4442, 149.9301
190.9263, 146.6960
191.4084, 145.4725
191.8905, 138.9254
192.3727, 125.4009
192.8548, 116.8397
193.3369, 118.3267
193.8190, 123.5261
194.3011, 126.3969
194.7832, 124.9790
195.2654, 121.2030
195.7475, 116.8589
196.2296, 111.2272
196.7117, 107.9691
197.1938, 110.7097
197.6759, 113.9219
198.1581, 111.6387
198.6402, 102.0221
199.1223, 89.91992
199.6044, 84.65576
200.0865, 90.00879
200.5686, 95.06018
201.0508, 99.62439
201.5329, 103.0294
202.0150, 104.5261
202.4971, 103.9662
202.9792, 101.9603
203.4613, 100.0177
203.9435, 100.6564
204.4256, 96.04089
204.9077, 76.64563
205.3898, 57.62927
205.8719, 52.15344
206.3540, 61.28552
206.8362, 72.42700
207.3183, 65.86499
207.8004, 29.20508
208.2825, 6.957642
208.7646, 7.945435
209.2467, 14.77600
209.7289, 18.75513
210.2110, 18.30994
210.6931, 16.08655
211.1752, 15.05457
211.6573, 15.51709
212.1395, 16.12427
212.6216, 21.31970
213.1037, 22.96765
213.5858, 12.05762
214.0679, 8.152344
214.5500, 24.27209
215.0322, 20.69958
215.5143, 7.368652
215.9964, 22.92920
216.4785, 14.48657
216.9606, 4.435425
217.4427, 1.740967
217.9249, 4.965820
218.4070, 6.990112
218.8891, 0.4119870
219.3712, 15.31921
219.8533, 19.54224
220.3354, 2.559814
220.8176, 21.98315
221.2997, 32.37537
221.7818, 34.42432
222.2639, 30.11597
222.7460, 19.66968
223.2281, 4.047852
223.7103, 5.415771
224.1924, 5.171753
224.6745, 1.926880
225.1566, 7.353027
225.6387, 17.89001
226.1208, 21.86658
226.6030, 13.87463
227.0851, 2.006592
227.5672, 8.220459
228.0493, 4.874756
228.5314, 15.07104
229.0135, 16.08691
229.4957, 13.26990
229.9778, 13.47839
230.4599, 19.93811
230.9420, 29.16467
231.4241, 32.25281
231.9062, 24.91589
232.3884, 18.47888
232.8705, 11.85278
233.3526, 7.938965
233.8347, 10.29688
234.3168, 19.91321
234.7989, 32.91675
235.2811, 44.02795
235.7632, 57.05396
236.2453, 58.35645
236.7274, 32.63245
237.2095, 6.098511
237.6916, 0.9030760
238.1738, 14.17236
238.6559, 35.37988
239.1380, 42.48254
239.6201, 31.24341
240.1022, 21.44116
240.5843, 12.58118
241.0665, 6.259399
241.5486, 3.702637
242.0307, 4.712769
242.5128, 8.030396
242.9949, 14.27173
243.4770, 24.28748
243.9592, 26.74597
244.4413, 11.51855
244.9234, 1.984131
245.4055, 7.473999
245.8876, 5.348633
246.3697, 2.426758
246.8519, 17.34729
247.3340, 37.66418
247.8161, 45.95618
248.2982, 31.21094
248.7803, 18.69666
249.2624, 16.84277
249.7446, 22.83069
250.2267, 32.49500
250.7088, 44.88940
251.1909, 58.20435
251.6730, 67.77856
252.1551, 72.62195
252.6373, 73.79004
253.1194, 68.29541
253.6015, 61.20325
254.0836, 58.73633
254.5657, 63.87109
255.0478, 71.51013
255.5300, 64.85559
256.0121, 77.38245
256.4942, 85.83313
256.9763, 90.14062
257.4584, 76.71191
257.9406, 84.80945
258.4227, 83.93860
258.9048, 82.70215
259.3869, 93.83386
259.8690, 82.17297
260.3511, 93.11511
260.8333, 95.03418
261.3154, 101.0751
261.7975, 98.17542
262.2796, 98.03259
262.7617, 106.8309
263.2438, 110.7141
263.7260, 106.8677
264.2081, 113.3192
264.6902, 101.9235
265.1723, 107.7886
265.6544, 110.2855
266.1365, 112.3409
266.6187, 113.6382
267.1008, 117.5029
267.5829, 121.5298
268.0650, 117.3252
268.5471, 101.2124
269.0292, 85.06372
269.5114, 78.20703
269.9935, 78.01233
270.4756, 80.82458
270.9577, 86.97974
271.4398, 94.72278
271.9219, 102.1226
272.4041, 108.6747
272.8862, 115.6783
273.3683, 126.8887
273.8504, 136.7205
274.3325, 135.9017
274.8146, 118.1176
275.2968, 100.3467
275.7789, 97.05029
276.2610, 104.3024
276.7431, 104.4496
277.2252, 87.09656
277.7073, 64.70837
278.1895, 60.11890
278.6716, 75.87231
279.1537, 89.17139
279.6358, 90.03577
280.1179, 83.51489
280.6000, 78.37268
281.0822, 76.72534
281.5643, 75.06641
282.0464, 67.66016
282.5285, 53.56311
283.0106, 47.41675
283.4927, 58.42065
283.9749, 73.25012
284.4570, 80.52551
284.9391, 79.22644
285.4212, 72.46606
285.9033, 60.97205
286.3854, 45.17200
286.8676, 41.42603
287.3497, 65.66284
287.8318, 85.41296
288.3139, 78.33594
288.7960, 53.29871
289.2781, 36.04053
289.7603, 42.03394
290.2424, 64.53528
290.7245, 75.04065
291.2066, 62.44153
291.6887, 52.48914
292.1708, 51.43945
292.6530, 54.24756
293.1351, 54.83740
293.6172, 51.05481
294.0993, 44.24792
294.5814, 36.48462
295.0635, 24.72302
295.5457, 18.15125
296.0278, 21.36792
296.5099, 26.14514
296.9920, 26.02490
297.4741, 20.78723
297.9562, 15.14429
298.4384, 14.24658
298.9205, 19.09241
299.4026, 21.74268
299.8847, 18.51855
300.3668, 16.82373
300.8489, 21.71448
301.3310, 30.13086
301.8131, 35.25269
302.2953, 32.17871
302.7774, 22.58765
303.2595, 15.20776
303.7416, 11.25012
304.2237, 8.856567
304.7058, 7.437744
305.1880, 6.980347
305.6701, 7.569336
306.1522, 9.244629
306.6343, 11.73767
307.1164, 15.94482
307.5985, 24.01538
308.0807, 25.66455
308.5628, 10.07300
309.0449, 6.303589
309.5270, 12.94678
310.0091, 9.251343
310.4912, 2.674072
310.9734, 1.063477
311.4555, 2.145142
311.9376, 2.523560
312.4197, 2.631714
312.9018, 1.474854
313.3839, 4.052856
313.8661, 11.46692
314.3482, 13.95251
314.8303, 4.892822
315.3124, 9.414917
315.7945, 17.87219
316.2766, 19.83813
316.7588, 19.56140
317.2409, 17.50513
317.7230, 15.19739
318.2051, 15.58704
318.6872, 21.05103
319.1693, 25.67957
319.6515, 24.32739
320.1336, 18.10596
320.6157, 12.18286
321.0978, 8.840942
321.5799, 5.719604
322.0620, 3.083740
322.5442, 19.68481
323.0263, 29.00940
323.5084, 20.08435
323.9905, 4.381836
324.4726, 1.732056
324.9547, 4.411987
325.4369, 11.63550
325.9190, 9.059814
326.4011, 4.513916
326.8832, 16.76672
327.3653, 29.44519
327.8474, 39.35815
328.3296, 44.85901
328.8117, 46.10730
329.2938, 43.18726
329.7759, 35.60193
330.2580, 24.84119
330.7401, 17.89868
331.2223, 17.41882
331.7044, 17.47864
332.1865, 16.95422
332.6686, 16.90869
333.1507, 19.10083
333.6328, 23.87756
334.1150, 29.19873
334.5971, 31.77722
335.0792, 29.85852
335.5613, 29.95398
336.0434, 34.24927
336.5255, 38.38330
337.0077, 40.95325
337.4898, 41.45105
337.9719, 38.97522
338.4540, 31.59155
338.9361, 20.41064
339.4182, 16.09302
339.9004, 25.30518
340.3825, 31.59692
340.8646, 26.49902
341.3467, 17.35315
341.8288, 14.02808
342.3109, 20.82703
342.7931, 31.67114
343.2752, 37.57349
343.7573, 37.91785
344.2394, 37.62231
344.7215, 36.60913
345.2036, 36.40369
345.6858, 39.69336
346.1679, 46.36194
346.6500, 50.10083
347.1321, 41.70032
347.6142, 27.39246
348.0963, 26.78406
348.5785, 45.82251
349.0606, 66.03015
349.5427, 71.59497
350.0248, 66.50208
350.5069, 61.87512
350.9890, 61.64258
351.4712, 60.96716
351.9533, 52.34595
352.4354, 38.23499
352.9175, 33.10620
353.3996, 47.00305
353.8817, 70.35400
354.3639, 76.40637
354.8460, 56.80798
355.3281, 41.58008
355.8102, 39.49084
356.2923, 44.28308
356.7744, 48.99817
357.2566, 52.09534
357.7387, 55.78918
358.2208, 63.29053
358.7029, 76.51123
359.1850, 82.34229
359.6671, 77.85291
360.1493, 70.12207
360.6314, 58.66895
361.1135, 46.59070
361.5956, 39.92371
362.0777, 42.62854
362.5598, 51.97656
363.0420, 57.87585
363.5241, 57.46741
364.0062, 58.19263
364.4883, 61.49609
364.9704, 65.81897
365.4525, 70.74353
365.9347, 75.80310
366.4168, 78.90674
366.8989, 75.76477
367.3810, 66.15784
367.8631, 60.27820
368.3452, 60.94202
368.8274, 62.79236
369.3095, 61.62476
369.7916, 59.26343
370.2737, 60.54688
370.7558, 70.36694
371.2379, 82.57971
371.7201, 86.70862
372.2022, 82.45972
372.6843, 76.85510
373.1664, 71.46924
373.6485, 66.37268
374.1306, 61.34558
374.6128, 54.96130
375.0949, 53.80151
375.5770, 68.86096
376.0591, 90.30920
376.5412, 95.43176
377.0233, 77.96509
377.5055, 56.88525
377.9876, 51.85022
378.4697, 64.91113
378.9518, 75.60974
379.4339, 86.29431
379.9160, 91.83386
380.3982, 86.29236
380.8803, 72.78711
381.3624, 58.25403
381.8445, 45.37903
382.3266, 36.45801
382.8087, 39.91370
383.2909, 77.12708
383.7730, 98.92786
384.2551, 93.43481
384.7372, 79.78845
385.2193, 74.05090
385.7014, 78.55408
386.1836, 84.97815
386.6657, 84.12097
387.1478, 75.43958
387.6299, 70.10315
388.1120, 71.34155
388.5941, 72.30078
389.0763, 70.36218
389.5584, 66.78333
390.0405, 63.23840
390.5226, 59.94250
391.0047, 58.71802
391.4868, 63.09265
391.9690, 72.61829
392.4511, 81.09656
392.9332, 87.67834
393.4153, 93.03381
393.8974, 96.62585
394.3795, 98.24927
394.8617, 101.0065
395.3438, 110.8169
395.8259, 121.2986
396.3080, 119.4875
396.7901, 104.0159
397.2722, 89.56165
397.7544, 85.32202
398.2365, 88.66943
398.7186, 91.06946
399.2007, 90.07922
399.6828, 91.89624
400.1649, 100.0742
400.6471, 112.3624
401.1292, 127.1843
401.6113, 144.1455
402.0934, 157.7853
402.5755, 157.6892
403.0576, 136.2797
403.5398, 123.8535
404.0219, 126.5835
404.5040, 131.4937
404.9861, 133.6600
405.4682, 131.8088
405.9503, 122.5096
406.4325, 101.6019
406.9146, 76.02112
407.3967, 73.55615
407.8788, 111.7019
408.3609, 136.8685
408.8430, 131.3632
409.3252, 114.9496
409.8073, 100.5940
410.2894, 90.93335
410.7715, 85.44568
411.2536, 83.62085
411.7357, 85.56226
412.2179, 93.48975
412.7000, 110.9292
413.1821, 126.1527
413.6642, 129.4144
414.1463, 124.7263
414.6284, 119.0964
415.1106, 114.0468
415.5927, 108.0883
416.0748, 98.50598
416.5569, 86.91382
417.0390, 77.75110
417.5211, 72.06665
418.0033, 71.33655
418.4854, 79.43286
418.9675, 101.3596
419.4496, 114.4971
419.9317, 111.5153
420.4138, 104.8054
420.8960, 104.3127
421.3781, 107.9330
421.8602, 106.5404
422.3423, 93.81348
422.8244, 72.31531
423.3065, 52.60168
423.7887, 28.86877
424.2708, 16.79199
424.7529, 23.18762
425.2350, 37.14050
425.7171, 52.12744
426.1992, 66.10010
426.6814, 77.03137
427.1635, 82.08704
427.6456, 81.77197
428.1277, 81.85547
428.6098, 83.22559
429.0919, 83.25085
429.5741, 80.23242
430.0562, 75.14856
430.5383, 69.15039
431.0204, 62.12390
431.5025, 55.04956
431.9846, 48.53088
432.4668, 42.60327
432.9489, 37.53247
433.4310, 33.52905
433.9131, 29.83911
434.3952, 24.74268
434.8773, 17.79272
435.3595, 15.68530
435.8416, 21.47839
436.3237, 29.81335
436.8058, 39.48230
437.2879, 49.01172
437.7701, 56.03723
438.2522, 59.45435
438.7343, 58.83362
439.2164, 52.47571
439.6985, 33.96167
440.1806, 21.26843
440.6628, 14.38110
441.1449, 12.79321
441.6270, 20.83472
442.1091, 34.92883
442.5912, 43.04761
443.0733, 32.50452
443.5555, 10.31738
444.0376, 6.750122
444.5197, 31.01782
445.0018, 48.00952
445.4839, 33.66223
445.9660, 10.90894
446.4482, 4.748657
446.9303, 20.76636
447.4124, 33.20618
447.8945, 19.70593
448.3766, 7.259155
448.8587, 20.21057
449.3409, 14.83350
449.8230, 6.080200
450.3051, 5.492798
450.7872, 12.17603
451.2693, 15.86084
451.7514, 14.29883
452.2336, 12.60645
452.7157, 10.49573
453.1978, 9.959595
453.6799, 16.76404
454.1620, 31.62708
454.6441, 44.04199
455.1263, 38.65771
455.6084, 10.71667
456.0905, 7.997437
456.5726, 10.25891
457.0547, 10.06458
457.5368, 12.08044
458.0190, 14.22937
458.5011, 11.44263
458.9832, 0.4702150
459.4653, 10.74512
459.9474, 7.666016
460.4295, 10.02893
460.9117, 18.23828
461.3938, 5.438965
461.8759, 8.605103
462.3580, 2.215332
462.8401, 20.12561
463.3222, 34.51074
463.8044, 27.09436
464.2865, 14.85437
464.7686, 13.97375
465.2507, 21.83936
465.7328, 26.74036
466.2149, 23.28479
466.6971, 15.30054
467.1792, 10.02686
467.6613, 7.386475
468.1434, 8.161255
468.6255, 13.17969
469.1076, 20.80151
469.5898, 32.64478
470.0719, 46.34949
470.5540, 56.21350
471.0361, 58.49707
471.5182, 55.06897
472.0003, 50.74939
472.4825, 44.38330
472.9646, 40.38062
473.4467, 40.65137
473.9288, 43.01160
474.4109, 46.23145
474.8930, 50.26831
475.3752, 55.73840
475.8573, 64.36719
476.3394, 74.09814
476.8215, 81.81653
477.3036, 87.42737
477.7857, 90.42688
478.2679, 89.41064
478.7500, 86.55408
479.2321, 87.80176
479.7142, 96.12402
480.1963, 100.5984
480.6784, 93.13306
481.1606, 84.98108
481.6427, 89.44531
482.1248, 104.9677
482.6069, 117.7382
483.0890, 116.9944
483.5711, 105.4000
484.0533, 97.21753
484.5354, 89.64941
485.0175, 90.77148
485.4996, 106.9705
485.9817, 127.4077
486.4638, 145.7616
486.9460, 160.3021
487.4281, 168.5913
487.9102, 163.2659
488.3923, 150.4738
488.8744, 151.4492
489.3565, 169.1886
489.8387, 184.0154
490.3208, 184.0450
490.8029, 175.7990
491.2850, 173.2622
491.7671, 177.7856
492.2492, 183.9045
492.7314, 191.9238
493.2135, 199.3593
493.6956, 201.6344
494.1777, 199.3308
494.6598, 199.1210
495.1419, 206.3693
495.6241, 219.8844
496.1062, 232.2882
496.5883, 245.9705
497.0704, 254.7488
497.5525, 253.3187
498.0346, 250.2662
498.5168, 254.0137
498.9989, 264.5707
499.4810, 274.0245
499.9631, 273.5249
500.4452, 266.7979
500.9273, 269.8173
501.4095, 285.7458
501.8916, 297.6598
502.3737, 293.1426
502.8558, 283.4133
503.3379, 287.9414
503.8200, 311.6675
504.3022, 329.9971
504.7843, 328.1057
505.2664, 319.1769
505.7485, 317.9062
506.2306, 324.8794
506.7127, 334.4657
507.1949, 344.6713
507.6770, 355.1998
508.1591, 363.6196
508.6412, 370.8719
509.1233, 373.5103
509.6054, 365.4312
510.0876, 357.9498
510.5697, 359.3441
511.0518, 369.6038
511.5339, 384.0801
512.0161, 402.4572
512.4982, 420.4221
512.9803, 424.3364
513.4624, 412.5204
513.9445, 404.6115
514.4266, 408.1104
514.9088, 417.9498
515.3909, 427.9678
515.8730, 438.3214
516.3551, 447.1517
516.8372, 453.5302
517.3193, 457.9569
517.8015, 460.9785
518.2836, 463.4939
518.7657, 467.3965
519.2478, 473.7478
519.7299, 482.3027
520.2120, 494.8057
520.6942, 518.8391
521.1763, 531.3069
521.6584, 524.7131
522.1405, 515.0356
522.6226, 507.6647
523.1047, 504.3751
523.5869, 508.5996
524.0690, 525.1392
524.5511, 543.3660
525.0332, 542.1287
525.5153, 521.5983
525.9974, 510.5212
526.4796, 520.4962
526.9617, 534.0902
527.4438, 525.9471
527.9259, 499.8918
528.4080, 494.7616
528.8901, 539.0112
529.3723, 582.8809
529.8544, 595.0221
530.3365, 585.9325
530.8186, 575.3804
531.3007, 570.3586
531.7828, 569.8451
532.2650, 574.0801
532.7471, 586.1560
533.2292, 586.6628
533.7113, 556.8987
534.1934, 535.9008
534.6755, 545.1158
535.1577, 566.6824
535.6398, 574.3513
536.1219, 559.4727
536.6040, 541.3781
537.0861, 540.3636
537.5682, 551.2820
538.0504, 554.6465
538.5325, 546.3792
539.0146, 538.7247
539.4967, 541.9108
539.9788, 553.3174
540.4609, 557.9025
540.9431, 553.2219
541.4252, 546.8412
541.9073, 537.0909
542.3894, 527.6791
542.8715, 523.8710
543.3536, 524.9807
543.8358, 524.2253
544.3179, 515.1885
544.8000, 500.4719
545.2821, 493.7748
545.7642, 500.1678
546.2463, 504.8751
546.7285, 504.5088
547.2106, 500.2710
547.6926, 489.4941
548.1747, 473.4829
548.6569, 464.4508
549.1390, 476.6411
549.6211, 492.1792
550.1032, 488.6398
550.5853, 469.9719
551.0674, 455.3933
551.5496, 452.8425
552.0317, 455.8335
552.5138, 454.2195
552.9959, 447.6561
553.4780, 437.6183
553.9601, 411.5237
554.4423, 396.4911
554.9244, 416.5192
555.4065, 450.0389
555.8886, 461.4421
556.3707, 437.2313
556.8528, 400.9149
557.3350, 380.8325
557.8171, 375.1970
558.2992, 369.9092
558.7813, 364.9124
559.2634, 356.8502
559.7455, 341.2284
560.2277, 321.6577
560.7098, 308.7354
561.1919, 303.2994
561.6740, 301.5520
562.1561, 309.8341
562.6382, 317.7147
563.1204, 311.9088
563.6025, 293.0853
564.0846, 271.9653
564.5667, 255.1182
565.0488, 243.9580
565.5309, 246.0936
566.0131, 271.0160
566.4952, 285.2617
566.9773, 280.3893
567.4594, 264.7303
567.9415, 235.9908
568.4236, 198.8219
568.9058, 171.8755
569.3879, 169.1652
569.8700, 174.4382
570.3521, 171.4856
570.8342, 162.5519
571.3163, 154.8059
571.7985, 150.3259
572.2806, 148.8010
572.7627, 150.4874
573.2448, 156.0614
573.7269, 158.4017
574.2090, 159.6139
574.6912, 155.2803
575.1733, 136.5088
575.6554, 115.6910
576.1375, 108.2709
576.6196, 116.8218
577.1017, 128.2277
577.5839, 132.6552
578.0660, 130.4028
578.5481, 118.7594
579.0302, 95.66174
579.5123, 82.45679
579.9944, 94.06067
580.4766, 116.7223
580.9587, 123.3685
581.4408, 111.6366
581.9229, 98.14026
582.4050, 81.59448
582.8871, 67.20435
583.3693, 57.49182
583.8514, 52.85901
584.3335, 55.34985
584.8156, 66.03113
585.2977, 77.32300
585.7798, 74.31543
586.2620, 54.92261
586.7441, 47.15210
587.2262, 60.23523
587.7083, 71.90283
588.1904, 69.23169
588.6725, 56.89734
589.1547, 40.45349
589.6368, 16.92908
590.1189, 0.9559330
590.6010, 5.253296
591.0831, 1.492065
591.5652, 4.804443
592.0474, 12.39783
592.5295, 21.11011
593.0116, 31.61487
593.4937, 40.72803
593.9758, 37.63159
594.4579, 16.04773
594.9401, 2.765991
595.4222, 22.13660
595.9043, 33.43176
596.3864, 25.72900
596.8685, 6.431396
597.3506, 5.726196
597.8328, 1.706909
598.3149, 7.456055
598.7970, 14.53528
599.2791, 18.76868
599.7612, 16.04431
600.2433, 5.528442
600.7255, 2.453003
601.2076, 2.305298
601.6897, 17.31006
602.1718, 22.04175
602.6539, 1.800293
603.1360, 8.616455
603.6182, 3.561523
604.1003, 18.30542
604.5824, 19.46533
605.0645, 8.474976
605.5466, 2.294189
606.0287, 5.724243
606.5109, 5.182373
606.9930, 4.884521
607.4751, 4.953491
607.9572, 6.868530
608.4393, 11.58716
608.9214, 16.06641
609.4036, 17.77332
609.8857, 16.66895
610.3678, 11.34436
610.8499, 2.708374
611.3320, 14.82373
611.8141, 24.19812
612.2963, 29.45813
612.7784, 28.16260
613.2605, 20.85461
613.7426, 10.98987
614.2247, 0.9794920
614.7068, 11.88562
615.1890, 11.45496
615.6711, 0.9936520
616.1532, 8.900024
616.6353, 5.798706
617.1174, 0.4320070
617.5995, 6.0913000E-02
618.0817, 7.444214
618.5638, 9.111816
619.0459, 1.685669
619.5280, 11.02856
620.0101, 12.93579
620.4922, 10.66357
620.9744, 6.947632
621.4565, 3.212158
621.9386, 2.339111
622.4207, 7.720703
622.9028, 17.70056
623.3849, 26.73145
623.8671, 35.54333
624.3492, 38.73120
624.8313, 32.34668
625.3134, 22.26355
625.7955, 13.93530
626.2776, 7.269775
626.7598, 5.827881
627.2419, 12.60864
627.7240, 22.02637
628.2061, 37.35876
628.6882, 51.06079
629.1703, 48.91187
629.6525, 29.66370
630.1346, 9.286255
630.6167, 3.748657
631.0988, 10.50098
631.5809, 15.05457
632.0630, 16.55896
632.5452, 19.56763
633.0273, 28.34729
633.5094, 36.38806
633.9915, 34.92114
634.4736, 24.55835
634.9557, 17.09277
635.4379, 14.81348
635.9200, 16.08459
636.4021, 23.34314
636.8842, 32.32312
637.3663, 35.71667
637.8484, 32.27380
638.3306, 27.30542
638.8127, 25.11584
639.2948, 26.17810
639.7769, 35.47900
640.2590, 57.36694
640.7411, 71.90088
641.2233, 69.94592
641.7054, 61.43799
642.1875, 56.61951
642.6696, 55.10938
643.1517, 52.18433
643.6339, 43.26794
644.1160, 36.54492
644.5981, 37.59253
645.0802, 43.30774
645.5623, 50.35059
646.0444, 57.23523
646.5266, 61.02856
647.0087, 57.74365
647.4908, 49.80359
647.9729, 49.96301
648.4550, 62.13538
648.9371, 67.43396
649.4193, 53.48999
649.9014, 39.14392
650.3835, 46.18176
650.8656, 71.01282
651.3477, 88.42737
651.8298, 91.92554
652.3120, 89.81689
652.7941, 82.74976
653.2762, 72.50989
653.7583, 60.38367
654.2404, 49.20142
654.7225, 46.66553
655.2047, 60.65027
655.6868, 82.43713
656.1689, 81.01868
656.6510, 50.60144
657.1331, 35.11365
657.6152, 51.87439
658.0974, 75.76453
658.5795, 85.17285
659.0616, 81.41980
659.5437, 71.67908
660.0258, 49.29810
660.5079, 33.18689
660.9901, 28.56165
661.4722, 31.20532
661.9543, 40.42896
662.4364, 54.48352
662.9185, 67.30127
663.4006, 74.57458
663.8828, 76.44263
664.3649, 71.29407
664.8470, 58.64661
665.3291, 56.45483
665.8112, 71.51404
666.2933, 87.77747
666.7755, 92.21875
667.2576, 87.97253
667.7397, 89.36121
668.2218, 100.8955
668.7039, 110.3168
669.1860, 112.6414
669.6682, 113.6510
670.1503, 119.8643
670.6324, 129.3816
671.1145, 134.7930
671.5966, 132.0104
672.0787, 127.0648
672.5609, 128.8580
673.0430, 135.9370
673.5251, 136.2472
674.0072, 126.5162
674.4893, 122.3892
674.9714, 137.6068
675.4536, 160.6252
675.9357, 160.5160
676.4178, 120.8071
676.8999, 95.68469
677.3820, 93.47083
677.8641, 97.93335
678.3463, 102.8682
678.8284, 107.9108
679.3105, 114.0736
679.7926, 121.6622
680.2747, 128.7974
680.7568, 133.9092
681.2390, 137.1505
681.7211, 138.5708
682.2032, 138.2346
682.6853, 136.5425
683.1674, 132.8842
683.6495, 130.7555
684.1317, 137.0640
684.6138, 155.5883
685.0959, 162.3416
685.5780, 143.9248
686.0601, 129.7963
686.5422, 127.6198
687.0244, 132.8043
687.5065, 146.8822
687.9886, 167.2151
688.4707, 171.8195
688.9528, 130.3230
689.4349, 80.44763
689.9171, 68.53589
690.3992, 84.08838
690.8813, 97.98926
691.3634, 101.9948
691.8455, 95.86462
692.3276, 76.51086
692.8098, 47.21179
693.2919, 39.00806
693.7740, 62.84814
694.2561, 83.73059
694.7382, 99.94897
695.2203, 106.7830
695.7025, 96.53589
696.1846, 73.59619
696.6667, 54.01892
697.1488, 39.70850
697.6309, 32.64575
698.1130, 38.00659
698.5952, 48.95276
699.0773, 58.07092
699.5594, 64.14612
700.0415, 67.96484
700.5236, 69.97253
701.0057, 70.31091
701.4879, 67.66675
701.9700, 61.57068
702.4521, 63.54443
702.9342, 78.79456
703.4163, 91.32190
703.8984, 90.52563
704.3806, 80.96973
704.8627, 73.62500
705.3448, 69.21729
705.8269, 64.73743
706.3090, 59.17725
706.7911, 53.99695
707.2733, 49.87439
707.7554, 46.78601
708.2375, 44.24109
708.7196, 42.17346
709.2017, 42.12036
709.6838, 48.34314
710.1660, 57.00806
710.6481, 55.83850
711.1302, 45.52454
711.6123, 40.27966
712.0944, 45.16785
712.5765, 57.27283
713.0587, 74.92847
713.5408, 98.91565
714.0229, 111.6665
714.5050, 106.0416
714.9871, 98.52771
715.4692, 90.45776
715.9514, 82.47144
716.4335, 72.72778
716.9156, 62.99854
717.3977, 60.71863
717.8798, 74.06238
718.3619, 88.38953
718.8441, 90.20923
719.3262, 85.81897
719.8083, 86.84314
720.2904, 93.95972
720.7725, 99.40894
721.2546, 97.80835
721.7368, 91.86426
722.2189, 87.70007
722.7010, 85.31909
723.1831, 85.02869
723.6652, 88.18848
724.1473, 90.80481
724.6295, 89.99438
725.1116, 87.38513
725.5937, 86.11951
726.0758, 86.07666
726.5579, 87.92432
727.0400, 96.82788
727.5222, 102.5519
728.0043, 95.18262
728.4864, 81.92029
728.9685, 73.85669
729.4506, 74.16443
729.9327, 79.93115
730.4149, 94.08728
730.8970, 109.5851
731.3791, 106.5792
731.8612, 87.37158
732.3433, 74.60730
732.8254, 75.46558
733.3076, 79.93579
733.7897, 76.81055
734.2718, 67.33301
734.7539, 68.46765
735.2360, 91.90759
735.7181, 106.3325
736.2003, 100.9238
736.6824, 92.64709
737.1645, 92.45740
737.6466, 97.86560
738.1287, 100.4540
738.6108, 96.25708
739.0930, 93.17419
739.5751, 97.36890
740.0572, 103.8984
740.5393, 108.3368
741.0214, 109.7445
741.5035, 105.8971
741.9857, 95.71716
742.4678, 85.68506
742.9499, 85.50537
743.4320, 94.60059
743.9141, 106.4861
744.3962, 122.9172
744.8784, 131.8555
745.3605, 127.2922
745.8426, 115.0229
746.3247, 101.6169
746.8068, 86.49292
747.2889, 75.67700
747.7711, 64.37524
748.2532, 63.12549
748.7353, 84.51685
749.2174, 109.4487
749.6995, 118.6265
750.1816, 114.3383
750.6638, 114.4745
751.1459, 132.7755
751.6280, 149.4637
752.1101, 143.4656
752.5922, 124.4958
753.0743, 107.5535
753.5565, 95.50684
754.0386, 91.65027
754.5207, 98.40796
755.0028, 113.9664
755.4849, 138.2870
755.9670, 173.5934
756.4492, 187.7207
756.9313, 172.2979
757.4134, 157.1875
757.8955, 157.7887
758.3776, 164.0142
758.8597, 157.1539
759.3419, 134.3097
759.8240, 121.8286
760.3061, 133.2009
760.7882, 143.1035
761.2703, 137.0577
761.7524, 128.0793
762.2346, 134.2023
762.7167, 154.0818
763.1988, 168.0475
763.6809, 161.8615
764.1630, 150.3936
764.6451, 153.6742
765.1273, 164.6045
765.6094, 161.8077
766.0915, 144.4874
766.5736, 135.8188
767.0557, 151.5468
767.5378, 177.1259
768.0200, 177.5070
768.5021, 145.4412
768.9842, 130.7780
769.4663, 141.3510
769.9484, 155.8779
770.4305, 167.9569
770.9127, 175.2625
771.3948, 175.7878
771.8769, 169.7019
772.3590, 160.1813
772.8411, 142.3213
773.3232, 127.4856
773.8054, 120.4681
774.2875, 118.4143
774.7696, 119.2281
775.2517, 121.9899
775.7338, 125.4956
776.2159, 129.2946
776.6981, 133.6107
777.1802, 140.2556
777.6623, 147.3550
778.1444, 150.7997
778.6265, 150.2251
779.1086, 146.7819
779.5908, 140.9165
780.0729, 133.4774
780.5550, 125.4967
781.0371, 116.7998
781.5192, 110.5894
782.0013, 108.4735
782.4835, 103.4626
782.9656, 87.88245
783.4477, 73.06128
783.9298, 76.56165
784.4119, 98.96594
784.8940, 113.9038
785.3762, 115.5730
785.8583, 114.5249
786.3404, 110.8728
786.8225, 107.9207
787.3046, 111.3610
787.7867, 117.9586
788.2689, 117.4430
788.7510, 103.9410
789.2331, 87.62439
789.7152, 76.11292
790.1973, 67.72729
790.6794, 58.03552
791.1616, 48.31018
791.6437, 46.43494
792.1258, 55.77856
792.6079, 67.28809
793.0900, 67.03845
793.5721, 56.99255
794.0543, 59.16235
794.5364, 76.89062
795.0185, 84.93958
795.5006, 73.99084
795.9827, 55.11169
796.4648, 35.89612
796.9470, 17.36865
797.4291, 11.29761
797.9112, 36.57581
798.3933, 47.15112
798.8754, 25.50183
799.3575, 4.043335
799.8397, 4.364136
800.3218, 17.50049
800.8039, 24.47815
801.2860, 20.24072
801.7681, 14.89026
802.2502, 12.42834
802.7324, 11.95435
803.2145, 14.11682
803.6966, 17.18811
804.1787, 16.55579
804.6608, 12.02625
805.1429, 10.89832
805.6251, 21.12964
806.1072, 36.29041
806.5893, 44.19751
807.0714, 44.74292
807.5535, 33.53149
808.0356, 8.784302
808.5178, 10.12573
808.9999, 8.837646
809.4820, 3.589722
809.9641, 3.516113
810.4462, 14.32788
810.9283, 25.21570
811.4105, 25.45447
811.8926, 24.87439
812.3747, 29.51917
812.8568, 33.67358
813.3389, 28.99585
813.8210, 15.52075
814.3032, 6.477295
814.7853, 5.978882
815.2674, 7.424194
815.7495, 12.79553
816.2316, 15.84937
816.7137, 6.695679
817.1959, 9.830078
817.6780, 17.42517
818.1601, 7.400757
818.6422, 4.031006
819.1243, 1.518433
819.6064, 7.498535
820.0886, 11.35120
820.5707, 10.91479
821.0528, 13.21533
821.5349, 20.53186
822.0170, 26.26477
822.4991, 22.30249
822.9813, 11.16357
823.4634, 3.292358
823.9455, 1.307007
824.4276, 4.150757
824.9097, 5.750610
825.3918, 4.298218
825.8740, 3.516479
826.3561, 13.96423
826.8382, 13.53735
827.3203, 6.837891
827.8024, 17.06897
828.2845, 9.951416
828.7667, 1.410645
829.2488, 3.071045
829.7309, 5.740601
830.2130, 8.786011
830.6951, 12.39221
831.1772, 17.54651
831.6594, 31.45337
832.1415, 38.42700
832.6236, 25.43372
833.1057, 6.814331
833.5878, 4.009277
834.0699, 6.698120
834.5521, 6.171631
835.0342, 4.273315
835.5163, 1.700562
835.9984, 0.3240970
836.4805, 2.921753
836.9626, 9.998535
837.4448, 19.54382
837.9269, 22.81653
838.4090, 17.24390
838.8911, 11.00757
839.3732, 12.86877
839.8553, 20.84070
840.3375, 29.80133
840.8196, 39.94586
841.3017, 38.00519
841.7838, 18.16840
842.2659, 4.285156
842.7480, 15.63812
843.2302, 39.91437
843.7123, 44.77264
844.1944, 21.19458
844.6765, 8.456238
845.1586, 11.56061
845.6407, 18.04559
846.1229, 28.26392
846.6050, 36.85028
847.0871, 35.33850
847.5692, 25.08673
848.0513, 23.31494
848.5334, 43.07776
849.0156, 57.06567
849.4977, 55.32257
849.9798, 47.36780
850.4619, 35.25995
850.9440, 24.11908
851.4261, 23.19635
851.9083, 35.60132
852.3904, 53.43781
852.8725, 82.74707
853.3546, 105.5784
853.8367, 94.89801
854.3188, 65.56165
854.8010, 48.49365
855.2831, 49.21191
855.7652, 54.62335
856.2473, 56.45801
856.7294, 53.76300
857.2115, 38.66028
857.6937, 16.80487
858.1758, 17.71112
858.6579, 43.26514
859.1400, 65.66748
859.6221, 72.05225
860.1042, 69.53632
860.5864, 68.34290
861.0685, 68.21283
861.5506, 59.57324
862.0327, 37.48712
862.5148, 27.14661
862.9969, 38.49841
863.4791, 54.11383
863.9612, 59.98474
864.4433, 59.38330
864.9254, 64.34338
865.4075, 80.37811
865.8896, 90.45959
866.3718, 93.41083
866.8539, 91.40912
867.3360, 80.64905
867.8181, 68.18689
868.3002, 63.26544
868.7823, 65.91577
869.2645, 64.34302
869.7466, 50.16803
870.2287, 37.79358
870.7108, 31.95410
871.1929, 31.69391
871.6750, 38.55170
872.1572, 49.62915
872.6393, 60.75958
873.1214, 70.89886
873.6035, 73.89587
874.0856, 59.60010
874.5677, 41.88062
875.0499, 32.12762
875.5320, 30.89508
876.0141, 46.01123
876.4962, 73.68048
876.9783, 89.27905
877.4604, 73.63202
877.9426, 46.39893
878.4247, 40.55774
878.9068, 50.67041
879.3889, 55.72687
879.8710, 54.86426
880.3531, 59.23639
880.8353, 73.77612
881.3174, 86.25690
881.7995, 80.10651
882.2816, 59.88293
882.7637, 55.41016
883.2458, 69.15863
883.7280, 83.24469
884.2101, 95.94751
884.6922, 102.8546
885.1743, 98.63257
885.6564, 88.13446
886.1385, 83.12500
886.6207, 86.14276
887.1028, 83.02875
887.5849, 66.27734
888.0670, 55.15308
888.5491, 57.05048
889.0313, 64.46423
889.5134, 73.27008
889.9955, 82.35480
890.4776, 86.70654
890.9597, 82.33978
891.4418, 78.89117
891.9240, 77.71606
892.4061, 78.81946
892.8882, 83.95068
893.3703, 90.47278
893.8524, 97.20447
894.3345, 103.1108
894.8167, 99.86487
895.2988, 71.08881
895.7809, 47.76276
896.2630, 51.93970
896.7451, 65.49554
897.2272, 70.78296
897.7094, 68.70660
898.1915, 65.81317
898.6736, 64.36139
899.1557, 67.76550
899.6378, 86.64746
900.1199, 105.2546
900.6021, 100.7676
901.0842, 82.75458
901.5663, 72.30157
902.0484, 72.36914
902.5305, 74.02881
903.0126, 72.41992
903.4948, 67.99133
903.9769, 58.37903
904.4590, 46.80103
904.9411, 43.30750
905.4232, 48.13654
905.9053, 62.99725
906.3875, 88.23956
906.8696, 106.0425
907.3517, 96.80078
907.8338, 71.07959
908.3159, 64.12213
908.7980, 76.03693
909.2802, 88.47137
909.7623, 101.3813
910.2444, 103.6122
910.7265, 87.70880
911.2086, 65.58118
911.6907, 53.01825
912.1729, 50.04504
912.6550, 56.67969
913.1371, 78.92023
913.6192, 91.18256
914.1013, 85.12671
914.5834, 75.52679
915.0656, 69.76605
915.5477, 68.62042
916.0298, 75.81860
916.5119, 97.32080
916.9940, 104.7361
917.4761, 84.32446
917.9583, 69.28412
918.4404, 72.96185
918.9225, 79.89978
919.4046, 77.78400
919.8867, 68.68359
920.3688, 60.84528
920.8510, 55.36951
921.3331, 50.08704
921.8152, 39.72504
922.2973, 35.23248
922.7794, 48.20026
923.2615, 65.51459
923.7437, 70.36658
924.2258, 63.24121
924.7079, 59.24408
925.1900, 66.81873
925.6721, 71.74329
926.1542, 62.75677
926.6364, 54.00140
927.1185, 59.66638
927.6006, 72.58844
928.0827, 78.75085
928.5648, 75.54297
929.0469, 72.63226
929.5291, 79.04822
930.0112, 83.54968
930.4933, 76.20770
930.9754, 64.76392
931.4575, 58.16174
931.9396, 56.46887
932.4218, 56.95026
932.9039, 58.53564
933.3860, 60.06921
933.8681, 61.90100
934.3502, 62.04144
934.8323, 56.07697
935.3145, 47.06793
935.7966, 41.09216
936.2787, 38.91278
936.7608, 38.95374
937.2429, 40.50378
937.7250, 42.10211
938.2072, 39.31964
938.6893, 36.32782
939.1714, 48.72034
939.6535, 70.15033
940.1356, 72.72455
940.6177, 52.12915
941.0999, 29.28278
941.5820, 20.83484
942.0641, 22.89331
942.5462, 29.50922
943.0283, 39.74231
943.5104, 50.70544
943.9926, 61.59961
944.4747, 62.45972
944.9568, 49.97156
945.4389, 36.18176
945.9210, 31.99109
946.4031, 34.40112
946.8853, 35.81866
947.3674, 36.23352
947.8495, 33.41486
948.3316, 26.78961
948.8137, 21.03278
949.2958, 16.96991
949.7780, 20.54742
950.2601, 40.37122
950.7422, 70.67078
951.2243, 84.57764
951.7064, 81.40637
952.1885, 64.60120
952.6707, 28.25543
953.1528, 2.468811
953.6349, 3.094788
954.1170, 17.81171
954.5991, 32.57397
955.0812, 46.77032
955.5634, 44.74213
956.0455, 15.46844
956.5276, 6.132874
957.0097, 35.06171
957.4918, 57.59296
957.9739, 45.34027
958.4561, 17.14069
958.9382, 2.877625
959.4203, 3.149780
959.9024, 9.000977
960.3845, 27.42603
960.8666, 38.88422
961.3488, 34.06964
961.8309, 25.74274
962.3130, 22.27637
962.7951, 22.74915
963.2772, 25.39355
963.7593, 31.08954
964.2415, 30.75604
964.7236, 17.40582
965.2057, 8.183777
965.6878, 11.19739
966.1699, 14.05750
966.6520, 2.812988
967.1342, 13.07343
967.6163, 9.319336
968.0984, 22.59821
968.5805, 41.93378
969.0626, 39.82471
969.5447, 34.26923
970.0269, 26.33105
970.5090, 19.67169
970.9911, 16.99591
971.4732, 17.73181
971.9553, 20.10840
972.4374, 23.66132
972.9196, 29.95300
973.4017, 47.13348
973.8838, 57.02771
974.3659, 45.91345
974.8480, 30.94275
975.3301, 28.58948
975.8123, 35.28564
976.2944, 36.87634
976.7765, 28.36261
977.2586, 24.01849
977.7407, 33.08856
978.2228, 39.59039
978.7050, 35.32471
979.1871, 26.07849
979.6692, 13.24274
980.1513, 0.7659300
980.6334, 1.307251
981.1155, 24.32782
981.5977, 39.17542
982.0798, 28.42798
982.5619, 17.05347
983.0440, 19.19586
983.5261, 26.38550
984.0082, 29.90344
984.4904, 29.21765
984.9725, 26.72083
985.4546, 23.22742
985.9367, 17.37201
986.4188, 7.8185998E-02
986.9009, 10.07587
987.3831, 6.248047
987.8652, 29.92096
988.3473, 37.64447
988.8294, 30.40198
989.3115, 23.93616
989.7936, 23.11414
990.2758, 23.01862
990.7579, 22.39624
991.2400, 21.04236
991.7221, 17.08337
992.2042, 13.47186
992.6863, 14.77374
993.1685, 20.08679
993.6506, 23.25708
994.1327, 20.55750
994.6148, 20.50159
995.0969, 31.24377
995.5790, 41.22058
996.0612, 46.64679
996.5433, 43.98865
997.0254, 20.86371
997.5075, 15.49457
997.9896, 31.95435
998.4717, 11.26910
998.9539, 12.27936
999.4360, 25.60291
999.9181, 33.46649
1000.400, 38.24365
1000.882, 40.03546
1001.364, 36.47418
1001.847, 29.45642
1002.329, 27.38043
1002.811, 36.16473
1003.293, 40.58441
1003.775, 29.45435
1004.257, 15.89178
1004.739, 7.435974
1005.221, 2.908569
1005.703, 1.859680
1006.186, 2.837646
1006.668, 1.006287
1007.150, 7.282776
1007.632, 11.47870
1008.114, 3.833008
1008.596, 6.227234
1009.078, 15.26044
1009.560, 21.36536
1010.043, 21.75543
1010.525, 17.42627
1011.007, 12.37329
1011.489, 7.230713
1011.971, 3.557068
1012.453, 0.4074710
1012.935, 2.1850999E-02
1013.417, 8.860779
1013.899, 22.78882
1014.382, 44.18048
1014.864, 66.93341
1015.346, 72.39093
1015.828, 51.23389
1016.310, 30.93481
1016.792, 25.71344
1017.274, 19.69495
1017.756, 3.482666
1018.239, 25.73792
1018.721, 23.68628
1019.203, 4.423157
1019.685, 5.358459
1020.167, 3.313599
1020.649, 7.001465
1021.131, 5.243958
1021.613, 20.04504
1022.095, 38.60223
1022.578, 50.67596
1023.060, 41.22705
1023.542, 18.84845
1024.024, 5.763611
1024.506, 6.800720
1024.988, 11.67908
1025.470, 26.51331
1025.952, 35.27472
1026.435, 24.41644
1026.917, 11.34290
1027.399, 11.97668
1027.881, 20.67303
1028.363, 22.98419
1028.845, 15.92212
1029.327, 12.50049
1029.809, 17.96210
1030.292, 23.32886
1030.774, 27.36682
1031.256, 29.38818
1031.738, 24.74353
1032.220, 19.52155
1032.702, 27.23090
1033.184, 50.40753
1033.666, 63.02234
1034.148, 53.48511
1034.630, 46.32153
1035.113, 52.24084
1035.595, 54.13934
1036.077, 34.75647
1036.559, 9.611145
1037.041, 3.796082
1037.523, 18.27411
1038.005, 27.93884
1038.487, 29.72925
1038.970, 31.24438
1039.452, 32.65070
1039.934, 34.17816
1040.416, 35.34131
1040.898, 37.20581
1041.380, 42.09723
1041.862, 49.40814
1042.344, 52.14685
1042.826, 47.01886
1043.309, 44.88641
1043.791, 49.88062
1044.273, 50.21429
1044.755, 35.96460
1045.237, 23.29236
1045.719, 29.53979
1046.201, 49.49927
1046.683, 58.95715
1047.166, 55.67841
1047.648, 48.78308
1048.130, 35.66730
1048.612, 27.20490
1049.094, 27.88263
1049.576, 31.13666
1050.058, 31.78278
1050.540, 30.46655
1051.022, 28.18158
1051.505, 24.26996
1051.987, 27.41016
1052.469, 39.57812
1052.951, 45.90863
1053.433, 42.35034
1053.915, 34.67529
1054.397, 25.34296
1054.879, 18.83984
1055.361, 24.64966
1055.844, 40.79388
1056.326, 47.50983
1056.808, 44.19446
1057.290, 42.47070
1057.772, 44.42676
1058.254, 47.58887
1058.736, 50.83295
1059.218, 52.38135
1059.701, 47.99066
1060.183, 41.57666
1060.665, 53.26550
1061.147, 76.50775
1061.629, 68.49780
1062.111, 29.45081
1062.593, 1.906982
1063.075, 2.171814
1063.557, 12.27051
1064.040, 15.78857
1064.522, 16.70184
1065.004, 24.16553
1065.486, 33.66010
1065.968, 28.68457
1066.450, 15.33820
1066.932, 23.02875
1067.414, 55.77466
1067.896, 81.51825
1068.379, 77.28326
1068.861, 61.29272
1069.343, 50.19946
1069.825, 43.08624
1070.307, 40.91077
1070.789, 40.73273
1071.271, 34.79749
1071.753, 24.42596
1072.236, 20.68457
1072.718, 29.29120
1073.200, 39.82190
1073.682, 45.22571
1074.164, 48.86115
1074.646, 53.81091
1075.128, 58.48279
1075.610, 60.04309
1076.093, 58.27301
1076.575, 57.89984
1077.057, 60.89948
1077.539, 62.44318
1078.021, 56.86212
1078.503, 53.59851
1078.985, 59.02136
1079.467, 67.11719
1079.949, 79.04486
1080.432, 87.97461
1080.914, 78.78473
1081.396, 51.49396
1081.878, 37.59418
1082.360, 56.36346
1082.842, 67.05573
1083.324, 52.43988
1083.806, 41.94977
1084.288, 56.09424
1084.771, 75.53662
1085.253, 76.94165
1085.735, 64.91284
1086.217, 60.64569
1086.699, 68.93359
1087.181, 72.61084
1087.663, 69.76453
1088.145, 65.83972
1088.628, 60.46008
1089.110, 57.93378
1089.592, 62.92700
1090.074, 71.15936
1090.556, 73.53558
1091.038, 69.97467
1091.520, 61.74457
1092.002, 47.20007
1092.484, 39.66638
1092.967, 42.82422
1093.449, 46.46619
1093.931, 45.93774
1094.413, 45.05573
1094.895, 49.96582
1095.377, 58.00067
1095.859, 56.21521
1096.341, 46.76080
1096.823, 49.17566
1097.306, 62.62848
1097.788, 62.25861
1098.270, 40.97809
1098.752, 17.88995
1099.234, 7.168030
1099.716, 7.895203
1100.198, 24.91351
1100.680, 47.62451
1101.163, 53.69830
1101.645, 47.57288
1102.127, 41.51624
1102.609, 37.80017
1103.091, 36.86957
1103.573, 41.89026
1104.055, 46.55060
1104.537, 44.50189
1105.020, 40.84442
1105.502, 41.33008
1105.984, 42.11749
1106.466, 35.11499
1106.948, 25.50702
1107.430, 27.74030
1107.912, 43.86896
1108.394, 54.31281
1108.876, 45.90198
1109.359, 37.80713
1109.841, 36.47174
1110.323, 38.49884
1110.805, 44.12219
1111.287, 50.39020
1111.769, 54.83105
1112.251, 56.88617
1112.733, 54.85687
1113.215, 47.60498
1113.698, 38.48767
1114.180, 18.74878
1114.662, 11.75055
1115.144, 32.05237
1115.626, 53.22668
1116.108, 57.39868
1116.590, 51.02289
1117.072, 45.47241
1117.555, 40.73785
1118.037, 37.04901
1118.519, 33.91394
1119.001, 36.07709
1119.483, 45.71143
1119.965, 48.70386
1120.447, 37.98987
1120.929, 26.82440
1121.411, 30.19769
1121.894, 40.02661
1122.376, 31.47327
1122.858, 9.996216
1123.340, 5.095703
1123.822, 15.31891
1124.304, 29.19653
1124.786, 42.46027
1125.268, 46.24445
1125.750, 34.94141
1126.233, 22.11035
1126.715, 26.45105
1127.197, 35.35699
1127.679, 29.68018
1128.161, 17.73523
1128.643, 12.44324
1129.125, 13.27625
1129.607, 14.45801
1130.090, 14.51367
1130.572, 16.36328
1131.054, 24.62592
1131.536, 29.37909
1132.018, 21.79645
1132.500, 13.03278
1132.982, 11.26617
1133.464, 12.27765
1133.947, 9.893982
1134.429, 5.163940
1134.911, 4.462769
1135.393, 10.63702
1135.875, 13.65369
1136.357, 3.276855
1136.839, 4.693115
1137.321, 36.91718
1137.803, 59.63116
1138.286, 44.02911
1138.768, 12.81598
1139.250, 1.049927
1139.732, 0.9027100
1140.214, 3.901550
1140.696, 8.085327
1141.178, 14.67413
1141.660, 24.65833
1142.142, 24.76996
1142.625, 10.00543
1143.107, 2.477600
1143.589, 0.8204350
1144.071, 13.39722
1144.553, 28.51819
1145.035, 42.21368
1145.517, 38.63861
1145.999, 23.58954
1146.482, 14.49530
1146.964, 13.13348
1147.446, 14.35858
1147.928, 16.21930
1148.410, 20.61353
1148.892, 34.34259
1149.374, 41.91156
1149.856, 18.75311
1150.339, 7.079468
1150.821, 0.9771120
1151.303, 17.51129
1151.785, 13.41351
1152.267, 10.17731
1152.749, 20.66034
1153.231, 7.141663
1153.713, 7.599365
1154.195, 22.29297
1154.677, 32.17200
1155.160, 36.75647
1155.642, 34.79163
1156.124, 21.00952
1156.606, 4.102112
1157.088, 3.207092
1157.570, 1.570862
1158.052, 2.687744
1158.534, 13.35339
1159.017, 8.890869
1159.499, 18.15924
1159.981, 24.73419
1160.463, 4.451233
1160.945, 34.26996
1161.427, 39.30579
1161.909, 30.30725
1162.391, 23.41248
1162.874, 18.27643
1163.356, 13.78998
1163.838, 9.988586
1164.320, 7.080078
1164.802, 5.096497
1165.284, 3.037903
1165.766, 1.138062
1166.248, 4.931519
1166.730, 22.12207
1167.213, 35.78619
1167.695, 27.21277
1168.177, 13.93909
1168.659, 9.309509
1169.141, 10.83997
1169.623, 15.94598
1170.105, 22.99335
1170.587, 29.62524
1171.069, 35.75677
1171.552, 38.67810
1172.034, 36.67218
1172.516, 33.57318
1172.998, 27.11768
1173.480, 22.70929
1173.962, 23.53668
1174.444, 25.90637
1174.926, 25.67780
1175.409, 24.10309
1175.891, 25.35352
1176.373, 29.44836
1176.855, 38.92358
1177.337, 54.21490
1177.819, 52.56635
1178.301, 30.29871
1178.783, 13.53790
1179.266, 15.00226
1179.748, 20.60217
1180.230, 13.24182
1180.712, 5.321533
1181.194, 24.23920
1181.676, 51.87030
1182.158, 57.15839
1182.640, 45.65680
1183.122, 27.22827
1183.604, 8.632874
1184.087, 5.860718
1184.569, 27.27692
1185.051, 45.01111
1185.533, 46.95288
1186.015, 41.82123
1186.497, 23.48657
1186.979, 9.451355
1187.461, 18.18304
1187.944, 34.37177
1188.426, 34.58002
1188.908, 21.80493
1189.390, 15.04407
1189.872, 14.84735
1190.354, 19.26318
1190.836, 29.61316
1191.318, 38.71246
1191.801, 45.48572
1192.283, 50.45123
1192.765, 53.91687
1193.247, 53.32867
1193.729, 44.64868
1194.211, 33.27539
1194.693, 36.28302
1195.175, 45.93988
1195.657, 38.73145
1196.140, 20.02948
1196.622, 7.447388
1197.104, 3.858459
1197.586, 10.60651
1198.068, 24.56934
1198.550, 35.94867
1199.032, 29.77185
1199.514, 21.97656
1199.996, 19.19757
1200.479, 20.61676
1200.961, 35.66827
1201.443, 49.07172
1201.925, 38.38635
1202.407, 11.00049
1202.889, 2.783386
1203.371, 22.86945
1203.853, 32.73340
1204.336, 28.74835
1204.818, 25.15656
1205.300, 24.53827
1205.782, 29.68170
1206.264, 43.64294
1206.746, 55.09485
1207.228, 49.17706
1207.710, 33.22852
1208.193, 25.17218
1208.675, 22.39917
1209.157, 14.91724
1209.639, 6.541992
1210.121, 12.68628
1210.603, 31.63812
1211.085, 45.27496
1211.567, 46.41742
1212.049, 43.53009
1212.531, 39.77661
1213.014, 36.80255
1213.496, 37.02228
1213.978, 36.59900
1214.460, 35.11719
1214.942, 30.03741
1215.424, 12.60602
1215.906, 10.33856
1216.388, 12.73682
1216.871, 10.70874
1217.353, 20.86774
1217.835, 13.11371
1218.317, 12.76086
1218.799, 24.63348
1219.281, 34.99402
1219.763, 38.33032
1220.245, 35.39172
1220.728, 27.08075
1221.210, 18.18579
1221.692, 19.84814
1222.174, 26.25415
1222.656, 24.63684
1223.138, 18.60126
1223.620, 17.15808
1224.102, 18.92133
1224.584, 13.64166
1225.067, 0.2798460
1225.549, 0.8027340
1226.031, 30.64697
1226.513, 52.75916
1226.995, 42.59851
1227.477, 31.79608
1227.959, 40.34943
1228.441, 46.58533
1228.923, 28.55341
1229.406, 3.062500
1229.888, 6.695313
1230.370, 10.25104
1230.852, 22.13458
1231.334, 28.80591
1231.816, 35.55200
1232.298, 42.30487
1232.780, 36.48212
1233.263, 16.68964
1233.745, 7.236084
1234.227, 22.24805
1234.709, 38.50018
1235.191, 28.72607
1235.673, 13.71234
1236.155, 20.55737
1236.637, 29.57440
1237.120, 22.90930
1237.602, 8.993408
1238.084, 7.638855
1238.566, 18.11224
1239.048, 27.24420
1239.530, 32.90466
1240.012, 37.62732
1240.494, 44.88666
1240.976, 44.47681
1241.458, 32.96643
1241.941, 19.22229
1242.423, 4.997437
1242.905, 0.0000000E+00
##END=



